{
  "AcquisitionMatrixPE": 104,
  "AcquisitionNumber": 1,
  "AcquisitionTime": "16:40:9.730000",
  "BandwidthPerPixelPhaseEncode": 13.935,
  "BaseResolution": 104,
  "CoilString": "C:HEA;HEP",
  "ConversionSoftware": "dcm2niix",
  "ConversionSoftwareVersion": "v1.0.20210317",
  "DerivedVendorReportedEchoSpacing": 0.000690017,
  "DeviceSerialNumber": "35450",
  "DwellTime": 2.5e-06,
  "EchoTime": 0.0348,
  "EffectiveEchoSpacing": 0.000690017,
  "FlipAngle": 55,
  "ImageComments": "Unaliased MB8/PE3",
  "ImageOrientationPatientDICOM": [1, 0, 0, 0, 0.969016, -0.246999],
  "ImageType": [
    "ORIGINAL",
    "PRIMARY",
    "M",
    "MB",
    "ND",
    "MOSAIC"
],
  "ImagingFrequency": 123.234,
  "InPlanePhaseEncodingDirectionDICOM": "COL",
  "InstitutionAddress": "Univeristy Ave. 197,Newark,North East,US,07102-1814",
  "InstitutionName": "RUBIC",
  "InstitutionalDepartmentName": "Department",
  "MRAcquisitionType": "2D",
  "MagneticFieldStrength": 3,
  "Manufacturer": "Siemens",
  "ManufacturersModelName": "TrioTim",
  "Modality": "MR",
  "MultibandAccelerationFactor": 8,
  "PartialFourier": 0.875,
  "PatientPosition": "HFS",
  "PercentPhaseFOV": 100,
  "PercentSampling": 100,
  "PhaseEncodingDirection": "j-",
  "PhaseEncodingSteps": 91,
  "PhaseResolution": 1,
  "PixelBandwidth": 1923,
  "ProcedureStepDescription": "Cole^Michael",
  "ProtocolName": "cmrr_mbep2d_bold_2mm_MB8_Task_8x",
  "PulseSequenceDetails": "%CustomerSeq%\\cmrr_mbep2d_bold",
  "ReceiveCoilName": "32Ch_Head",
  "ReconMatrixPE": 104,
  "RepetitionTime": 0.785,
  "SAR": 0.113554,
  "ScanOptions": "PFP\\FS",
  "ScanningSequence": "EP",
  "SequenceName": "epfid2d1_104",
  "SequenceVariant": "SK\\SS",
  "SeriesDescription": "cmrr_mbep2d_bold_2mm_MB8_Task_8x",
  "SeriesNumber": 23,
  "ShimSetting": [2109, -373, -7303, 488, -79, -354, 228, -24],
  "SliceThickness": 2,
  "SliceTiming": [0, 0.4375, 0.0875, 0.525, 0.175, 0.6125, 0.2625, 0.7, 0.35, 0, 0.4375, 0.0875, 0.525, 0.175, 0.6125, 0.2625, 0.7, 0.35, 0, 0.4375, 0.0875, 0.525, 0.175, 0.6125, 0.2625, 0.7, 0.35, 0, 0.4375, 0.0875, 0.525, 0.175, 0.6125, 0.2625, 0.7, 0.35, 0, 0.4375, 0.0875, 0.525, 0.175, 0.6125, 0.2625, 0.7, 0.35, 0, 0.4375, 0.0875, 0.525, 0.175, 0.6125, 0.2625, 0.7, 0.35, 0, 0.4375, 0.0875, 0.525, 0.175, 0.6125, 0.2625, 0.7, 0.35, 0, 0.4375, 0.0875, 0.525, 0.175, 0.6125, 0.2625, 0.7, 0.35],
  "SoftwareVersions": "syngo MR B19",
  "SpacingBetweenSlices": 2,
  "StationName": "MRC35450",
  "TaskName": "cpro",
  "TotalReadoutTime": 0.0710717,
  "TxRefAmp": 325.228,
  "dcmmeta_affine": [
    [-2.0, 0.0, 0.0, 109.4237289428711],
    [0.0, 1.9380314350128174, -0.4939979910850525, -72.00485229492188],
    [0.0, 0.4939979910850525, 1.9380314350128174, -97.53881072998047],
    [0.0, 0.0, 0.0, 1.0]
],
  "dcmmeta_reorient_transform": [
    [0.0, -1.0, 0.0, 103.0],
    [1.0, 0.0, 0.0, 0.0],
    [0.0, 0.0, 1.0, 0.0],
    [0.0, 0.0, 0.0, 1.0]
],
  "dcmmeta_shape": [104, 104, 72, 581],
  "dcmmeta_slice_dim": 2,
  "dcmmeta_version": 0.6,
  "global": {
    "const": {
      "AcquisitionMatrix": [104, 0, 0, 104],
      "AngioFlag": "N",
      "BitsAllocated": 16,
      "BitsStored": 12,
      "Columns": 936,
      "EchoNumbers": 1,
      "EchoTime": 34.8,
      "EchoTrainLength": 1,
      "FlipAngle": 55.0,
      "HighBit": 11,
      "ImageOrientationPatient": [1.0, 0.0, 0.0, 0.0, 0.96901573474032, -0.2469989996451],
      "ImagePositionPatient": [-941.42372894287, -933.83347884609, 158.84615399986],
      "ImageType": [
        "ORIGINAL",
        "PRIMARY",
        "M",
        "MB",
        "ND",
        "MOSAIC"
],
      "ImagedNucleus": "1H",
      "ImagingFrequency": 123.234449,
      "InPlanePhaseEncodingDirection": "COL",
      "MRAcquisitionType": "2D",
      "MagneticFieldStrength": 3.0,
      "Manufacturer": "SIEMENS",
      "ManufacturerModelName": "TrioTim",
      "Modality": "MR",
      "NumberOfAverages": 1.0,
      "NumberOfPhaseEncodingSteps": 91,
      "PercentPhaseFieldOfView": 100.0,
      "PercentSampling": 100.0,
      "PerformedProcedureStepStartTime": "142138.500000",
      "PhotometricInterpretation": "MONOCHROME2",
      "PixelBandwidth": 1923.0,
      "PixelRepresentation": 0,
      "PixelSpacing": [2.0, 2.0],
      "ProtocolName": "cmrr_mbep2d_bold_2mm_MB8_Task_8x",
      "RepetitionTime": 785.0,
      "Rows": 936,
      "SAR": 0.11355432133489,
      "SamplesPerPixel": 1,
      "ScanOptions": [
        "PFP",
        "FS"
],
      "ScanningSequence": "EP",
      "SequenceName": "epfid2d1_104",
      "SequenceVariant": [
        "SK",
        "SS"
],
      "SeriesDescription": "cmrr_mbep2d_bold_2mm_MB8_Task_8x",
      "SeriesNumber": 23,
      "SeriesTime": "180013.875000",
      "SliceLocation": -76.731512481254,
      "SliceThickness": 2.0,
      "SmallestImagePixelValue": 0,
      "SoftwareVersions": "syngo MR B19",
      "SpacingBetweenSlices": 2.0000000166207,
      "SpecificCharacterSet": "ISO_IR 100",
      "StudyID": "1",
      "StudyTime": "142138.468000",
      "TransmitCoilName": "Body",
      "VariableFlipAngleFlag": "N",
      "WindowCenterWidthExplanation": "Algo1",
      "dBdt": 0.0},
    "slices": {}
  },
  "time": {
    "samples": {
      "AcquisitionNumber": [1, 2, 3, 4, 5, 6, 7, 8, 9, 10, 11, 12, 13, 14, 15, 16, 17, 18, 19, 20, 21, 22, 23, 24, 25, 26, 27, 28, 29, 30, 31, 32, 33, 34, 35, 36, 37, 38, 39, 40, 41, 42, 43, 44, 45, 46, 47, 48, 49, 50, 51, 52, 53, 54, 55, 56, 57, 58, 59, 60, 61, 62, 63, 64, 65, 66, 67, 68, 69, 70, 71, 72, 73, 74, 75, 76, 77, 78, 79, 80, 81, 82, 83, 84, 85, 86, 87, 88, 89, 90, 91, 92, 93, 94, 95, 96, 97, 98, 99, 100, 101, 102, 103, 104, 105, 106, 107, 108, 109, 110, 111, 112, 113, 114, 115, 116, 117, 118, 119, 120, 121, 122, 123, 124, 125, 126, 127, 128, 129, 130, 131, 132, 133, 134, 135, 136, 137, 138, 139, 140, 141, 142, 143, 144, 145, 146, 147, 148, 149, 150, 151, 152, 153, 154, 155, 156, 157, 158, 159, 160, 161, 162, 163, 164, 165, 166, 167, 168, 169, 170, 171, 172, 173, 174, 175, 176, 177, 178, 179, 180, 181, 182, 183, 184, 185, 186, 187, 188, 189, 190, 191, 192, 193, 194, 195, 196, 197, 198, 199, 200, 201, 202, 203, 204, 205, 206, 207, 208, 209, 210, 211, 212, 213, 214, 215, 216, 217, 218, 219, 220, 221, 222, 223, 224, 225, 226, 227, 228, 229, 230, 231, 232, 233, 234, 235, 236, 237, 238, 239, 240, 241, 242, 243, 244, 245, 246, 247, 248, 249, 250, 251, 252, 253, 254, 255, 256, 257, 258, 259, 260, 261, 262, 263, 264, 265, 266, 267, 268, 269, 270, 271, 272, 273, 274, 275, 276, 277, 278, 279, 280, 281, 282, 283, 284, 285, 286, 287, 288, 289, 290, 291, 292, 293, 294, 295, 296, 297, 298, 299, 300, 301, 302, 303, 304, 305, 306, 307, 308, 309, 310, 311, 312, 313, 314, 315, 316, 317, 318, 319, 320, 321, 322, 323, 324, 325, 326, 327, 328, 329, 330, 331, 332, 333, 334, 335, 336, 337, 338, 339, 340, 341, 342, 343, 344, 345, 346, 347, 348, 349, 350, 351, 352, 353, 354, 355, 356, 357, 358, 359, 360, 361, 362, 363, 364, 365, 366, 367, 368, 369, 370, 371, 372, 373, 374, 375, 376, 377, 378, 379, 380, 381, 382, 383, 384, 385, 386, 387, 388, 389, 390, 391, 392, 393, 394, 395, 396, 397, 398, 399, 400, 401, 402, 403, 404, 405, 406, 407, 408, 409, 410, 411, 412, 413, 414, 415, 416, 417, 418, 419, 420, 421, 422, 423, 424, 425, 426, 427, 428, 429, 430, 431, 432, 433, 434, 435, 436, 437, 438, 439, 440, 441, 442, 443, 444, 445, 446, 447, 448, 449, 450, 451, 452, 453, 454, 455, 456, 457, 458, 459, 460, 461, 462, 463, 464, 465, 466, 467, 468, 469, 470, 471, 472, 473, 474, 475, 476, 477, 478, 479, 480, 481, 482, 483, 484, 485, 486, 487, 488, 489, 490, 491, 492, 493, 494, 495, 496, 497, 498, 499, 500, 501, 502, 503, 504, 505, 506, 507, 508, 509, 510, 511, 512, 513, 514, 515, 516, 517, 518, 519, 520, 521, 522, 523, 524, 525, 526, 527, 528, 529, 530, 531, 532, 533, 534, 535, 536, 537, 538, 539, 540, 541, 542, 543, 544, 545, 546, 547, 548, 549, 550, 551, 552, 553, 554, 555, 556, 557, 558, 559, 560, 561, 562, 563, 564, 565, 566, 567, 568, 569, 570, 571, 572, 573, 574, 575, 576, 577, 578, 579, 580, 581],
      "AcquisitionTime": ["164009.730000", "164010.517500", "164011.307500", "164012.095000", "164012.882500", "164013.672500", "164014.460000", "164015.247500", "164016.035000", "164016.825000", "164017.612500", "164018.400000", "164019.187500", "164019.977500", "164020.765000", "164021.552500", "164022.340000", "164023.130000", "164023.917500", "164024.705000", "164025.492500", "164026.282500", "164027.070000", "164027.857500", "164028.645000", "164029.435000", "164030.222500", "164031.010000", "164031.800000", "164032.587500", "164033.375000", "164034.162500", "164034.952500", "164035.740000", "164036.527500", "164037.315000", "164038.105000", "164038.892500", "164039.680000", "164040.467500", "164041.257500", "164042.045000", "164042.832500", "164043.620000", "164044.410000", "164045.197500", "164045.985000", "164046.772500", "164047.562500", "164048.350000", "164049.137500", "164049.927500", "164050.715000", "164051.502500", "164052.290000", "164053.080000", "164053.867500", "164054.655000", "164055.442500", "164056.232500", "164057.020000", "164057.807500", "164058.595000", "164059.385000", "164100.172500", "164100.960000", "164101.747500", "164102.537500", "164103.325000", "164104.112500", "164104.900000", "164105.690000", "164106.477500", "164107.265000", "164108.055000", "164108.842500", "164109.630000", "164110.417500", "164111.207500", "164111.995000", "164112.782500", "164113.570000", "164114.360000", "164115.147500", "164115.935000", "164116.722500", "164117.512500", "164118.300000", "164119.087500", "164119.875000", "164120.665000", "164121.452500", "164122.240000", "164123.027500", "164123.817500", "164124.605000", "164125.392500", "164126.182500", "164126.970000", "164127.757500", "164128.545000", "164129.335000", "164130.122500", "164130.910000", "164131.697500", "164132.487500", "164133.275000", "164134.062500", "164134.850000", "164135.640000", "164136.427500", "164137.215000", "164138.002500", "164138.792500", "164139.580000", "164140.367500", "164141.155000", "164141.945000", "164142.732500", "164143.520000", "164144.310000", "164145.097500", "164145.885000", "164146.672500", "164147.462500", "164148.250000", "164149.037500", "164149.825000", "164150.615000", "164151.402500", "164152.190000", "164152.977500", "164153.767500", "164154.555000", "164155.342500", "164156.130000", "164156.920000", "164157.707500", "164158.495000", "164159.282500", "164200.072500", "164200.860000", "164201.647500", "164202.437500", "164203.225000", "164204.012500", "164204.800000", "164205.590000", "164206.377500", "164207.165000", "164207.952500", "164208.742500", "164209.530000", "164210.317500", "164211.105000", "164211.895000", "164212.682500", "164213.470000", "164214.257500", "164215.047500", "164215.835000", "164216.622500", "164217.410000", "164218.200000", "164218.987500", "164219.775000", "164220.565000", "164221.352500", "164222.140000", "164222.927500", "164223.717500", "164224.505000", "164225.292500", "164226.080000", "164226.870000", "164227.657500", "164228.445000", "164229.232500", "164230.022500", "164230.810000", "164231.597500", "164232.385000", "164233.175000", "164233.962500", "164234.750000", "164235.540000", "164236.327500", "164237.115000", "164237.902500", "164238.692500", "164239.480000", "164240.267500", "164241.055000", "164241.845000", "164242.632500", "164243.420000", "164244.207500", "164244.997500", "164245.785000", "164246.572500", "164247.360000", "164248.150000", "164248.937500", "164249.725000", "164250.512500", "164251.302500", "164252.090000", "164252.877500", "164253.667500", "164254.455000", "164255.242500", "164256.030000", "164256.820000", "164257.607500", "164258.395000", "164259.182500", "164259.972500", "164300.760000", "164301.547500", "164302.335000", "164303.125000", "164303.912500", "164304.700000", "164305.487500", "164306.277500", "164307.065000", "164307.852500", "164308.640000", "164309.430000", "164310.217500", "164311.005000", "164311.795000", "164312.582500", "164313.370000", "164314.157500", "164314.947500", "164315.735000", "164316.522500", "164317.310000", "164318.100000", "164318.887500", "164319.675000", "164320.462500", "164321.252500", "164322.040000", "164322.827500", "164323.615000", "164324.405000", "164325.192500", "164325.980000", "164326.767500", "164327.557500", "164328.345000", "164329.132500", "164329.922500", "164330.710000", "164331.497500", "164332.285000", "164333.075000", "164333.862500", "164334.650000", "164335.437500", "164336.227500", "164337.015000", "164337.802500", "164338.590000", "164339.380000", "164340.167500", "164340.955000", "164341.742500", "164342.532500", "164343.320000", "164344.107500", "164344.895000", "164345.685000", "164346.472500", "164347.260000", "164348.050000", "164348.837500", "164349.625000", "164350.412500", "164351.202500", "164351.990000", "164352.777500", "164353.565000", "164354.355000", "164355.142500", "164355.930000", "164356.717500", "164357.507500", "164358.295000", "164359.082500", "164359.870000", "164400.660000", "164401.447500", "164402.235000", "164403.022500", "164403.812500", "164404.600000", "164405.387500", "164406.177500", "164406.965000", "164407.752500", "164408.540000", "164409.330000", "164410.117500", "164410.905000", "164411.692500", "164412.482500", "164413.270000", "164414.057500", "164414.845000", "164415.635000", "164416.422500", "164417.210000", "164417.997500", "164418.787500", "164419.575000", "164420.362500", "164421.150000", "164421.940000", "164422.727500", "164423.515000", "164424.305000", "164425.092500", "164425.880000", "164426.667500", "164427.457500", "164428.245000", "164429.032500", "164429.820000", "164430.610000", "164431.397500", "164432.185000", "164432.972500", "164433.762500", "164434.550000", "164435.337500", "164436.125000", "164436.915000", "164437.702500", "164438.490000", "164439.277500", "164440.067500", "164440.855000", "164441.642500", "164442.432500", "164443.220000", "164444.007500", "164444.795000", "164445.585000", "164446.372500", "164447.160000", "164447.947500", "164448.737500", "164449.525000", "164450.312500", "164451.100000", "164451.890000", "164452.677500", "164453.465000", "164454.252500", "164455.042500", "164455.830000", "164456.617500", "164457.405000", "164458.195000", "164458.982500", "164459.770000", "164500.560000", "164501.347500", "164502.135000", "164502.922500", "164503.712500", "164504.500000", "164505.287500", "164506.075000", "164506.865000", "164507.652500", "164508.440000", "164509.227500", "164510.017500", "164510.805000", "164511.592500", "164512.380000", "164513.170000", "164513.957500", "164514.745000", "164515.532500", "164516.322500", "164517.110000", "164517.897500", "164518.687500", "164519.475000", "164520.262500", "164521.050000", "164521.840000", "164522.627500", "164523.415000", "164524.202500", "164524.992500", "164525.780000", "164526.567500", "164527.355000", "164528.145000", "164528.932500", "164529.720000", "164530.507500", "164531.297500", "164532.085000", "164532.872500", "164533.660000", "164534.450000", "164535.237500", "164536.025000", "164536.815000", "164537.602500", "164538.390000", "164539.177500", "164539.967500", "164540.755000", "164541.542500", "164542.330000", "164543.120000", "164543.907500", "164544.695000", "164545.482500", "164546.272500", "164547.060000", "164547.847500", "164548.635000", "164549.425000", "164550.212500", "164551.000000", "164551.790000", "164552.577500", "164553.365000", "164554.152500", "164554.942500", "164555.730000", "164556.517500", "164557.305000", "164558.095000", "164558.882500", "164559.670000", "164600.457500", "164601.247500", "164602.035000", "164602.822500", "164603.610000", "164604.400000", "164605.187500", "164605.975000", "164606.762500", "164607.552500", "164608.340000", "164609.127500", "164609.917500", "164610.705000", "164611.492500", "164612.280000", "164613.070000", "164613.857500", "164614.645000", "164615.432500", "164616.222500", "164617.010000", "164617.797500", "164618.585000", "164619.375000", "164620.162500", "164620.950000", "164621.737500", "164622.527500", "164623.315000", "164624.102500", "164624.890000", "164625.680000", "164626.467500", "164627.255000", "164628.045000", "164628.832500", "164629.620000", "164630.407500", "164631.197500", "164631.985000", "164632.772500", "164633.560000", "164634.350000", "164635.137500", "164635.925000", "164636.712500", "164637.502500", "164638.290000", "164639.077500", "164639.865000", "164640.655000", "164641.442500", "164642.230000", "164643.017500", "164643.807500", "164644.595000", "164645.382500", "164646.172500", "164646.960000", "164647.747500", "164648.535000", "164649.325000", "164650.112500", "164650.900000", "164651.687500", "164652.477500", "164653.265000", "164654.052500", "164654.840000", "164655.630000", "164656.417500", "164657.205000", "164657.992500", "164658.782500", "164659.570000", "164700.357500", "164701.145000", "164701.935000", "164702.722500", "164703.510000", "164704.300000", "164705.087500", "164705.875000", "164706.662500", "164707.452500", "164708.240000", "164709.027500", "164709.815000", "164710.605000", "164711.392500", "164712.180000", "164712.967500", "164713.757500", "164714.545000", "164715.332500", "164716.120000", "164716.910000", "164717.697500", "164718.485000", "164719.272500", "164720.062500", "164720.850000", "164721.637500", "164722.427500", "164723.215000", "164724.002500", "164724.790000", "164725.580000", "164726.367500", "164727.155000", "164727.942500", "164728.732500", "164729.520000", "164730.307500", "164731.095000", "164731.885000", "164732.672500", "164733.460000", "164734.247500", "164735.037500", "164735.825000", "164736.612500", "164737.400000", "164738.190000", "164738.977500", "164739.765000", "164740.555000", "164741.342500", "164742.130000", "164742.917500", "164743.707500", "164744.495000", "164745.282500", "164746.070000", "164746.860000"],
      "ContentTime": ["180013.875000", "180013.875000", "180013.875000", "180013.890000", "180113.843000", "180113.843000", "180113.843000", "180113.859000", "180113.859000", "180113.859000", "180113.859000", "180113.859000", "180113.859000", "180113.859000", "180113.875000", "180113.875000", "180113.875000", "180113.875000", "180113.875000", "180113.875000", "180113.875000", "180113.890000", "180113.890000", "180113.890000", "180113.890000", "180113.890000", "180113.890000", "180113.890000", "180113.906000", "180113.906000", "180113.906000", "180113.906000", "180213.843000", "180213.843000", "180213.843000", "180213.859000", "180213.859000", "180213.859000", "180213.859000", "180213.859000", "180213.859000", "180213.859000", "180213.875000", "180213.875000", "180213.875000", "180213.875000", "180213.875000", "180213.875000", "180213.875000", "180213.890000", "180213.890000", "180213.890000", "180213.890000", "180213.890000", "180213.890000", "180213.890000", "180213.906000", "180213.906000", "180213.906000", "180213.906000", "180313.843000", "180313.843000", "180313.843000", "180313.859000", "180313.859000", "180313.859000", "180313.859000", "180313.859000", "180313.859000", "180313.859000", "180313.875000", "180313.875000", "180313.875000", "180313.875000", "180313.875000", "180313.875000", "180313.875000", "180313.890000", "180313.890000", "180313.890000", "180313.890000", "180313.890000", "180313.890000", "180313.890000", "180313.906000", "180313.906000", "180313.906000", "180313.906000", "180313.906000", "180413.843000", "180413.843000", "180413.843000", "180413.859000", "180413.859000", "180413.859000", "180413.859000", "180413.859000", "180413.875000", "180413.875000", "180413.875000", "180413.875000", "180413.875000", "180413.875000", "180413.875000", "180413.890000", "180413.890000", "180413.890000", "180413.890000", "180413.890000", "180413.890000", "180413.906000", "180413.906000", "180413.906000", "180413.906000", "180413.906000", "180413.906000", "180413.906000", "180513.843000", "180513.843000", "180513.843000", "180513.859000", "180513.859000", "180513.859000", "180513.859000", "180513.859000", "180513.859000", "180513.859000", "180513.875000", "180513.875000", "180513.875000", "180513.875000", "180513.875000", "180513.875000", "180513.875000", "180513.890000", "180513.890000", "180513.890000", "180513.890000", "180513.890000", "180513.890000", "180513.890000", "180513.906000", "180513.906000", "180513.906000", "180513.906000", "180613.843000", "180613.843000", "180613.843000", "180613.859000", "180613.859000", "180613.859000", "180613.859000", "180613.859000", "180613.859000", "180613.859000", "180613.875000", "180613.875000", "180613.875000", "180613.875000", "180613.875000", "180613.875000", "180613.875000", "180613.890000", "180613.890000", "180613.890000", "180613.890000", "180613.890000", "180613.890000", "180613.890000", "180613.906000", "180613.906000", "180613.906000", "180613.906000", "180713.843000", "180713.843000", "180713.843000", "180713.859000", "180713.859000", "180713.859000", "180713.859000", "180713.859000", "180713.859000", "180713.859000", "180713.875000", "180713.875000", "180713.875000", "180713.875000", "180713.875000", "180713.890000", "180713.890000", "180713.890000", "180713.890000", "180713.890000", "180713.890000", "180713.890000", "180713.906000", "180713.906000", "180713.906000", "180713.906000", "180713.906000", "180713.921000", "180713.921000", "180733.843000", "180733.843000", "180733.843000", "180733.859000", "180733.859000", "180733.859000", "180733.859000", "180733.859000", "180733.859000", "180833.843000", "180833.843000", "180833.843000", "180833.859000", "180833.859000", "180833.859000", "180833.859000", "180833.859000", "180833.859000", "180833.859000", "180833.875000", "180833.875000", "180833.875000", "180833.890000", "180833.890000", "180833.890000", "180833.890000", "180833.890000", "180833.890000", "180833.906000", "180833.906000", "180833.906000", "180833.906000", "180833.906000", "180833.921000", "180833.921000", "180833.921000", "180833.921000", "180933.843000", "180933.843000", "180933.843000", "180933.859000", "180933.859000", "180933.859000", "180933.859000", "180933.859000", "180933.859000", "180933.859000", "180933.875000", "180933.875000", "180933.875000", "180933.875000", "180933.875000", "180933.890000", "180933.890000", "180933.890000", "180933.890000", "180933.890000", "180933.890000", "180933.890000", "180933.906000", "180933.906000", "180933.906000", "180933.906000", "180933.906000", "180933.906000", "181033.843000", "181033.843000", "181033.843000", "181033.859000", "181033.859000", "181033.859000", "181033.859000", "181033.859000", "181033.859000", "181033.859000", "181033.875000", "181033.875000", "181033.875000", "181033.875000", "181033.875000", "181033.875000", "181033.875000", "181033.890000", "181033.890000", "181033.890000", "181033.890000", "181033.890000", "181033.906000", "181033.906000", "181033.906000", "181033.906000", "181033.906000", "181033.921000", "181033.921000", "181133.843000", "181133.843000", "181133.843000", "181133.859000", "181133.859000", "181133.859000", "181133.859000", "181133.859000", "181133.859000", "181133.859000", "181133.875000", "181133.875000", "181133.875000", "181133.875000", "181133.875000", "181133.875000", "181133.875000", "181133.890000", "181133.890000", "181133.890000", "181133.890000", "181133.890000", "181133.890000", "181133.890000", "181133.906000", "181133.906000", "181133.906000", "181133.906000", "181233.843000", "181233.843000", "181233.843000", "181233.859000", "181233.859000", "181233.859000", "181233.859000", "181233.859000", "181233.859000", "181233.859000", "181233.875000", "181233.875000", "181233.875000", "181233.875000", "181233.875000", "181233.875000", "181233.875000", "181233.890000", "181233.890000", "181233.890000", "181233.890000", "181233.890000", "181233.890000", "181233.890000", "181233.906000", "181233.906000", "181233.906000", "181233.906000", "181333.843000", "181333.843000", "181333.843000", "181333.859000", "181333.859000", "181333.859000", "181333.859000", "181333.859000", "181333.859000", "181333.859000", "181333.875000", "181333.875000", "181333.875000", "181333.875000", "181333.875000", "181333.875000", "181333.875000", "181333.890000", "181333.890000", "181333.890000", "181333.890000", "181333.890000", "181333.890000", "181333.906000", "181333.906000", "181333.906000", "181333.906000", "181333.906000", "181333.906000", "181433.843000", "181433.843000", "181433.843000", "181433.859000", "181433.859000", "181433.859000", "181433.859000", "181433.859000", "181433.859000", "181433.859000", "181433.875000", "181433.875000", "181433.875000", "181433.875000", "181433.875000", "181433.875000", "181433.890000", "181433.890000", "181433.890000", "181433.890000", "181433.890000", "181433.906000", "181433.906000", "181433.906000", "181433.906000", "181433.906000", "181433.906000", "181433.906000", "181533.843000", "181533.843000", "181533.843000", "181533.859000", "181533.859000", "181533.859000", "181533.859000", "181533.859000", "181533.859000", "181533.859000", "181533.875000", "181533.875000", "181533.875000", "181533.875000", "181533.875000", "181533.890000", "181533.890000", "181533.890000", "181533.890000", "181533.890000", "181533.890000", "181533.906000", "181533.906000", "181533.906000", "181533.906000", "181533.906000", "181533.906000", "181533.906000", "181633.843000", "181633.843000", "181633.843000", "181633.859000", "181633.859000", "181633.859000", "181633.859000", "181633.859000", "181633.859000", "181633.859000", "181633.875000", "181633.875000", "181633.875000", "181633.875000", "181633.875000", "181633.875000", "181633.875000", "181633.890000", "181633.890000", "181633.890000", "181633.890000", "181633.890000", "181633.890000", "181633.890000", "181633.906000", "181633.906000", "181633.906000", "181633.906000", "181733.843000", "181733.843000", "181733.843000", "181733.859000", "181733.859000", "181733.859000", "181733.859000", "181733.859000", "181733.859000", "181733.859000", "181733.875000", "181733.875000", "181733.875000", "181733.875000", "181733.875000", "181733.875000", "181733.875000", "181733.890000", "181733.890000", "181733.890000", "181733.890000", "181733.890000", "181733.906000", "181733.906000", "181733.906000", "181733.906000", "181733.906000", "181733.906000", "181753.843000", "181753.843000", "181753.843000", "181753.859000", "181753.859000", "181753.859000", "181753.859000", "181753.859000", "181753.859000", "181753.859000", "181853.843000", "181853.843000", "181853.843000", "181853.859000", "181853.859000", "181853.859000", "181853.859000", "181853.859000", "181853.875000", "181853.875000", "181853.875000", "181853.875000", "181853.875000", "181853.875000", "181853.890000", "181853.890000", "181853.890000", "181853.890000", "181853.890000", "181853.890000", "181853.906000", "181853.906000", "181853.906000", "181853.906000", "181853.906000", "181853.906000", "181853.906000", "181853.921000", "181953.843000", "181953.843000", "181953.843000", "181953.859000", "181953.859000", "181953.859000", "181953.859000", "181953.859000", "181953.859000", "181953.859000", "181953.875000", "181953.875000", "181953.875000", "181953.875000", "181953.875000", "181953.875000", "181953.875000", "181953.890000", "181953.890000", "181953.890000", "181953.890000", "181953.890000", "181953.890000", "181953.890000", "181953.906000", "181953.906000", "181953.906000", "181953.906000", "182038.906000", "182038.906000", "182038.906000", "182038.906000", "182038.921000", "182038.921000", "182038.921000", "182038.921000", "182038.921000", "182038.921000", "182038.921000", "182038.937000", "182038.937000", "182038.937000", "182038.937000", "182038.937000", "182038.937000", "182038.953000", "182038.953000", "182038.953000", "182038.953000", "182038.953000"],
      "DataSetTrailingPadding": [
        "\u0000\u0000\u0000\u0000\u0000\u0000\u0000\u0000\u0000\u0000\u0000\u0000\u0000\u0000\u0000\u0000\u0000\u0000\u0000\u0000\u0000\u0000\u0000\u0000\u0000\u0000\u0000\u0000\u0000\u0000\u0000\u0000\u0000\u0000\u0000\u0000\u0000\u0000\u0000\u0000\u0000\u0000\u0000\u0000\u0000\u0000\u0000\u0000\u0000\u0000\u0000\u0000\u0000\u0000\u0000\u0000\u0000\u0000\u0000\u0000\u0000\u0000\u0000\u0000\u0000\u0000\u0000\u0000\u0000\u0000\u0000\u0000\u0000\u0000\u0000\u0000\u0000\u0000\u0000\u0000\u0000\u0000\u0000\u0000\u0000\u0000\u0000\u0000\u0000\u0000\u0000\u0000\u0000\u0000\u0000\u0000\u0000\u0000\u0000\u0000\u0000\u0000\u0000\u0000\u0000\u0000\u0000\u0000\u0000\u0000\u0000\u0000\u0000\u0000\u0000\u0000\u0000\u0000\u0000\u0000\u0000\u0000\u0000\u0000\u0000\u0000\u0000\u0000\u0000\u0000\u0000\u0000\u0000\u0000\u0000\u0000\u0000\u0000\u0000\u0000\u0000\u0000\u0000\u0000\u0000\u0000\u0000\u0000\u0000\u0000\u0000\u0000\u0000\u0000\u0000\u0000\u0000\u0000\u0000\u0000\u0000\u0000\u0000\u0000\u0000\u0000\u0000\u0000\u0000\u0000\u0000\u0000\u0000\u0000\u0000\u0000\u0000\u0000\u0000\u0000\u0000\u0000\u0000\u0000\u0000\u0000\u0000\u0000\u0000\u0000\u0000\u0000\u0000\u0000\u0000\u0000\u0000\u0000\u0000\u0000\u0000\u0000\u0000\u0000\u0000\u0000\u0000\u0000\u0000\u0000\u0000\u0000\u0000\u0000\u0000\u0000\u0000\u0000\u0000\u0000\u0000\u0000\u0000\u0000\u0000\u0000\u0000\u0000\u0000\u0000\u0000\u0000\u0000\u0000\u0000\u0000\u0000\u0000\u0000\u0000\u0000\u0000\u0000\u0000\u0000\u0000\u0000\u0000\u0000\u0000\u0000\u0000\u0000\u0000\u0000\u0000\u0000\u0000\u0000\u0000\u0000\u0000\u0000\u0000\u0000\u0000\u0000\u0000\u0000\u0000\u0000\u0000\u0000\u0000\u0000\u0000\u0000\u0000\u0000\u0000\u0000\u0000\u0000\u0000\u0000\u0000\u0000\u0000\u0000\u0000",
