{
  "AcquisitionMatrixPE": 104,
  "AcquisitionNumber": 1,
  "AcquisitionTime": "16:23:59.752500",
  "BandwidthPerPixelPhaseEncode": 13.935,
  "BaseResolution": 104,
  "CoilString": "C:HEA;HEP",
  "ConversionSoftware": "dcm2niix",
  "ConversionSoftwareVersion": "v1.0.20210317",
  "DerivedVendorReportedEchoSpacing": 0.000690017,
  "DeviceSerialNumber": "35450",
  "DwellTime": 2.5e-06,
  "EchoTime": 0.0348,
  "EffectiveEchoSpacing": 0.000690017,
  "FlipAngle": 55,
  "ImageComments": "Unaliased MB8/PE3",
  "ImageOrientationPatientDICOM": [1, 0, 0, 0, 0.969016, -0.246999],
  "ImageType": [
    "ORIGINAL",
    "PRIMARY",
    "M",
    "MB",
    "ND",
    "MOSAIC"
],
  "ImagingFrequency": 123.234,
  "InPlanePhaseEncodingDirectionDICOM": "COL",
  "InstitutionAddress": "Univeristy Ave. 197,Newark,North East,US,07102-1814",
  "InstitutionName": "RUBIC",
  "InstitutionalDepartmentName": "Department",
  "MRAcquisitionType": "2D",
  "MagneticFieldStrength": 3,
  "Manufacturer": "Siemens",
  "ManufacturersModelName": "TrioTim",
  "Modality": "MR",
  "MultibandAccelerationFactor": 8,
  "PartialFourier": 0.875,
  "PatientPosition": "HFS",
  "PercentPhaseFOV": 100,
  "PercentSampling": 100,
  "PhaseEncodingDirection": "j-",
  "PhaseEncodingSteps": 91,
  "PhaseResolution": 1,
  "PixelBandwidth": 1923,
  "ProcedureStepDescription": "Cole^Michael",
  "ProtocolName": "cmrr_mbep2d_bold_2mm_MB8_Task_8x",
  "PulseSequenceDetails": "%CustomerSeq%\\cmrr_mbep2d_bold",
  "ReceiveCoilName": "32Ch_Head",
  "ReconMatrixPE": 104,
  "RepetitionTime": 0.785,
  "SAR": 0.113554,
  "ScanOptions": "PFP\\FS",
  "ScanningSequence": "EP",
  "SequenceName": "epfid2d1_104",
  "SequenceVariant": "SK\\SS",
  "SeriesDescription": "cmrr_mbep2d_bold_2mm_MB8_Task_8x",
  "SeriesNumber": 19,
  "ShimSetting": [2109, -373, -7303, 488, -79, -354, 228, -24],
  "SliceThickness": 2,
  "SliceTiming": [0, 0.4375, 0.0875, 0.525, 0.175, 0.6125, 0.2625, 0.7, 0.35, 0, 0.4375, 0.0875, 0.525, 0.175, 0.6125, 0.2625, 0.7, 0.35, 0, 0.4375, 0.0875, 0.525, 0.175, 0.6125, 0.2625, 0.7, 0.35, 0, 0.4375, 0.0875, 0.525, 0.175, 0.6125, 0.2625, 0.7, 0.35, 0, 0.4375, 0.0875, 0.525, 0.175, 0.6125, 0.2625, 0.7, 0.35, 0, 0.4375, 0.0875, 0.525, 0.175, 0.6125, 0.2625, 0.7, 0.35, 0, 0.4375, 0.0875, 0.525, 0.175, 0.6125, 0.2625, 0.7, 0.35, 0, 0.4375, 0.0875, 0.525, 0.175, 0.6125, 0.2625, 0.7, 0.35],
  "SoftwareVersions": "syngo MR B19",
  "SpacingBetweenSlices": 2,
  "StationName": "MRC35450",
  "TaskName": "cpro",
  "TotalReadoutTime": 0.0710717,
  "TxRefAmp": 325.228,
  "dcmmeta_affine": [
    [-2.0, 0.0, 0.0, 109.4237289428711],
    [0.0, 1.9380314350128174, -0.4939979910850525, -72.00485229492188],
    [0.0, 0.4939979910850525, 1.9380314350128174, -97.53881072998047],
    [0.0, 0.0, 0.0, 1.0]
],
  "dcmmeta_reorient_transform": [
    [0.0, -1.0, 0.0, 103.0],
    [1.0, 0.0, 0.0, 0.0],
    [0.0, 0.0, 1.0, 0.0],
    [0.0, 0.0, 0.0, 1.0]
],
  "dcmmeta_shape": [104, 104, 72, 581],
  "dcmmeta_slice_dim": 2,
  "dcmmeta_version": 0.6,
  "global": {
    "const": {
      "AcquisitionMatrix": [104, 0, 0, 104],
      "AngioFlag": "N",
      "BitsAllocated": 16,
      "BitsStored": 12,
      "Columns": 936,
      "EchoNumbers": 1,
      "EchoTime": 34.8,
      "EchoTrainLength": 1,
      "FlipAngle": 55.0,
      "HighBit": 11,
      "ImageOrientationPatient": [1.0, 0.0, 0.0, 0.0, 0.96901573474032, -0.2469989996451],
      "ImagePositionPatient": [-941.42372894287, -933.83347884609, 158.84615399986],
      "ImageType": [
        "ORIGINAL",
        "PRIMARY",
        "M",
        "MB",
        "ND",
        "MOSAIC"
],
      "ImagedNucleus": "1H",
      "ImagingFrequency": 123.234449,
      "InPlanePhaseEncodingDirection": "COL",
      "MRAcquisitionType": "2D",
      "MagneticFieldStrength": 3.0,
      "Manufacturer": "SIEMENS",
      "ManufacturerModelName": "TrioTim",
      "Modality": "MR",
      "NumberOfAverages": 1.0,
      "NumberOfPhaseEncodingSteps": 91,
      "PercentPhaseFieldOfView": 100.0,
      "PercentSampling": 100.0,
      "PerformedProcedureStepStartTime": "142138.500000",
      "PhotometricInterpretation": "MONOCHROME2",
      "PixelBandwidth": 1923.0,
      "PixelRepresentation": 0,
      "PixelSpacing": [2.0, 2.0],
      "ProtocolName": "cmrr_mbep2d_bold_2mm_MB8_Task_8x",
      "RepetitionTime": 785.0,
      "Rows": 936,
      "SAR": 0.11355432133489,
      "SamplesPerPixel": 1,
      "ScanOptions": [
        "PFP",
        "FS"
],
      "ScanningSequence": "EP",
      "SequenceName": "epfid2d1_104",
      "SequenceVariant": [
        "SK",
        "SS"
],
      "SeriesDescription": "cmrr_mbep2d_bold_2mm_MB8_Task_8x",
      "SeriesNumber": 19,
      "SeriesTime": "171822.031000",
      "SliceLocation": -76.731512481254,
      "SliceThickness": 2.0,
      "SmallestImagePixelValue": 0,
      "SoftwareVersions": "syngo MR B19",
      "SpacingBetweenSlices": 2.0000000166207,
      "SpecificCharacterSet": "ISO_IR 100",
      "StudyID": "1",
      "StudyTime": "142138.468000",
      "TransmitCoilName": "Body",
      "VariableFlipAngleFlag": "N",
      "WindowCenterWidthExplanation": "Algo1",
      "dBdt": 0.0},
    "slices": {}
  },
  "time": {
    "samples": {
      "AcquisitionNumber": [1, 2, 3, 4, 5, 6, 7, 8, 9, 10, 11, 12, 13, 14, 15, 16, 17, 18, 19, 20, 21, 22, 23, 24, 25, 26, 27, 28, 29, 30, 31, 32, 33, 34, 35, 36, 37, 38, 39, 40, 41, 42, 43, 44, 45, 46, 47, 48, 49, 50, 51, 52, 53, 54, 55, 56, 57, 58, 59, 60, 61, 62, 63, 64, 65, 66, 67, 68, 69, 70, 71, 72, 73, 74, 75, 76, 77, 78, 79, 80, 81, 82, 83, 84, 85, 86, 87, 88, 89, 90, 91, 92, 93, 94, 95, 96, 97, 98, 99, 100, 101, 102, 103, 104, 105, 106, 107, 108, 109, 110, 111, 112, 113, 114, 115, 116, 117, 118, 119, 120, 121, 122, 123, 124, 125, 126, 127, 128, 129, 130, 131, 132, 133, 134, 135, 136, 137, 138, 139, 140, 141, 142, 143, 144, 145, 146, 147, 148, 149, 150, 151, 152, 153, 154, 155, 156, 157, 158, 159, 160, 161, 162, 163, 164, 165, 166, 167, 168, 169, 170, 171, 172, 173, 174, 175, 176, 177, 178, 179, 180, 181, 182, 183, 184, 185, 186, 187, 188, 189, 190, 191, 192, 193, 194, 195, 196, 197, 198, 199, 200, 201, 202, 203, 204, 205, 206, 207, 208, 209, 210, 211, 212, 213, 214, 215, 216, 217, 218, 219, 220, 221, 222, 223, 224, 225, 226, 227, 228, 229, 230, 231, 232, 233, 234, 235, 236, 237, 238, 239, 240, 241, 242, 243, 244, 245, 246, 247, 248, 249, 250, 251, 252, 253, 254, 255, 256, 257, 258, 259, 260, 261, 262, 263, 264, 265, 266, 267, 268, 269, 270, 271, 272, 273, 274, 275, 276, 277, 278, 279, 280, 281, 282, 283, 284, 285, 286, 287, 288, 289, 290, 291, 292, 293, 294, 295, 296, 297, 298, 299, 300, 301, 302, 303, 304, 305, 306, 307, 308, 309, 310, 311, 312, 313, 314, 315, 316, 317, 318, 319, 320, 321, 322, 323, 324, 325, 326, 327, 328, 329, 330, 331, 332, 333, 334, 335, 336, 337, 338, 339, 340, 341, 342, 343, 344, 345, 346, 347, 348, 349, 350, 351, 352, 353, 354, 355, 356, 357, 358, 359, 360, 361, 362, 363, 364, 365, 366, 367, 368, 369, 370, 371, 372, 373, 374, 375, 376, 377, 378, 379, 380, 381, 382, 383, 384, 385, 386, 387, 388, 389, 390, 391, 392, 393, 394, 395, 396, 397, 398, 399, 400, 401, 402, 403, 404, 405, 406, 407, 408, 409, 410, 411, 412, 413, 414, 415, 416, 417, 418, 419, 420, 421, 422, 423, 424, 425, 426, 427, 428, 429, 430, 431, 432, 433, 434, 435, 436, 437, 438, 439, 440, 441, 442, 443, 444, 445, 446, 447, 448, 449, 450, 451, 452, 453, 454, 455, 456, 457, 458, 459, 460, 461, 462, 463, 464, 465, 466, 467, 468, 469, 470, 471, 472, 473, 474, 475, 476, 477, 478, 479, 480, 481, 482, 483, 484, 485, 486, 487, 488, 489, 490, 491, 492, 493, 494, 495, 496, 497, 498, 499, 500, 501, 502, 503, 504, 505, 506, 507, 508, 509, 510, 511, 512, 513, 514, 515, 516, 517, 518, 519, 520, 521, 522, 523, 524, 525, 526, 527, 528, 529, 530, 531, 532, 533, 534, 535, 536, 537, 538, 539, 540, 541, 542, 543, 544, 545, 546, 547, 548, 549, 550, 551, 552, 553, 554, 555, 556, 557, 558, 559, 560, 561, 562, 563, 564, 565, 566, 567, 568, 569, 570, 571, 572, 573, 574, 575, 576, 577, 578, 579, 580, 581],
      "AcquisitionTime": ["162359.752500", "162400.540000", "162401.330000", "162402.117500", "162402.905000", "162403.695000", "162404.482500", "162405.270000", "162406.057500", "162406.847500", "162407.635000", "162408.422500", "162409.210000", "162410.000000", "162410.787500", "162411.575000", "162412.362500", "162413.152500", "162413.940000", "162414.727500", "162415.515000", "162416.305000", "162417.092500", "162417.880000", "162418.667500", "162419.457500", "162420.245000", "162421.032500", "162421.822500", "162422.610000", "162423.397500", "162424.185000", "162424.975000", "162425.762500", "162426.550000", "162427.337500", "162428.127500", "162428.915000", "162429.702500", "162430.490000", "162431.280000", "162432.067500", "162432.855000", "162433.642500", "162434.432500", "162435.220000", "162436.007500", "162436.795000", "162437.585000", "162438.372500", "162439.160000", "162439.950000", "162440.737500", "162441.525000", "162442.312500", "162443.102500", "162443.890000", "162444.677500", "162445.465000", "162446.255000", "162447.042500", "162447.830000", "162448.617500", "162449.407500", "162450.195000", "162450.982500", "162451.770000", "162452.560000", "162453.347500", "162454.135000", "162454.922500", "162455.712500", "162456.500000", "162457.287500", "162458.077500", "162458.865000", "162459.652500", "162500.440000", "162501.230000", "162502.017500", "162502.805000", "162503.592500", "162504.382500", "162505.170000", "162505.957500", "162506.745000", "162507.535000", "162508.322500", "162509.110000", "162509.897500", "162510.687500", "162511.475000", "162512.262500", "162513.050000", "162513.840000", "162514.627500", "162515.415000", "162516.205000", "162516.992500", "162517.780000", "162518.567500", "162519.357500", "162520.145000", "162520.932500", "162521.720000", "162522.510000", "162523.297500", "162524.085000", "162524.872500", "162525.662500", "162526.450000", "162527.237500", "162528.025000", "162528.815000", "162529.602500", "162530.390000", "162531.177500", "162531.967500", "162532.755000", "162533.542500", "162534.332500", "162535.120000", "162535.907500", "162536.695000", "162537.485000", "162538.272500", "162539.060000", "162539.847500", "162540.637500", "162541.425000", "162542.212500", "162543.000000", "162543.790000", "162544.577500", "162545.365000", "162546.152500", "162546.942500", "162547.730000", "162548.517500", "162549.305000", "162550.095000", "162550.882500", "162551.670000", "162552.460000", "162553.247500", "162554.035000", "162554.822500", "162555.612500", "162556.400000", "162557.187500", "162557.975000", "162558.765000", "162559.552500", "162600.340000", "162601.127500", "162601.917500", "162602.705000", "162603.492500", "162604.280000", "162605.070000", "162605.857500", "162606.645000", "162607.432500", "162608.222500", "162609.010000", "162609.797500", "162610.587500", "162611.375000", "162612.162500", "162612.950000", "162613.740000", "162614.527500", "162615.315000", "162616.102500", "162616.892500", "162617.680000", "162618.467500", "162619.255000", "162620.045000", "162620.832500", "162621.620000", "162622.407500", "162623.197500", "162623.985000", "162624.772500", "162625.562500", "162626.350000", "162627.137500", "162627.925000", "162628.715000", "162629.502500", "162630.290000", "162631.077500", "162631.867500", "162632.655000", "162633.442500", "162634.230000", "162635.020000", "162635.807500", "162636.595000", "162637.382500", "162638.172500", "162638.960000", "162639.747500", "162640.535000", "162641.325000", "162642.112500", "162642.900000", "162643.690000", "162644.477500", "162645.265000", "162646.052500", "162646.842500", "162647.630000", "162648.417500", "162649.205000", "162649.995000", "162650.782500", "162651.570000", "162652.357500", "162653.147500", "162653.935000", "162654.722500", "162655.510000", "162656.300000", "162657.087500", "162657.875000", "162658.662500", "162659.452500", "162700.240000", "162701.027500", "162701.817500", "162702.605000", "162703.392500", "162704.180000", "162704.970000", "162705.757500", "162706.545000", "162707.332500", "162708.122500", "162708.910000", "162709.697500", "162710.485000", "162711.275000", "162712.062500", "162712.850000", "162713.637500", "162714.427500", "162715.215000", "162716.002500", "162716.790000", "162717.580000", "162718.367500", "162719.155000", "162719.945000", "162720.732500", "162721.520000", "162722.307500", "162723.097500", "162723.885000", "162724.672500", "162725.460000", "162726.250000", "162727.037500", "162727.825000", "162728.612500", "162729.402500", "162730.190000", "162730.977500", "162731.765000", "162732.555000", "162733.342500", "162734.130000", "162734.917500", "162735.707500", "162736.495000", "162737.282500", "162738.072500", "162738.860000", "162739.647500", "162740.435000", "162741.225000", "162742.012500", "162742.800000", "162743.587500", "162744.377500", "162745.165000", "162745.952500", "162746.740000", "162747.530000", "162748.317500", "162749.105000", "162749.892500", "162750.682500", "162751.470000", "162752.257500", "162753.045000", "162753.835000", "162754.622500", "162755.410000", "162756.200000", "162756.987500", "162757.775000", "162758.562500", "162759.352500", "162800.140000", "162800.927500", "162801.715000", "162802.505000", "162803.292500", "162804.080000", "162804.867500", "162805.657500", "162806.445000", "162807.232500", "162808.020000", "162808.810000", "162809.597500", "162810.385000", "162811.172500", "162811.962500", "162812.750000", "162813.537500", "162814.327500", "162815.115000", "162815.902500", "162816.690000", "162817.480000", "162818.267500", "162819.055000", "162819.842500", "162820.632500", "162821.420000", "162822.207500", "162822.995000", "162823.785000", "162824.572500", "162825.360000", "162826.147500", "162826.937500", "162827.725000", "162828.512500", "162829.300000", "162830.090000", "162830.877500", "162831.665000", "162832.455000", "162833.242500", "162834.030000", "162834.817500", "162835.607500", "162836.395000", "162837.182500", "162837.970000", "162838.760000", "162839.547500", "162840.335000", "162841.122500", "162841.912500", "162842.700000", "162843.487500", "162844.275000", "162845.065000", "162845.852500", "162846.640000", "162847.427500", "162848.217500", "162849.005000", "162849.792500", "162850.582500", "162851.370000", "162852.157500", "162852.945000", "162853.735000", "162854.522500", "162855.310000", "162856.097500", "162856.887500", "162857.675000", "162858.462500", "162859.250000", "162900.040000", "162900.827500", "162901.615000", "162902.402500", "162903.192500", "162903.980000", "162904.767500", "162905.555000", "162906.345000", "162907.132500", "162907.920000", "162908.710000", "162909.497500", "162910.285000", "162911.072500", "162911.862500", "162912.650000", "162913.437500", "162914.225000", "162915.015000", "162915.802500", "162916.590000", "162917.377500", "162918.167500", "162918.955000", "162919.742500", "162920.530000", "162921.320000", "162922.107500", "162922.895000", "162923.682500", "162924.472500", "162925.260000", "162926.047500", "162926.837500", "162927.625000", "162928.412500", "162929.200000", "162929.990000", "162930.777500", "162931.565000", "162932.352500", "162933.142500", "162933.930000", "162934.717500", "162935.505000", "162936.295000", "162937.082500", "162937.870000", "162938.657500", "162939.447500", "162940.235000", "162941.022500", "162941.812500", "162942.600000", "162943.387500", "162944.175000", "162944.965000", "162945.752500", "162946.540000", "162947.327500", "162948.117500", "162948.905000", "162949.692500", "162950.480000", "162951.270000", "162952.057500", "162952.845000", "162953.632500", "162954.422500", "162955.210000", "162955.997500", "162956.785000", "162957.575000", "162958.362500", "162959.150000", "162959.940000", "163000.727500", "163001.515000", "163002.302500", "163003.092500", "163003.880000", "163004.667500", "163005.455000", "163006.245000", "163007.032500", "163007.820000", "163008.607500", "163009.397500", "163010.185000", "163010.972500", "163011.760000", "163012.550000", "163013.337500", "163014.125000", "163014.912500", "163015.702500", "163016.490000", "163017.277500", "163018.067500", "163018.855000", "163019.642500", "163020.430000", "163021.220000", "163022.007500", "163022.795000", "163023.582500", "163024.372500", "163025.160000", "163025.947500", "163026.735000", "163027.525000", "163028.312500", "163029.100000", "163029.887500", "163030.677500", "163031.465000", "163032.252500", "163033.040000", "163033.830000", "163034.617500", "163035.405000", "163036.195000", "163036.982500", "163037.770000", "163038.557500", "163039.347500", "163040.135000", "163040.922500", "163041.710000", "163042.500000", "163043.287500", "163044.075000", "163044.862500", "163045.652500", "163046.440000", "163047.227500", "163048.015000", "163048.805000", "163049.592500", "163050.380000", "163051.167500", "163051.957500", "163052.745000", "163053.532500", "163054.322500", "163055.110000", "163055.897500", "163056.685000", "163057.475000", "163058.262500", "163059.050000", "163059.837500", "163100.627500", "163101.415000", "163102.202500", "163102.990000", "163103.780000", "163104.567500", "163105.355000", "163106.142500", "163106.932500", "163107.720000", "163108.507500", "163109.295000", "163110.085000", "163110.872500", "163111.660000", "163112.450000", "163113.237500", "163114.025000", "163114.812500", "163115.602500", "163116.390000", "163117.177500", "163117.965000", "163118.755000", "163119.542500", "163120.330000", "163121.117500", "163121.907500", "163122.695000", "163123.482500", "163124.270000", "163125.060000", "163125.847500", "163126.635000", "163127.422500", "163128.212500", "163129.000000", "163129.787500", "163130.577500", "163131.365000", "163132.152500", "163132.940000", "163133.730000", "163134.517500", "163135.305000", "163136.092500", "163136.882500"],
      "ContentTime": ["171822.046000", "171822.046000", "171922.015000", "171922.015000", "171922.015000", "171922.031000", "171922.031000", "171922.031000", "171922.031000", "171922.031000", "171922.031000", "171922.031000", "171922.046000", "171922.046000", "171922.046000", "171922.046000", "171922.046000", "171922.046000", "171922.046000", "171922.062000", "171922.062000", "171922.062000", "171922.062000", "171922.062000", "171922.062000", "171922.062000", "171922.078000", "171922.078000", "171922.078000", "171922.078000", "172022.015000", "172022.015000", "172022.015000", "172022.031000", "172022.031000", "172022.031000", "172022.031000", "172022.031000", "172022.031000", "172022.031000", "172022.046000", "172022.046000", "172022.046000", "172022.046000", "172022.046000", "172022.046000", "172022.046000", "172022.062000", "172022.062000", "172022.062000", "172022.062000", "172022.062000", "172022.078000", "172022.078000", "172022.078000", "172022.078000", "172022.078000", "172022.078000", "172122.015000", "172122.015000", "172122.015000", "172122.031000", "172122.031000", "172122.031000", "172122.031000", "172122.031000", "172122.031000", "172122.031000", "172122.046000", "172122.046000", "172122.046000", "172122.046000", "172122.046000", "172122.046000", "172122.046000", "172122.062000", "172122.062000", "172122.062000", "172122.062000", "172122.062000", "172122.062000", "172122.062000", "172122.078000", "172122.078000", "172122.078000", "172122.078000", "172222.015000", "172222.015000", "172222.015000", "172222.031000", "172222.031000", "172222.031000", "172222.031000", "172222.031000", "172222.031000", "172222.031000", "172222.046000", "172222.046000", "172222.046000", "172222.046000", "172222.046000", "172222.046000", "172222.046000", "172222.062000", "172222.062000", "172222.062000", "172222.062000", "172222.062000", "172222.062000", "172222.062000", "172222.078000", "172222.078000", "172222.078000", "172322.015000", "172322.015000", "172322.015000", "172322.031000", "172322.031000", "172322.031000", "172322.031000", "172322.031000", "172322.031000", "172322.031000", "172322.046000", "172322.046000", "172322.046000", "172322.046000", "172322.046000", "172322.046000", "172322.046000", "172322.062000", "172322.062000", "172322.062000", "172322.062000", "172322.062000", "172322.062000", "172322.078000", "172322.078000", "172322.078000", "172322.078000", "172322.078000", "172422.015000", "172422.015000", "172422.015000", "172422.031000", "172422.031000", "172422.031000", "172422.031000", "172422.031000", "172422.031000", "172422.031000", "172422.046000", "172422.046000", "172422.046000", "172422.046000", "172422.046000", "172422.046000", "172422.046000", "172422.062000", "172422.062000", "172422.062000", "172422.062000", "172422.062000", "172422.078000", "172422.078000", "172422.078000", "172422.078000", "172422.078000", "172422.078000", "172522.015000", "172522.015000", "172522.015000", "172522.031000", "172522.031000", "172522.031000", "172522.031000", "172522.031000", "172522.031000", "172522.031000", "172522.046000", "172522.046000", "172522.046000", "172522.046000", "172522.046000", "172522.046000", "172522.046000", "172522.062000", "172522.062000", "172522.062000", "172522.062000", "172522.062000", "172522.062000", "172522.062000", "172522.078000", "172522.078000", "172522.078000", "172522.078000", "172622.015000", "172622.015000", "172622.015000", "172622.031000", "172622.031000", "172622.031000", "172622.031000", "172622.031000", "172622.031000", "172622.031000", "172622.046000", "172622.046000", "172622.046000", "172622.046000", "172622.046000", "172622.046000", "172622.046000", "172622.062000", "172622.062000", "172622.062000", "172622.062000", "172622.062000", "172622.078000", "172622.078000", "172622.078000", "172622.078000", "172622.078000", "172622.078000", "172622.078000", "172722.015000", "172722.015000", "172722.015000", "172722.031000", "172722.031000", "172722.031000", "172722.031000", "172722.031000", "172722.031000", "172722.031000", "172722.046000", "172722.046000", "172722.046000", "172722.046000", "172722.046000", "172722.046000", "172722.046000", "172722.062000", "172722.062000", "172722.062000", "172722.062000", "172722.062000", "172722.062000", "172722.062000", "172722.078000", "172722.078000", "172722.078000", "172722.078000", "172742.015000", "172742.015000", "172742.015000", "172742.031000", "172742.031000", "172742.031000", "172742.031000", "172742.031000", "172742.031000", "172842.015000", "172842.015000", "172842.015000", "172842.031000", "172842.031000", "172842.031000", "172842.031000", "172842.031000", "172842.031000", "172842.031000", "172842.046000", "172842.046000", "172842.046000", "172842.046000", "172842.046000", "172842.046000", "172842.046000", "172842.062000", "172842.062000", "172842.062000", "172842.062000", "172842.062000", "172842.062000", "172842.062000", "172842.078000", "172842.078000", "172842.078000", "172842.078000", "172942.015000", "172942.015000", "172942.015000", "172942.031000", "172942.031000", "172942.031000", "172942.031000", "172942.031000", "172942.031000", "172942.031000", "172942.046000", "172942.046000", "172942.046000", "172942.046000", "172942.046000", "172942.046000", "172942.046000", "172942.062000", "172942.062000", "172942.062000", "172942.062000", "172942.062000", "172942.062000", "172942.062000", "172942.078000", "172942.078000", "172942.078000", "172942.078000", "172942.078000", "173042.015000", "173042.015000", "173042.015000", "173042.031000", "173042.031000", "173042.031000", "173042.031000", "173042.031000", "173042.031000", "173042.031000", "173042.046000", "173042.046000", "173042.046000", "173042.046000", "173042.046000", "173042.046000", "173042.046000", "173042.062000", "173042.062000", "173042.062000", "173042.062000", "173042.062000", "173042.062000", "173042.062000", "173042.078000", "173042.078000", "173042.078000", "173042.078000", "173142.015000", "173142.015000", "173142.015000", "173142.031000", "173142.031000", "173142.031000", "173142.031000", "173142.031000", "173142.031000", "173142.031000", "173142.046000", "173142.046000", "173142.046000", "173142.046000", "173142.046000", "173142.046000", "173142.062000", "173142.062000", "173142.062000", "173142.062000", "173142.062000", "173142.062000", "173142.062000", "173142.078000", "173142.078000", "173142.078000", "173142.078000", "173142.078000", "173242.015000", "173242.015000", "173242.015000", "173242.031000", "173242.031000", "173242.031000", "173242.031000", "173242.031000", "173242.031000", "173242.031000", "173242.046000", "173242.046000", "173242.046000", "173242.046000", "173242.046000", "173242.046000", "173242.062000", "173242.062000", "173242.062000", "173242.062000", "173242.062000", "173242.062000", "173242.062000", "173242.078000", "173242.078000", "173242.078000", "173242.078000", "173242.078000", "173342.015000", "173342.015000", "173342.015000", "173342.031000", "173342.031000", "173342.031000", "173342.031000", "173342.031000", "173342.031000", "173342.031000", "173342.046000", "173342.046000", "173342.046000", "173342.046000", "173342.046000", "173342.046000", "173342.046000", "173342.062000", "173342.062000", "173342.062000", "173342.062000", "173342.062000", "173342.062000", "173342.062000", "173342.078000", "173342.078000", "173342.078000", "173342.078000", "173442.015000", "173442.015000", "173442.015000", "173442.031000", "173442.031000", "173442.031000", "173442.031000", "173442.031000", "173442.031000", "173442.031000", "173442.046000", "173442.046000", "173442.046000", "173442.046000", "173442.046000", "173442.046000", "173442.046000", "173442.062000", "173442.062000", "173442.062000", "173442.062000", "173442.062000", "173442.062000", "173442.062000", "173442.078000", "173442.078000", "173442.078000", "173442.078000", "173542.015000", "173542.015000", "173542.015000", "173542.031000", "173542.031000", "173542.031000", "173542.031000", "173542.031000", "173542.031000", "173542.031000", "173542.046000", "173542.046000", "173542.046000", "173542.046000", "173542.046000", "173542.046000", "173542.046000", "173542.062000", "173542.062000", "173542.062000", "173542.062000", "173542.062000", "173542.062000", "173542.062000", "173542.078000", "173542.078000", "173542.078000", "173542.078000", "173542.078000", "173642.015000", "173642.015000", "173642.015000", "173642.031000", "173642.031000", "173642.031000", "173642.031000", "173642.031000", "173642.031000", "173642.031000", "173642.046000", "173642.046000", "173642.046000", "173642.046000", "173642.046000", "173642.046000", "173642.062000", "173642.062000", "173642.062000", "173642.062000", "173642.062000", "173642.062000", "173642.062000", "173642.078000", "173642.078000", "173642.078000", "173642.078000", "173642.078000", "173742.015000", "173742.015000", "173742.015000", "173742.031000", "173742.031000", "173742.031000", "173742.031000", "173742.031000", "173742.031000", "173742.031000", "173742.046000", "173742.046000", "173742.046000", "173742.046000", "173742.046000", "173742.046000", "173742.046000", "173742.062000", "173742.062000", "173742.062000", "173742.062000", "173742.062000", "173742.062000", "173742.078000", "173742.078000", "173742.078000", "173742.078000", "173742.078000", "173842.015000", "173842.015000", "173842.015000", "173842.031000", "173842.031000", "173842.031000", "173842.031000", "173842.031000", "173842.031000", "173842.031000", "173842.046000", "173842.046000", "173842.046000", "173842.046000", "173842.046000", "173842.046000", "173842.062000", "173842.062000", "173842.062000", "173842.062000", "173842.062000", "173842.078000", "173842.078000", "173842.078000", "173842.078000", "173842.078000", "173842.078000", "173842.078000", "173857.031000", "173857.031000", "173857.031000", "173857.031000", "173857.031000", "173857.031000", "173857.046000", "173857.046000"],
      "DataSetTrailingPadding": [
        "\u0000\u0000\u0000\u0000\u0000\u0000\u0000\u0000\u0000\u0000\u0000\u0000\u0000\u0000\u0000\u0000\u0000\u0000\u0000\u0000\u0000\u0000\u0000\u0000\u0000\u0000\u0000\u0000\u0000\u0000\u0000\u0000\u0000\u0000\u0000\u0000\u0000\u0000\u0000\u0000\u0000\u0000\u0000\u0000\u0000\u0000\u0000\u0000\u0000\u0000\u0000\u0000\u0000\u0000\u0000\u0000\u0000\u0000\u0000\u0000\u0000\u0000\u0000\u0000\u0000\u0000\u0000\u0000\u0000\u0000\u0000\u0000\u0000\u0000\u0000\u0000\u0000\u0000\u0000\u0000\u0000\u0000\u0000\u0000\u0000\u0000\u0000\u0000\u0000\u0000\u0000\u0000\u0000\u0000\u0000\u0000\u0000\u0000\u0000\u0000\u0000\u0000\u0000\u0000\u0000\u0000\u0000\u0000\u0000\u0000\u0000\u0000\u0000\u0000\u0000\u0000\u0000\u0000\u0000\u0000\u0000\u0000\u0000\u0000\u0000\u0000\u0000\u0000\u0000\u0000\u0000\u0000\u0000\u0000\u0000\u0000\u0000\u0000\u0000\u0000\u0000\u0000\u0000\u0000\u0000\u0000\u0000\u0000\u0000\u0000\u0000\u0000\u0000\u0000\u0000\u0000\u0000\u0000\u0000\u0000\u0000\u0000\u0000\u0000\u0000\u0000\u0000\u0000\u0000\u0000\u0000\u0000\u0000\u0000\u0000\u0000\u0000\u0000\u0000\u0000\u0000\u0000\u0000\u0000\u0000\u0000\u0000\u0000\u0000\u0000\u0000\u0000\u0000\u0000\u0000\u0000\u0000\u0000\u0000\u0000\u0000\u0000\u0000\u0000\u0000\u0000\u0000\u0000\u0000\u0000\u0000\u0000\u0000\u0000\u0000\u0000\u0000\u0000\u0000\u0000\u0000\u0000\u0000\u0000\u0000\u0000\u0000\u0000\u0000\u0000\u0000\u0000\u0000\u0000\u0000\u0000\u0000\u0000\u0000\u0000\u0000\u0000\u0000\u0000\u0000\u0000\u0000\u0000\u0000\u0000\u0000\u0000\u0000\u0000\u0000\u0000\u0000\u0000\u0000\u0000\u0000\u0000\u0000\u0000\u0000\u0000\u0000\u0000\u0000\u0000\u0000\u0000\u0000\u0000\u0000\u0000\u0000\u0000\u0000\u0000\u0000\u0000\u0000\u0000\u0000\u0000\u0000\u0000\u0000\u0000",
