{
  "AcquisitionMatrixPE": 104,
  "AcquisitionNumber": 1,
  "AcquisitionTime": "16:15:58.725000",
  "BandwidthPerPixelPhaseEncode": 13.935,
  "BaseResolution": 104,
  "CoilString": "C:HEA;HEP",
  "ConversionSoftware": "dcm2niix",
  "ConversionSoftwareVersion": "v1.0.20210317",
  "DerivedVendorReportedEchoSpacing": 0.000690017,
  "DeviceSerialNumber": "35450",
  "DwellTime": 2.5e-06,
  "EchoTime": 0.0348,
  "EffectiveEchoSpacing": 0.000690017,
  "FlipAngle": 55,
  "ImageComments": "Unaliased MB8/PE3",
  "ImageOrientationPatientDICOM": [1, 0, 0, 0, 0.969016, -0.246999],
  "ImageType": [
    "ORIGINAL",
    "PRIMARY",
    "M",
    "MB",
    "ND",
    "MOSAIC"
],
  "ImagingFrequency": 123.234,
  "InPlanePhaseEncodingDirectionDICOM": "COL",
  "InstitutionAddress": "Univeristy Ave. 197,Newark,North East,US,07102-1814",
  "InstitutionName": "RUBIC",
  "InstitutionalDepartmentName": "Department",
  "MRAcquisitionType": "2D",
  "MagneticFieldStrength": 3,
  "Manufacturer": "Siemens",
  "ManufacturersModelName": "TrioTim",
  "Modality": "MR",
  "MultibandAccelerationFactor": 8,
  "PartialFourier": 0.875,
  "PatientPosition": "HFS",
  "PercentPhaseFOV": 100,
  "PercentSampling": 100,
  "PhaseEncodingDirection": "j-",
  "PhaseEncodingSteps": 91,
  "PhaseResolution": 1,
  "PixelBandwidth": 1923,
  "ProcedureStepDescription": "Cole^Michael",
  "ProtocolName": "cmrr_mbep2d_bold_2mm_MB8_Task_8x",
  "PulseSequenceDetails": "%CustomerSeq%\\cmrr_mbep2d_bold",
  "ReceiveCoilName": "32Ch_Head",
  "ReconMatrixPE": 104,
  "RepetitionTime": 0.785,
  "SAR": 0.113554,
  "ScanOptions": "PFP\\FS",
  "ScanningSequence": "EP",
  "SequenceName": "epfid2d1_104",
  "SequenceVariant": "SK\\SS",
  "SeriesDescription": "cmrr_mbep2d_bold_2mm_MB8_Task_8x",
  "SeriesNumber": 17,
  "ShimSetting": [2109, -373, -7303, 488, -79, -354, 228, -24],
  "SliceThickness": 2,
  "SliceTiming": [0, 0.4375, 0.0875, 0.525, 0.175, 0.6125, 0.2625, 0.7, 0.35, 0, 0.4375, 0.0875, 0.525, 0.175, 0.6125, 0.2625, 0.7, 0.35, 0, 0.4375, 0.0875, 0.525, 0.175, 0.6125, 0.2625, 0.7, 0.35, 0, 0.4375, 0.0875, 0.525, 0.175, 0.6125, 0.2625, 0.7, 0.35, 0, 0.4375, 0.0875, 0.525, 0.175, 0.6125, 0.2625, 0.7, 0.35, 0, 0.4375, 0.0875, 0.525, 0.175, 0.6125, 0.2625, 0.7, 0.35, 0, 0.4375, 0.0875, 0.525, 0.175, 0.6125, 0.2625, 0.7, 0.35, 0, 0.4375, 0.0875, 0.525, 0.175, 0.6125, 0.2625, 0.7, 0.35],
  "SoftwareVersions": "syngo MR B19",
  "SpacingBetweenSlices": 2,
  "StationName": "MRC35450",
  "TaskName": "cpro",
  "TotalReadoutTime": 0.0710717,
  "TxRefAmp": 325.228,
  "dcmmeta_affine": [
    [-2.0, 0.0, 0.0, 109.4237289428711],
    [0.0, 1.9380314350128174, -0.4939979910850525, -72.00485229492188],
    [0.0, 0.4939979910850525, 1.9380314350128174, -97.53881072998047],
    [0.0, 0.0, 0.0, 1.0]
],
  "dcmmeta_reorient_transform": [
    [0.0, -1.0, 0.0, 103.0],
    [1.0, 0.0, 0.0, 0.0],
    [0.0, 0.0, 1.0, 0.0],
    [0.0, 0.0, 0.0, 1.0]
],
  "dcmmeta_shape": [104, 104, 72, 581],
  "dcmmeta_slice_dim": 2,
  "dcmmeta_version": 0.6,
  "global": {
    "const": {
      "AcquisitionMatrix": [104, 0, 0, 104],
      "AngioFlag": "N",
      "BitsAllocated": 16,
      "BitsStored": 12,
      "Columns": 936,
      "EchoNumbers": 1,
      "EchoTime": 34.8,
      "EchoTrainLength": 1,
      "FlipAngle": 55.0,
      "HighBit": 11,
      "ImageOrientationPatient": [1.0, 0.0, 0.0, 0.0, 0.96901573474032, -0.2469989996451],
      "ImagePositionPatient": [-941.42372894287, -933.83347884609, 158.84615399986],
      "ImageType": [
        "ORIGINAL",
        "PRIMARY",
        "M",
        "MB",
        "ND",
        "MOSAIC"
],
      "ImagedNucleus": "1H",
      "ImagingFrequency": 123.234449,
      "InPlanePhaseEncodingDirection": "COL",
      "MRAcquisitionType": "2D",
      "MagneticFieldStrength": 3.0,
      "Manufacturer": "SIEMENS",
      "ManufacturerModelName": "TrioTim",
      "Modality": "MR",
      "NumberOfAverages": 1.0,
      "NumberOfPhaseEncodingSteps": 91,
      "PercentPhaseFieldOfView": 100.0,
      "PercentSampling": 100.0,
      "PerformedProcedureStepStartTime": "142138.500000",
      "PhotometricInterpretation": "MONOCHROME2",
      "PixelBandwidth": 1923.0,
      "PixelRepresentation": 0,
      "PixelSpacing": [2.0, 2.0],
      "ProtocolName": "cmrr_mbep2d_bold_2mm_MB8_Task_8x",
      "RepetitionTime": 785.0,
      "Rows": 936,
      "SAR": 0.11355432133489,
      "SamplesPerPixel": 1,
      "ScanOptions": [
        "PFP",
        "FS"
],
      "ScanningSequence": "EP",
      "SequenceName": "epfid2d1_104",
      "SequenceVariant": [
        "SK",
        "SS"
],
      "SeriesDescription": "cmrr_mbep2d_bold_2mm_MB8_Task_8x",
      "SeriesNumber": 17,
      "SeriesTime": "165710.328000",
      "SliceLocation": -76.731512481254,
      "SliceThickness": 2.0,
      "SmallestImagePixelValue": 0,
      "SoftwareVersions": "syngo MR B19",
      "SpacingBetweenSlices": 2.0000000166207,
      "SpecificCharacterSet": "ISO_IR 100",
      "StudyID": "1",
      "StudyTime": "142138.468000",
      "TransmitCoilName": "Body",
      "VariableFlipAngleFlag": "N",
      "WindowCenterWidthExplanation": "Algo1",
      "dBdt": 0.0},
    "slices": {}
  },
  "time": {
    "samples": {
      "AcquisitionNumber": [1, 2, 3, 4, 5, 6, 7, 8, 9, 10, 11, 12, 13, 14, 15, 16, 17, 18, 19, 20, 21, 22, 23, 24, 25, 26, 27, 28, 29, 30, 31, 32, 33, 34, 35, 36, 37, 38, 39, 40, 41, 42, 43, 44, 45, 46, 47, 48, 49, 50, 51, 52, 53, 54, 55, 56, 57, 58, 59, 60, 61, 62, 63, 64, 65, 66, 67, 68, 69, 70, 71, 72, 73, 74, 75, 76, 77, 78, 79, 80, 81, 82, 83, 84, 85, 86, 87, 88, 89, 90, 91, 92, 93, 94, 95, 96, 97, 98, 99, 100, 101, 102, 103, 104, 105, 106, 107, 108, 109, 110, 111, 112, 113, 114, 115, 116, 117, 118, 119, 120, 121, 122, 123, 124, 125, 126, 127, 128, 129, 130, 131, 132, 133, 134, 135, 136, 137, 138, 139, 140, 141, 142, 143, 144, 145, 146, 147, 148, 149, 150, 151, 152, 153, 154, 155, 156, 157, 158, 159, 160, 161, 162, 163, 164, 165, 166, 167, 168, 169, 170, 171, 172, 173, 174, 175, 176, 177, 178, 179, 180, 181, 182, 183, 184, 185, 186, 187, 188, 189, 190, 191, 192, 193, 194, 195, 196, 197, 198, 199, 200, 201, 202, 203, 204, 205, 206, 207, 208, 209, 210, 211, 212, 213, 214, 215, 216, 217, 218, 219, 220, 221, 222, 223, 224, 225, 226, 227, 228, 229, 230, 231, 232, 233, 234, 235, 236, 237, 238, 239, 240, 241, 242, 243, 244, 245, 246, 247, 248, 249, 250, 251, 252, 253, 254, 255, 256, 257, 258, 259, 260, 261, 262, 263, 264, 265, 266, 267, 268, 269, 270, 271, 272, 273, 274, 275, 276, 277, 278, 279, 280, 281, 282, 283, 284, 285, 286, 287, 288, 289, 290, 291, 292, 293, 294, 295, 296, 297, 298, 299, 300, 301, 302, 303, 304, 305, 306, 307, 308, 309, 310, 311, 312, 313, 314, 315, 316, 317, 318, 319, 320, 321, 322, 323, 324, 325, 326, 327, 328, 329, 330, 331, 332, 333, 334, 335, 336, 337, 338, 339, 340, 341, 342, 343, 344, 345, 346, 347, 348, 349, 350, 351, 352, 353, 354, 355, 356, 357, 358, 359, 360, 361, 362, 363, 364, 365, 366, 367, 368, 369, 370, 371, 372, 373, 374, 375, 376, 377, 378, 379, 380, 381, 382, 383, 384, 385, 386, 387, 388, 389, 390, 391, 392, 393, 394, 395, 396, 397, 398, 399, 400, 401, 402, 403, 404, 405, 406, 407, 408, 409, 410, 411, 412, 413, 414, 415, 416, 417, 418, 419, 420, 421, 422, 423, 424, 425, 426, 427, 428, 429, 430, 431, 432, 433, 434, 435, 436, 437, 438, 439, 440, 441, 442, 443, 444, 445, 446, 447, 448, 449, 450, 451, 452, 453, 454, 455, 456, 457, 458, 459, 460, 461, 462, 463, 464, 465, 466, 467, 468, 469, 470, 471, 472, 473, 474, 475, 476, 477, 478, 479, 480, 481, 482, 483, 484, 485, 486, 487, 488, 489, 490, 491, 492, 493, 494, 495, 496, 497, 498, 499, 500, 501, 502, 503, 504, 505, 506, 507, 508, 509, 510, 511, 512, 513, 514, 515, 516, 517, 518, 519, 520, 521, 522, 523, 524, 525, 526, 527, 528, 529, 530, 531, 532, 533, 534, 535, 536, 537, 538, 539, 540, 541, 542, 543, 544, 545, 546, 547, 548, 549, 550, 551, 552, 553, 554, 555, 556, 557, 558, 559, 560, 561, 562, 563, 564, 565, 566, 567, 568, 569, 570, 571, 572, 573, 574, 575, 576, 577, 578, 579, 580, 581],
      "AcquisitionTime": ["161558.725000", "161559.515000", "161600.302500", "161601.090000", "161601.877500", "161602.667500", "161603.455000", "161604.242500", "161605.030000", "161605.820000", "161606.607500", "161607.395000", "161608.182500", "161608.972500", "161609.760000", "161610.547500", "161611.337500", "161612.125000", "161612.912500", "161613.700000", "161614.490000", "161615.277500", "161616.065000", "161616.852500", "161617.642500", "161618.430000", "161619.217500", "161620.005000", "161620.795000", "161621.582500", "161622.370000", "161623.157500", "161623.947500", "161624.735000", "161625.522500", "161626.310000", "161627.100000", "161627.887500", "161628.675000", "161629.465000", "161630.252500", "161631.040000", "161631.827500", "161632.617500", "161633.405000", "161634.192500", "161634.980000", "161635.770000", "161636.557500", "161637.345000", "161638.132500", "161638.922500", "161639.710000", "161640.497500", "161641.285000", "161642.075000", "161642.862500", "161643.650000", "161644.440000", "161645.227500", "161646.015000", "161646.802500", "161647.592500", "161648.380000", "161649.167500", "161649.955000", "161650.745000", "161651.532500", "161652.320000", "161653.107500", "161653.897500", "161654.685000", "161655.472500", "161656.260000", "161657.050000", "161657.837500", "161658.625000", "161659.412500", "161700.202500", "161700.990000", "161701.777500", "161702.567500", "161703.355000", "161704.142500", "161704.930000", "161705.720000", "161706.507500", "161707.295000", "161708.082500", "161708.872500", "161709.660000", "161710.447500", "161711.235000", "161712.025000", "161712.812500", "161713.600000", "161714.387500", "161715.177500", "161715.965000", "161716.752500", "161717.540000", "161718.330000", "161719.117500", "161719.905000", "161720.695000", "161721.482500", "161722.270000", "161723.057500", "161723.847500", "161724.635000", "161725.422500", "161726.210000", "161727.000000", "161727.787500", "161728.575000", "161729.362500", "161730.152500", "161730.940000", "161731.727500", "161732.515000", "161733.305000", "161734.092500", "161734.880000", "161735.667500", "161736.457500", "161737.245000", "161738.032500", "161738.822500", "161739.610000", "161740.397500", "161741.185000", "161741.975000", "161742.762500", "161743.550000", "161744.337500", "161745.127500", "161745.915000", "161746.702500", "161747.490000", "161748.280000", "161749.067500", "161749.855000", "161750.642500", "161751.432500", "161752.220000", "161753.007500", "161753.795000", "161754.585000", "161755.372500", "161756.160000", "161756.950000", "161757.737500", "161758.525000", "161759.312500", "161800.102500", "161800.890000", "161801.677500", "161802.465000", "161803.255000", "161804.042500", "161804.830000", "161805.617500", "161806.407500", "161807.195000", "161807.982500", "161808.770000", "161809.560000", "161810.347500", "161811.135000", "161811.922500", "161812.712500", "161813.500000", "161814.287500", "161815.077500", "161815.865000", "161816.652500", "161817.440000", "161818.230000", "161819.017500", "161819.805000", "161820.592500", "161821.382500", "161822.170000", "161822.957500", "161823.745000", "161824.535000", "161825.322500", "161826.110000", "161826.897500", "161827.687500", "161828.475000", "161829.262500", "161830.050000", "161830.840000", "161831.627500", "161832.415000", "161833.205000", "161833.992500", "161834.780000", "161835.567500", "161836.357500", "161837.145000", "161837.932500", "161838.720000", "161839.510000", "161840.297500", "161841.085000", "161841.872500", "161842.662500", "161843.450000", "161844.237500", "161845.025000", "161845.815000", "161846.602500", "161847.390000", "161848.177500", "161848.967500", "161849.755000", "161850.542500", "161851.332500", "161852.120000", "161852.907500", "161853.695000", "161854.485000", "161855.272500", "161856.060000", "161856.847500", "161857.637500", "161858.425000", "161859.212500", "161900.000000", "161900.790000", "161901.577500", "161902.365000", "161903.152500", "161903.942500", "161904.730000", "161905.517500", "161906.305000", "161907.095000", "161907.882500", "161908.670000", "161909.460000", "161910.247500", "161911.035000", "161911.822500", "161912.612500", "161913.400000", "161914.187500", "161914.975000", "161915.765000", "161916.552500", "161917.340000", "161918.127500", "161918.917500", "161919.705000", "161920.492500", "161921.280000", "161922.070000", "161922.857500", "161923.645000", "161924.432500", "161925.222500", "161926.010000", "161926.797500", "161927.587500", "161928.375000", "161929.162500", "161929.950000", "161930.740000", "161931.527500", "161932.315000", "161933.102500", "161933.892500", "161934.680000", "161935.467500", "161936.255000", "161937.045000", "161937.832500", "161938.620000", "161939.407500", "161940.197500", "161940.985000", "161941.772500", "161942.560000", "161943.350000", "161944.137500", "161944.925000", "161945.715000", "161946.502500", "161947.290000", "161948.077500", "161948.867500", "161949.655000", "161950.442500", "161951.230000", "161952.020000", "161952.807500", "161953.595000", "161954.382500", "161955.172500", "161955.960000", "161956.747500", "161957.535000", "161958.325000", "161959.112500", "161959.900000", "162000.690000", "162001.477500", "162002.265000", "162003.052500", "162003.842500", "162004.630000", "162005.417500", "162006.205000", "162006.995000", "162007.782500", "162008.570000", "162009.357500", "162010.147500", "162010.935000", "162011.722500", "162012.510000", "162013.300000", "162014.087500", "162014.875000", "162015.662500", "162016.452500", "162017.240000", "162018.027500", "162018.817500", "162019.605000", "162020.392500", "162021.180000", "162021.970000", "162022.757500", "162023.545000", "162024.332500", "162025.122500", "162025.910000", "162026.697500", "162027.485000", "162028.275000", "162029.062500", "162029.850000", "162030.637500", "162031.427500", "162032.215000", "162033.002500", "162033.790000", "162034.580000", "162035.367500", "162036.155000", "162036.945000", "162037.732500", "162038.520000", "162039.307500", "162040.097500", "162040.885000", "162041.672500", "162042.460000", "162043.250000", "162044.037500", "162044.825000", "162045.612500", "162046.402500", "162047.190000", "162047.977500", "162048.765000", "162049.555000", "162050.342500", "162051.130000", "162051.917500", "162052.707500", "162053.495000", "162054.282500", "162055.072500", "162055.860000", "162056.647500", "162057.435000", "162058.225000", "162059.012500", "162059.800000", "162100.587500", "162101.377500", "162102.165000", "162102.952500", "162103.740000", "162104.530000", "162105.317500", "162106.105000", "162106.892500", "162107.682500", "162108.470000", "162109.257500", "162110.045000", "162110.835000", "162111.622500", "162112.410000", "162113.200000", "162113.987500", "162114.775000", "162115.562500", "162116.352500", "162117.140000", "162117.927500", "162118.715000", "162119.505000", "162120.292500", "162121.080000", "162121.867500", "162122.657500", "162123.445000", "162124.232500", "162125.020000", "162125.810000", "162126.597500", "162127.385000", "162128.172500", "162128.962500", "162129.750000", "162130.537500", "162131.327500", "162132.115000", "162132.902500", "162133.690000", "162134.480000", "162135.267500", "162136.055000", "162136.842500", "162137.632500", "162138.420000", "162139.207500", "162139.995000", "162140.785000", "162141.572500", "162142.360000", "162143.147500", "162143.937500", "162144.725000", "162145.512500", "162146.300000", "162147.090000", "162147.877500", "162148.665000", "162149.455000", "162150.242500", "162151.030000", "162151.817500", "162152.607500", "162153.395000", "162154.182500", "162154.970000", "162155.760000", "162156.547500", "162157.335000", "162158.122500", "162158.912500", "162159.700000", "162200.487500", "162201.275000", "162202.065000", "162202.852500", "162203.640000", "162204.427500", "162205.217500", "162206.005000", "162206.792500", "162207.582500", "162208.370000", "162209.157500", "162209.945000", "162210.735000", "162211.522500", "162212.310000", "162213.097500", "162213.887500", "162214.675000", "162215.462500", "162216.250000", "162217.040000", "162217.827500", "162218.615000", "162219.402500", "162220.192500", "162220.980000", "162221.767500", "162222.555000", "162223.345000", "162224.132500", "162224.920000", "162225.710000", "162226.497500", "162227.285000", "162228.072500", "162228.862500", "162229.650000", "162230.437500", "162231.225000", "162232.015000", "162232.802500", "162233.590000", "162234.377500", "162235.167500", "162235.955000", "162236.742500", "162237.530000", "162238.320000", "162239.107500", "162239.895000", "162240.682500", "162241.472500", "162242.260000", "162243.047500", "162243.837500", "162244.625000", "162245.412500", "162246.200000", "162246.990000", "162247.777500", "162248.565000", "162249.352500", "162250.142500", "162250.930000", "162251.717500", "162252.505000", "162253.295000", "162254.082500", "162254.870000", "162255.657500", "162256.447500", "162257.235000", "162258.022500", "162258.810000", "162259.600000", "162300.387500", "162301.175000", "162301.965000", "162302.752500", "162303.540000", "162304.327500", "162305.117500", "162305.905000", "162306.692500", "162307.480000", "162308.270000", "162309.057500", "162309.845000", "162310.632500", "162311.422500", "162312.210000", "162312.997500", "162313.785000", "162314.575000", "162315.362500", "162316.150000", "162316.940000", "162317.727500", "162318.515000", "162319.302500", "162320.092500", "162320.880000", "162321.667500", "162322.455000", "162323.245000", "162324.032500", "162324.820000", "162325.607500", "162326.397500", "162327.185000", "162327.972500", "162328.760000", "162329.550000", "162330.337500", "162331.125000", "162331.912500", "162332.702500", "162333.490000", "162334.277500", "162335.067500", "162335.855000"],
      "ContentTime": ["165710.328000", "165710.343000", "165710.343000", "165710.343000", "165710.343000", "165710.343000", "165710.343000", "165810.296000", "165810.312000", "165810.312000", "165810.312000", "165810.312000", "165810.312000", "165810.312000", "165810.328000", "165810.328000", "165810.328000", "165810.328000", "165810.328000", "165810.328000", "165810.328000", "165810.343000", "165810.343000", "165810.343000", "165810.343000", "165810.343000", "165810.343000", "165810.343000", "165810.359000", "165810.359000", "165810.359000", "165810.359000", "165810.359000", "165810.359000", "165910.296000", "165910.312000", "165910.312000", "165910.312000", "165910.312000", "165910.312000", "165910.312000", "165910.328000", "165910.328000", "165910.328000", "165910.328000", "165910.328000", "165910.328000", "165910.328000", "165910.343000", "165910.343000", "165910.343000", "165910.343000", "165910.343000", "165910.343000", "165910.359000", "165910.359000", "165910.359000", "165910.359000", "165910.359000", "165910.359000", "165910.375000", "165910.375000", "170010.296000", "170010.312000", "170010.312000", "170010.312000", "170010.312000", "170010.312000", "170010.312000", "170010.312000", "170010.328000", "170010.328000", "170010.328000", "170010.328000", "170010.328000", "170010.328000", "170010.343000", "170010.343000", "170010.343000", "170010.343000", "170010.343000", "170010.359000", "170010.359000", "170010.359000", "170010.359000", "170010.359000", "170010.359000", "170010.359000", "170010.375000", "170110.296000", "170110.312000", "170110.312000", "170110.312000", "170110.312000", "170110.312000", "170110.312000", "170110.312000", "170110.328000", "170110.328000", "170110.328000", "170110.328000", "170110.328000", "170110.328000", "170110.328000", "170110.343000", "170110.343000", "170110.343000", "170110.343000", "170110.343000", "170110.343000", "170110.343000", "170110.359000", "170110.359000", "170110.359000", "170110.359000", "170110.359000", "170110.359000", "170210.296000", "170210.312000", "170210.312000", "170210.312000", "170210.312000", "170210.312000", "170210.312000", "170210.328000", "170210.328000", "170210.328000", "170210.328000", "170210.328000", "170210.328000", "170210.328000", "170210.343000", "170210.343000", "170210.343000", "170210.343000", "170210.343000", "170210.343000", "170210.343000", "170210.359000", "170210.359000", "170210.359000", "170210.359000", "170210.359000", "170210.359000", "170310.312000", "170310.312000", "170310.312000", "170310.312000", "170310.312000", "170310.312000", "170310.312000", "170310.328000", "170310.328000", "170310.328000", "170310.328000", "170310.328000", "170310.328000", "170310.343000", "170310.343000", "170310.343000", "170310.343000", "170310.359000", "170310.359000", "170310.359000", "170310.359000", "170310.359000", "170310.359000", "170310.375000", "170310.375000", "170310.375000", "170310.375000", "170410.296000", "170410.312000", "170410.312000", "170410.312000", "170410.312000", "170410.312000", "170410.312000", "170410.328000", "170410.328000", "170410.328000", "170410.328000", "170410.328000", "170410.328000", "170410.328000", "170410.343000", "170410.343000", "170410.343000", "170410.343000", "170410.343000", "170410.343000", "170410.343000", "170410.359000", "170410.359000", "170410.359000", "170410.359000", "170410.359000", "170410.359000", "170410.359000", "170510.296000", "170510.296000", "170510.296000", "170510.312000", "170510.312000", "170510.312000", "170510.312000", "170510.312000", "170510.312000", "170510.328000", "170510.328000", "170510.328000", "170510.328000", "170510.343000", "170510.343000", "170510.343000", "170510.343000", "170510.343000", "170510.343000", "170510.343000", "170510.359000", "170510.359000", "170510.359000", "170510.359000", "170510.359000", "170510.375000", "170510.375000", "170610.296000", "170610.296000", "170610.296000", "170610.312000", "170610.312000", "170610.312000", "170610.312000", "170610.312000", "170610.312000", "170610.312000", "170610.328000", "170610.328000", "170610.328000", "170610.328000", "170610.328000", "170610.328000", "170610.328000", "170610.343000", "170610.343000", "170610.343000", "170610.343000", "170610.343000", "170610.359000", "170610.359000", "170610.359000", "170610.359000", "170610.359000", "170610.359000", "170710.296000", "170710.296000", "170710.312000", "170710.312000", "170710.312000", "170710.312000", "170710.312000", "170710.312000", "170710.312000", "170710.312000", "170710.328000", "170710.328000", "170710.328000", "170710.328000", "170710.328000", "170710.328000", "170710.328000", "170710.343000", "170710.343000", "170710.343000", "170710.343000", "170710.343000", "170710.343000", "170710.343000", "170710.359000", "170710.359000", "170710.375000", "170810.296000", "170810.296000", "170810.296000", "170810.312000", "170810.312000", "170810.312000", "170810.312000", "170810.312000", "170810.312000", "170810.328000", "170810.328000", "170810.328000", "170810.328000", "170810.328000", "170810.328000", "170810.328000", "170810.343000", "170810.343000", "170810.343000", "170810.343000", "170810.343000", "170810.343000", "170810.343000", "170810.359000", "170810.359000", "170810.359000", "170810.359000", "170810.359000", "170910.296000", "170910.296000", "170910.296000", "170910.312000", "170910.312000", "170910.312000", "170910.312000", "170910.312000", "170910.312000", "170910.328000", "170910.328000", "170910.328000", "170910.328000", "170910.328000", "170910.328000", "170910.328000", "170910.343000", "170910.343000", "170910.343000", "170910.343000", "170910.343000", "170910.343000", "170910.359000", "170910.359000", "170910.359000", "170910.359000", "170910.359000", "171010.296000", "171010.296000", "171010.296000", "171010.312000", "171010.312000", "171010.312000", "171010.312000", "171010.312000", "171010.312000", "171010.312000", "171010.328000", "171010.328000", "171010.328000", "171010.328000", "171010.328000", "171010.328000", "171010.343000", "171010.343000", "171010.343000", "171010.343000", "171010.343000", "171010.343000", "171010.343000", "171010.359000", "171010.359000", "171010.359000", "171010.359000", "171110.296000", "171110.296000", "171110.296000", "171110.312000", "171110.312000", "171110.312000", "171110.312000", "171110.312000", "171110.312000", "171110.312000", "171110.328000", "171110.328000", "171110.328000", "171110.328000", "171110.328000", "171110.328000", "171110.328000", "171110.343000", "171110.343000", "171110.343000", "171110.343000", "171110.343000", "171110.343000", "171110.359000", "171110.359000", "171110.359000", "171110.359000", "171110.359000", "171210.296000", "171210.296000", "171210.296000", "171210.312000", "171210.312000", "171210.312000", "171210.312000", "171210.312000", "171210.312000", "171210.312000", "171210.328000", "171210.328000", "171210.328000", "171210.328000", "171210.328000", "171210.343000", "171210.343000", "171210.343000", "171210.343000", "171210.343000", "171210.343000", "171210.359000", "171210.359000", "171210.359000", "171210.375000", "171210.375000", "171210.375000", "171310.296000", "171310.296000", "171310.296000", "171310.312000", "171310.312000", "171310.312000", "171310.312000", "171310.312000", "171310.312000", "171310.312000", "171310.328000", "171310.328000", "171310.328000", "171310.328000", "171310.328000", "171310.328000", "171310.343000", "171310.343000", "171310.343000", "171310.343000", "171310.343000", "171310.359000", "171310.359000", "171310.359000", "171310.359000", "171310.359000", "171310.359000", "171410.296000", "171410.296000", "171410.296000", "171410.312000", "171410.312000", "171410.312000", "171410.312000", "171410.312000", "171410.312000", "171410.312000", "171410.328000", "171410.328000", "171410.328000", "171410.328000", "171410.328000", "171410.343000", "171410.343000", "171410.343000", "171410.343000", "171410.343000", "171410.343000", "171410.343000", "171410.359000", "171410.359000", "171410.359000", "171410.359000", "171410.359000", "171410.359000", "171510.296000", "171510.296000", "171510.296000", "171510.312000", "171510.312000", "171510.312000", "171510.312000", "171510.312000", "171510.312000", "171510.312000", "171510.328000", "171510.328000", "171510.328000", "171510.328000", "171510.328000", "171510.328000", "171510.328000", "171510.343000", "171510.343000", "171510.343000", "171510.343000", "171510.343000", "171510.359000", "171510.359000", "171510.359000", "171510.359000", "171510.359000", "171510.375000", "171610.296000", "171610.296000", "171610.296000", "171610.312000", "171610.312000", "171610.312000", "171610.312000", "171610.312000", "171610.312000", "171610.312000", "171610.328000", "171610.328000", "171610.328000", "171610.328000", "171610.328000", "171610.328000", "171610.343000", "171610.343000", "171610.343000", "171610.343000", "171610.343000", "171610.343000", "171610.359000", "171610.359000", "171610.359000", "171610.359000", "171610.359000", "171610.359000", "171710.296000", "171710.296000", "171710.296000", "171710.312000", "171710.312000", "171710.312000", "171710.312000", "171710.312000", "171710.312000", "171710.312000", "171710.328000", "171710.328000", "171710.328000", "171710.328000", "171710.328000", "171710.343000", "171710.343000", "171710.343000", "171710.343000", "171710.343000", "171710.343000", "171710.359000", "171710.359000", "171710.359000", "171710.359000", "171710.359000", "171710.359000", "171710.359000", "171801.421000", "171801.421000", "171801.437000", "171801.437000", "171801.437000", "171801.437000", "171801.437000", "171801.437000", "171801.437000", "171801.453000", "171801.453000", "171801.453000", "171801.453000", "171801.453000", "171801.453000", "171801.468000", "171801.468000", "171801.468000", "171801.468000", "171801.468000", "171801.468000", "171801.468000", "171801.484000", "171801.484000"],
      "DataSetTrailingPadding": [
        "\u0000\u0000\u0000\u0000\u0000\u0000\u0000\u0000\u0000\u0000\u0000\u0000\u0000\u0000\u0000\u0000\u0000\u0000\u0000\u0000\u0000\u0000\u0000\u0000\u0000\u0000\u0000\u0000\u0000\u0000\u0000\u0000\u0000\u0000\u0000\u0000\u0000\u0000\u0000\u0000\u0000\u0000\u0000\u0000\u0000\u0000\u0000\u0000\u0000\u0000\u0000\u0000\u0000\u0000\u0000\u0000\u0000\u0000\u0000\u0000\u0000\u0000\u0000\u0000\u0000\u0000\u0000\u0000\u0000\u0000\u0000\u0000\u0000\u0000\u0000\u0000\u0000\u0000\u0000\u0000\u0000\u0000\u0000\u0000\u0000\u0000\u0000\u0000\u0000\u0000\u0000\u0000\u0000\u0000\u0000\u0000\u0000\u0000\u0000\u0000\u0000\u0000\u0000\u0000\u0000\u0000\u0000\u0000\u0000\u0000\u0000\u0000\u0000\u0000\u0000\u0000\u0000\u0000\u0000\u0000\u0000\u0000\u0000\u0000\u0000\u0000\u0000\u0000\u0000\u0000\u0000\u0000\u0000\u0000\u0000\u0000\u0000\u0000\u0000\u0000\u0000\u0000\u0000\u0000\u0000\u0000\u0000\u0000\u0000\u0000\u0000\u0000\u0000\u0000\u0000\u0000\u0000\u0000\u0000\u0000\u0000\u0000\u0000\u0000\u0000\u0000\u0000\u0000\u0000\u0000\u0000\u0000\u0000\u0000\u0000\u0000\u0000\u0000\u0000\u0000\u0000\u0000\u0000\u0000\u0000\u0000\u0000\u0000\u0000\u0000\u0000\u0000\u0000\u0000\u0000\u0000\u0000\u0000\u0000\u0000\u0000\u0000\u0000\u0000\u0000\u0000\u0000\u0000\u0000\u0000\u0000\u0000\u0000\u0000\u0000\u0000\u0000\u0000\u0000\u0000\u0000\u0000\u0000\u0000\u0000\u0000\u0000\u0000\u0000\u0000\u0000\u0000\u0000\u0000\u0000\u0000\u0000\u0000\u0000\u0000\u0000\u0000\u0000\u0000\u0000\u0000\u0000\u0000\u0000\u0000\u0000\u0000\u0000\u0000\u0000\u0000\u0000\u0000\u0000\u0000\u0000\u0000\u0000\u0000\u0000\u0000\u0000\u0000\u0000\u0000\u0000\u0000\u0000\u0000\u0000\u0000\u0000\u0000\u0000\u0000\u0000\u0000\u0000\u0000\u0000\u0000\u0000\u0000\u0000\u0000",
