{
  "AcquisitionMatrixPE": 104,
  "AcquisitionNumber": 1,
  "AcquisitionTime": "11:47:33.690000",
  "BandwidthPerPixelPhaseEncode": 13.935,
  "BaseResolution": 104,
  "CoilString": "C:HEA;HEP",
  "ConversionSoftware": "dcm2niix",
  "ConversionSoftwareVersion": "v1.0.20210317",
  "DerivedVendorReportedEchoSpacing": 0.000690017,
  "DeviceSerialNumber": "35450",
  "DwellTime": 2.5e-06,
  "EchoTime": 0.0348,
  "EffectiveEchoSpacing": 0.000690017,
  "FlipAngle": 55,
  "ImageComments": "Unaliased MB8/PE3 (remote)",
  "ImageOrientationPatientDICOM": [0.999452, -0.00363331, -0.0329077, -1.55814e-08, 0.99396, -0.109743],
  "ImageType": [
    "ORIGINAL",
    "PRIMARY",
    "M",
    "MB",
    "ND",
    "MOSAIC"
],
  "ImagingFrequency": 123.235,
  "InPlanePhaseEncodingDirectionDICOM": "COL",
  "InstitutionAddress": "Univeristy Ave. 197,Newark,North East,US,07102-1814",
  "InstitutionName": "RUBIC",
  "InstitutionalDepartmentName": "Department",
  "MRAcquisitionType": "2D",
  "MagneticFieldStrength": 3,
  "Manufacturer": "Siemens",
  "ManufacturersModelName": "TrioTim",
  "Modality": "MR",
  "MultibandAccelerationFactor": 8,
  "PartialFourier": 0.875,
  "PatientPosition": "HFS",
  "PercentPhaseFOV": 100,
  "PercentSampling": 100,
  "PhaseEncodingDirection": "j-",
  "PhaseEncodingSteps": 91,
  "PhaseResolution": 1,
  "PixelBandwidth": 1923,
  "ProcedureStepDescription": "Cole^Michael",
  "ProtocolName": "cmrr_mbep2d_bold_2mm_MB8_Task_8x",
  "PulseSequenceDetails": "%CustomerSeq%\\cmrr_mbep2d_bold",
  "ReceiveCoilName": "32Ch_Head",
  "ReconMatrixPE": 104,
  "RepetitionTime": 0.785,
  "SAR": 0.16972,
  "ScanOptions": "PFP\\FS",
  "ScanningSequence": "EP",
  "SequenceName": "epfid2d1_104",
  "SequenceVariant": "SK\\SS",
  "SeriesDescription": "cmrr_mbep2d_bold_2mm_MB8_Task_8x",
  "SeriesNumber": 27,
  "ShimSetting": [2141, -500, -7666, 521, 0, -619, -1111, 18],
  "SliceThickness": 2,
  "SliceTiming": [0, 0.4375, 0.0875, 0.525, 0.175, 0.6125, 0.2625, 0.7, 0.35, 0, 0.4375, 0.0875, 0.525, 0.175, 0.6125, 0.2625, 0.7, 0.35, 0, 0.4375, 0.0875, 0.525, 0.175, 0.6125, 0.2625, 0.7, 0.35, 0, 0.4375, 0.0875, 0.525, 0.175, 0.6125, 0.2625, 0.7, 0.35, 0, 0.4375, 0.0875, 0.525, 0.175, 0.6125, 0.2625, 0.7, 0.35, 0, 0.4375, 0.0875, 0.525, 0.175, 0.6125, 0.2625, 0.7, 0.35, 0, 0.4375, 0.0875, 0.525, 0.175, 0.6125, 0.2625, 0.7, 0.35, 0, 0.4375, 0.0875, 0.525, 0.175, 0.6125, 0.2625, 0.7, 0.35],
  "SoftwareVersions": "syngo MR B19",
  "SpacingBetweenSlices": 2,
  "StationName": "MRC35450",
  "TaskName": "cpro",
  "TotalReadoutTime": 0.0710717,
  "TxRefAmp": 349.969,
  "dcmmeta_affine": [
    [-1.9989036321640015, -3.1162716851440564e-08, -0.0662154108285904, 103.55355072021484],
    [0.007266628555953503, 1.9879200458526611, -0.21936510503292084, -75.86308288574219],
    [-0.06581547856330872, 0.21948543190956116, 1.986830234527588, -119.38642120361328],
    [0.0, 0.0, 0.0, 1.0]
],
  "dcmmeta_reorient_transform": [
    [0.0, -1.0, 0.0, 103.0],
    [1.0, 0.0, 0.0, 0.0],
    [0.0, 0.0, 1.0, 0.0],
    [0.0, 0.0, 0.0, 1.0]
],
  "dcmmeta_shape": [104, 104, 72, 581],
  "dcmmeta_slice_dim": 2,
  "dcmmeta_version": 0.6,
  "global": {
    "const": {
      "AcquisitionMatrix": [104, 0, 0, 104],
      "AngioFlag": "N",
      "BitsAllocated": 16,
      "BitsStored": 12,
      "Columns": 936,
      "EchoNumbers": 1,
      "EchoTime": 34.8,
      "EchoTrainLength": 1,
      "FlipAngle": 55.0,
      "HighBit": 11,
      "ImageOrientationPatient": [0.9994517896099, -0.0036333141749, -0.0329077388114, -1.5581358e-08, 0.99396002752351, -0.1097427158652],
      "ImagePositionPatient": [-935.09742090789, -952.84450631572, 21.90575904895],
      "ImageType": [
        "ORIGINAL",
        "PRIMARY",
        "M",
        "MB",
        "ND",
        "MOSAIC"
],
      "ImagedNucleus": "1H",
      "ImagingFrequency": 123.234752,
      "InPlanePhaseEncodingDirection": "COL",
      "MRAcquisitionType": "2D",
      "MagneticFieldStrength": 3.0,
      "Manufacturer": "SIEMENS",
      "ManufacturerModelName": "TrioTim",
      "Modality": "MR",
      "NumberOfAverages": 1.0,
      "NumberOfPhaseEncodingSteps": 91,
      "PercentPhaseFieldOfView": 100.0,
      "PercentSampling": 100.0,
      "PerformedProcedureStepStartTime": "100406.109000",
      "PhotometricInterpretation": "MONOCHROME2",
      "PixelBandwidth": 1923.0,
      "PixelRepresentation": 0,
      "PixelSpacing": [2.0, 2.0],
      "ProtocolName": "cmrr_mbep2d_bold_2mm_MB8_Task_8x",
      "RepetitionTime": 785.0,
      "Rows": 936,
      "SAR": 0.16971983118393,
      "SamplesPerPixel": 1,
      "ScanOptions": [
        "PFP",
        "FS"
],
      "ScanningSequence": "EP",
      "SequenceName": "epfid2d1_104",
      "SequenceVariant": [
        "SK",
        "SS"
],
      "SeriesDescription": "cmrr_mbep2d_bold_2mm_MB8_Task_8x",
      "SeriesNumber": 27,
      "SeriesTime": "114759.343000",
      "SliceLocation": -113.70783803472,
      "SliceThickness": 2.0,
      "SmallestImagePixelValue": 0,
      "SoftwareVersions": "syngo MR B19",
      "SpacingBetweenSlices": 1.9999999831704,
      "SpecificCharacterSet": "ISO_IR 100",
      "StudyID": "1",
      "StudyTime": "100406.046000",
      "TransmitCoilName": "Body",
      "VariableFlipAngleFlag": "N",
      "WindowCenterWidthExplanation": "Algo1",
      "dBdt": 0.0},
    "slices": {}
  },
  "time": {
    "samples": {
      "AcquisitionNumber": [1, 2, 3, 4, 5, 6, 7, 8, 9, 10, 11, 12, 13, 14, 15, 16, 17, 18, 19, 20, 21, 22, 23, 24, 25, 26, 27, 28, 29, 30, 31, 32, 33, 34, 35, 36, 37, 38, 39, 40, 41, 42, 43, 44, 45, 46, 47, 48, 49, 50, 51, 52, 53, 54, 55, 56, 57, 58, 59, 60, 61, 62, 63, 64, 65, 66, 67, 68, 69, 70, 71, 72, 73, 74, 75, 76, 77, 78, 79, 80, 81, 82, 83, 84, 85, 86, 87, 88, 89, 90, 91, 92, 93, 94, 95, 96, 97, 98, 99, 100, 101, 102, 103, 104, 105, 106, 107, 108, 109, 110, 111, 112, 113, 114, 115, 116, 117, 118, 119, 120, 121, 122, 123, 124, 125, 126, 127, 128, 129, 130, 131, 132, 133, 134, 135, 136, 137, 138, 139, 140, 141, 142, 143, 144, 145, 146, 147, 148, 149, 150, 151, 152, 153, 154, 155, 156, 157, 158, 159, 160, 161, 162, 163, 164, 165, 166, 167, 168, 169, 170, 171, 172, 173, 174, 175, 176, 177, 178, 179, 180, 181, 182, 183, 184, 185, 186, 187, 188, 189, 190, 191, 192, 193, 194, 195, 196, 197, 198, 199, 200, 201, 202, 203, 204, 205, 206, 207, 208, 209, 210, 211, 212, 213, 214, 215, 216, 217, 218, 219, 220, 221, 222, 223, 224, 225, 226, 227, 228, 229, 230, 231, 232, 233, 234, 235, 236, 237, 238, 239, 240, 241, 242, 243, 244, 245, 246, 247, 248, 249, 250, 251, 252, 253, 254, 255, 256, 257, 258, 259, 260, 261, 262, 263, 264, 265, 266, 267, 268, 269, 270, 271, 272, 273, 274, 275, 276, 277, 278, 279, 280, 281, 282, 283, 284, 285, 286, 287, 288, 289, 290, 291, 292, 293, 294, 295, 296, 297, 298, 299, 300, 301, 302, 303, 304, 305, 306, 307, 308, 309, 310, 311, 312, 313, 314, 315, 316, 317, 318, 319, 320, 321, 322, 323, 324, 325, 326, 327, 328, 329, 330, 331, 332, 333, 334, 335, 336, 337, 338, 339, 340, 341, 342, 343, 344, 345, 346, 347, 348, 349, 350, 351, 352, 353, 354, 355, 356, 357, 358, 359, 360, 361, 362, 363, 364, 365, 366, 367, 368, 369, 370, 371, 372, 373, 374, 375, 376, 377, 378, 379, 380, 381, 382, 383, 384, 385, 386, 387, 388, 389, 390, 391, 392, 393, 394, 395, 396, 397, 398, 399, 400, 401, 402, 403, 404, 405, 406, 407, 408, 409, 410, 411, 412, 413, 414, 415, 416, 417, 418, 419, 420, 421, 422, 423, 424, 425, 426, 427, 428, 429, 430, 431, 432, 433, 434, 435, 436, 437, 438, 439, 440, 441, 442, 443, 444, 445, 446, 447, 448, 449, 450, 451, 452, 453, 454, 455, 456, 457, 458, 459, 460, 461, 462, 463, 464, 465, 466, 467, 468, 469, 470, 471, 472, 473, 474, 475, 476, 477, 478, 479, 480, 481, 482, 483, 484, 485, 486, 487, 488, 489, 490, 491, 492, 493, 494, 495, 496, 497, 498, 499, 500, 501, 502, 503, 504, 505, 506, 507, 508, 509, 510, 511, 512, 513, 514, 515, 516, 517, 518, 519, 520, 521, 522, 523, 524, 525, 526, 527, 528, 529, 530, 531, 532, 533, 534, 535, 536, 537, 538, 539, 540, 541, 542, 543, 544, 545, 546, 547, 548, 549, 550, 551, 552, 553, 554, 555, 556, 557, 558, 559, 560, 561, 562, 563, 564, 565, 566, 567, 568, 569, 570, 571, 572, 573, 574, 575, 576, 577, 578, 579, 580, 581],
      "AcquisitionTime": ["114733.690000", "114734.477500", "114735.265000", "114736.055000", "114736.842500", "114737.630000", "114738.420000", "114739.207500", "114739.995000", "114740.782500", "114741.572500", "114742.360000", "114743.147500", "114743.935000", "114744.725000", "114745.512500", "114746.300000", "114747.087500", "114747.877500", "114748.665000", "114749.452500", "114750.240000", "114751.030000", "114751.817500", "114752.605000", "114753.392500", "114754.182500", "114754.970000", "114755.757500", "114756.547500", "114757.335000", "114758.122500", "114758.910000", "114759.700000", "114800.487500", "114801.275000", "114802.062500", "114802.852500", "114803.640000", "114804.427500", "114805.215000", "114806.005000", "114806.792500", "114807.580000", "114808.367500", "114809.157500", "114809.945000", "114810.732500", "114811.520000", "114812.310000", "114813.097500", "114813.885000", "114814.675000", "114815.462500", "114816.250000", "114817.037500", "114817.827500", "114818.615000", "114819.402500", "114820.190000", "114820.980000", "114821.767500", "114822.555000", "114823.342500", "114824.132500", "114824.920000", "114825.707500", "114826.495000", "114827.285000", "114828.072500", "114828.860000", "114829.647500", "114830.437500", "114831.225000", "114832.012500", "114832.802500", "114833.590000", "114834.377500", "114835.165000", "114835.955000", "114836.742500", "114837.530000", "114838.317500", "114839.107500", "114839.895000", "114840.682500", "114841.470000", "114842.260000", "114843.047500", "114843.835000", "114844.622500", "114845.412500", "114846.200000", "114846.987500", "114847.775000", "114848.565000", "114849.352500", "114850.140000", "114850.930000", "114851.717500", "114852.505000", "114853.292500", "114854.082500", "114854.870000", "114855.657500", "114856.445000", "114857.235000", "114858.022500", "114858.810000", "114859.597500", "114900.387500", "114901.175000", "114901.962500", "114902.750000", "114903.540000", "114904.327500", "114905.115000", "114905.902500", "114906.692500", "114907.480000", "114908.267500", "114909.057500", "114909.845000", "114910.632500", "114911.420000", "114912.210000", "114912.997500", "114913.785000", "114914.572500", "114915.362500", "114916.150000", "114916.937500", "114917.725000", "114918.515000", "114919.302500", "114920.090000", "114920.877500", "114921.667500", "114922.455000", "114923.242500", "114924.030000", "114924.820000", "114925.607500", "114926.395000", "114927.185000", "114927.972500", "114928.760000", "114929.547500", "114930.337500", "114931.125000", "114931.912500", "114932.700000", "114933.490000", "114934.277500", "114935.065000", "114935.852500", "114936.642500", "114937.430000", "114938.217500", "114939.005000", "114939.795000", "114940.582500", "114941.370000", "114942.157500", "114942.947500", "114943.735000", "114944.522500", "114945.312500", "114946.100000", "114946.887500", "114947.675000", "114948.465000", "114949.252500", "114950.040000", "114950.827500", "114951.617500", "114952.405000", "114953.192500", "114953.980000", "114954.770000", "114955.557500", "114956.345000", "114957.132500", "114957.922500", "114958.710000", "114959.497500", "115000.285000", "115001.075000", "115001.862500", "115002.650000", "115003.440000", "115004.227500", "115005.015000", "115005.802500", "115006.592500", "115007.380000", "115008.167500", "115008.955000", "115009.745000", "115010.532500", "115011.320000", "115012.107500", "115012.897500", "115013.685000", "115014.472500", "115015.260000", "115016.050000", "115016.837500", "115017.625000", "115018.412500", "115019.202500", "115019.990000", "115020.777500", "115021.567500", "115022.355000", "115023.142500", "115023.930000", "115024.720000", "115025.507500", "115026.295000", "115027.082500", "115027.872500", "115028.660000", "115029.447500", "115030.235000", "115031.025000", "115031.812500", "115032.600000", "115033.387500", "115034.177500", "115034.965000", "115035.752500", "115036.540000", "115037.330000", "115038.117500", "115038.905000", "115039.695000", "115040.482500", "115041.270000", "115042.057500", "115042.847500", "115043.635000", "115044.422500", "115045.210000", "115046.000000", "115046.787500", "115047.575000", "115048.362500", "115049.152500", "115049.940000", "115050.727500", "115051.515000", "115052.305000", "115053.092500", "115053.880000", "115054.670000", "115055.457500", "115056.245000", "115057.032500", "115057.822500", "115058.610000", "115059.397500", "115100.185000", "115100.975000", "115101.762500", "115102.550000", "115103.337500", "115104.127500", "115104.915000", "115105.702500", "115106.490000", "115107.280000", "115108.067500", "115108.855000", "115109.642500", "115110.432500", "115111.220000", "115112.007500", "115112.797500", "115113.585000", "115114.372500", "115115.160000", "115115.950000", "115116.737500", "115117.525000", "115118.312500", "115119.102500", "115119.890000", "115120.677500", "115121.465000", "115122.255000", "115123.042500", "115123.830000", "115124.617500", "115125.407500", "115126.195000", "115126.982500", "115127.770000", "115128.560000", "115129.347500", "115130.135000", "115130.925000", "115131.712500", "115132.500000", "115133.287500", "115134.077500", "115134.865000", "115135.652500", "115136.440000", "115137.230000", "115138.017500", "115138.805000", "115139.592500", "115140.382500", "115141.170000", "115141.957500", "115142.745000", "115143.535000", "115144.322500", "115145.110000", "115145.897500", "115146.687500", "115147.475000", "115148.262500", "115149.052500", "115149.840000", "115150.627500", "115151.415000", "115152.205000", "115152.992500", "115153.780000", "115154.567500", "115155.357500", "115156.145000", "115156.932500", "115157.720000", "115158.510000", "115159.297500", "115200.085000", "115200.872500", "115201.662500", "115202.450000", "115203.237500", "115204.025000", "115204.815000", "115205.602500", "115206.390000", "115207.180000", "115207.967500", "115208.755000", "115209.542500", "115210.332500", "115211.120000", "115211.907500", "115212.695000", "115213.485000", "115214.272500", "115215.060000", "115215.847500", "115216.637500", "115217.425000", "115218.212500", "115219.000000", "115219.790000", "115220.577500", "115221.365000", "115222.152500", "115222.942500", "115223.730000", "115224.517500", "115225.307500", "115226.095000", "115226.882500", "115227.670000", "115228.460000", "115229.247500", "115230.035000", "115230.822500", "115231.612500", "115232.400000", "115233.187500", "115233.975000", "115234.765000", "115235.552500", "115236.340000", "115237.127500", "115237.917500", "115238.705000", "115239.492500", "115240.280000", "115241.070000", "115241.857500", "115242.645000", "115243.435000", "115244.222500", "115245.010000", "115245.797500", "115246.587500", "115247.375000", "115248.162500", "115248.950000", "115249.740000", "115250.527500", "115251.315000", "115252.102500", "115252.892500", "115253.680000", "115254.467500", "115255.255000", "115256.045000", "115256.832500", "115257.620000", "115258.407500", "115259.197500", "115259.985000", "115300.772500", "115301.562500", "115302.350000", "115303.137500", "115303.925000", "115304.715000", "115305.502500", "115306.290000", "115307.077500", "115307.867500", "115308.655000", "115309.442500", "115310.230000", "115311.020000", "115311.807500", "115312.595000", "115313.382500", "115314.172500", "115314.960000", "115315.747500", "115316.535000", "115317.325000", "115318.112500", "115318.900000", "115319.690000", "115320.477500", "115321.265000", "115322.052500", "115322.842500", "115323.630000", "115324.417500", "115325.205000", "115325.995000", "115326.782500", "115327.570000", "115328.357500", "115329.147500", "115329.935000", "115330.722500", "115331.510000", "115332.300000", "115333.087500", "115333.875000", "115334.662500", "115335.452500", "115336.240000", "115337.027500", "115337.817500", "115338.605000", "115339.392500", "115340.180000", "115340.970000", "115341.757500", "115342.545000", "115343.332500", "115344.122500", "115344.910000", "115345.697500", "115346.485000", "115347.275000", "115348.062500", "115348.850000", "115349.637500", "115350.427500", "115351.215000", "115352.002500", "115352.790000", "115353.580000", "115354.367500", "115355.155000", "115355.945000", "115356.732500", "115357.520000", "115358.307500", "115359.097500", "115359.885000", "115400.672500", "115401.460000", "115402.250000", "115403.037500", "115403.825000", "115404.612500", "115405.402500", "115406.190000", "115406.977500", "115407.765000", "115408.555000", "115409.342500", "115410.130000", "115410.920000", "115411.707500", "115412.495000", "115413.282500", "115414.072500", "115414.860000", "115415.647500", "115416.435000", "115417.225000", "115418.012500", "115418.800000", "115419.587500", "115420.377500", "115421.165000", "115421.952500", "115422.740000", "115423.530000", "115424.317500", "115425.105000", "115425.892500", "115426.682500", "115427.470000", "115428.257500", "115429.047500", "115429.835000", "115430.622500", "115431.410000", "115432.200000", "115432.987500", "115433.775000", "115434.562500", "115435.352500", "115436.140000", "115436.927500", "115437.715000", "115438.505000", "115439.292500", "115440.080000", "115440.867500", "115441.657500", "115442.445000", "115443.232500", "115444.020000", "115444.810000", "115445.597500", "115446.385000", "115447.175000", "115447.962500", "115448.750000", "115449.537500", "115450.327500", "115451.115000", "115451.902500", "115452.690000", "115453.480000", "115454.267500", "115455.055000", "115455.842500", "115456.632500", "115457.420000", "115458.207500", "115458.995000", "115459.785000", "115500.572500", "115501.360000", "115502.147500", "115502.937500", "115503.725000", "115504.512500", "115505.302500", "115506.090000", "115506.877500", "115507.665000", "115508.455000", "115509.242500", "115510.030000", "115510.817500"],
      "ContentTime": ["114759.343000", "114759.359000", "114759.359000", "114759.359000", "114759.359000", "114759.359000", "114759.359000", "114759.359000", "114759.359000", "114759.375000", "114759.375000", "114759.375000", "114759.375000", "114759.375000", "114759.375000", "114759.375000", "114759.390000", "114759.390000", "114759.390000", "114759.390000", "114759.390000", "114759.390000", "114759.406000", "114759.406000", "114759.406000", "114759.406000", "114759.406000", "114759.406000", "114759.406000", "114759.421000", "114819.312000", "114819.328000", "114819.328000", "114819.328000", "114819.328000", "114819.328000", "114819.328000", "114819.328000", "114819.343000", "114819.343000", "114819.343000", "114819.343000", "114819.343000", "114819.343000", "114819.343000", "114819.359000", "114819.359000", "114819.359000", "114819.359000", "114819.359000", "114819.359000", "114819.359000", "114819.375000", "114819.375000", "114819.375000", "114839.312000", "114839.328000", "114839.328000", "114839.328000", "114839.328000", "114839.328000", "114839.328000", "114839.328000", "114839.328000", "114839.343000", "114839.343000", "114839.343000", "114839.343000", "114839.343000", "114839.343000", "114839.343000", "114839.359000", "114839.359000", "114839.359000", "114839.359000", "114839.359000", "114839.359000", "114839.375000", "114839.375000", "114839.375000", "114839.375000", "114859.312000", "114859.328000", "114859.328000", "114859.328000", "114859.328000", "114859.328000", "114859.328000", "114859.343000", "114859.343000", "114859.343000", "114859.343000", "114859.343000", "114859.343000", "114859.343000", "114859.359000", "114859.359000", "114859.359000", "114859.359000", "114859.359000", "114859.359000", "114859.375000", "114859.375000", "114859.375000", "114859.375000", "114859.375000", "114919.312000", "114919.328000", "114919.328000", "114919.328000", "114919.328000", "114919.328000", "114919.328000", "114919.328000", "114919.328000", "114919.343000", "114919.343000", "114919.343000", "114919.343000", "114919.343000", "114919.359000", "114919.359000", "114919.359000", "114919.359000", "114919.359000", "114919.359000", "114919.359000", "114919.375000", "114919.375000", "114919.375000", "114919.375000", "114919.375000", "114939.312000", "114939.328000", "114939.328000", "114939.328000", "114939.328000", "114939.328000", "114939.328000", "114939.328000", "114939.328000", "114939.343000", "114939.343000", "114939.343000", "114939.343000", "114939.343000", "114939.343000", "114939.343000", "114939.359000", "114939.359000", "114939.359000", "114939.359000", "114939.359000", "114939.375000", "114939.375000", "114939.375000", "114939.375000", "114959.312000", "114959.328000", "114959.328000", "114959.328000", "114959.328000", "114959.328000", "114959.328000", "114959.328000", "114959.328000", "114959.343000", "114959.343000", "114959.343000", "114959.343000", "114959.343000", "114959.343000", "114959.343000", "114959.359000", "114959.359000", "114959.359000", "114959.359000", "114959.359000", "114959.359000", "114959.359000", "114959.359000", "114959.375000", "114959.375000", "115019.312000", "115019.328000", "115019.328000", "115019.328000", "115019.328000", "115019.328000", "115019.328000", "115019.328000", "115019.328000", "115019.343000", "115019.343000", "115019.343000", "115019.343000", "115019.343000", "115019.343000", "115019.343000", "115019.359000", "115019.359000", "115019.359000", "115019.359000", "115019.359000", "115019.359000", "115019.359000", "115019.359000", "115019.375000", "115039.312000", "115039.328000", "115039.328000", "115039.328000", "115039.328000", "115039.328000", "115039.328000", "115039.328000", "115039.328000", "115039.343000", "115039.343000", "115039.343000", "115039.343000", "115039.343000", "115039.343000", "115039.343000", "115039.359000", "115039.359000", "115039.359000", "115039.359000", "115039.375000", "115039.375000", "115039.375000", "115039.375000", "115039.375000", "115039.375000", "115059.312000", "115059.328000", "115059.328000", "115059.328000", "115059.328000", "115059.328000", "115059.328000", "115059.328000", "115059.328000", "115059.343000", "115059.343000", "115059.343000", "115059.343000", "115059.343000", "115059.343000", "115059.343000", "115059.359000", "115059.359000", "115059.359000", "115059.359000", "115059.359000", "115059.359000", "115059.359000", "115059.359000", "115059.375000", "115119.312000", "115119.328000", "115119.328000", "115119.328000", "115119.328000", "115119.328000", "115119.328000", "115119.328000", "115119.328000", "115119.343000", "115119.343000", "115119.343000", "115119.343000", "115119.343000", "115119.343000", "115119.359000", "115119.359000", "115119.359000", "115119.359000", "115119.359000", "115119.359000", "115119.359000", "115119.375000", "115119.375000", "115119.375000", "115119.375000", "115139.312000", "115139.328000", "115139.328000", "115139.328000", "115139.328000", "115139.328000", "115139.328000", "115139.328000", "115139.328000", "115139.343000", "115139.343000", "115139.343000", "115139.343000", "115139.343000", "115139.343000", "115139.343000", "115139.359000", "115139.359000", "115139.359000", "115139.359000", "115139.359000", "115139.359000", "115139.359000", "115139.359000", "115139.375000", "115159.312000", "115159.328000", "115159.328000", "115159.328000", "115159.328000", "115159.328000", "115159.328000", "115159.328000", "115159.343000", "115159.343000", "115159.343000", "115159.343000", "115159.343000", "115159.343000", "115159.343000", "115159.343000", "115159.359000", "115159.359000", "115159.359000", "115159.359000", "115159.359000", "115159.359000", "115159.359000", "115159.359000", "115159.375000", "115159.375000", "115219.312000", "115219.328000", "115219.328000", "115219.328000", "115219.328000", "115219.343000", "115219.343000", "115219.343000", "115219.343000", "115219.343000", "115219.343000", "115219.343000", "115219.343000", "115219.359000", "115219.359000", "115219.359000", "115219.359000", "115219.359000", "115219.359000", "115219.375000", "115219.375000", "115219.375000", "115219.375000", "115219.375000", "115219.375000", "115239.312000", "115239.328000", "115239.328000", "115239.328000", "115239.328000", "115239.328000", "115239.328000", "115239.328000", "115239.343000", "115239.343000", "115239.343000", "115239.343000", "115239.343000", "115239.343000", "115239.343000", "115239.343000", "115239.359000", "115239.359000", "115239.359000", "115239.359000", "115239.359000", "115239.359000", "115239.359000", "115239.375000", "115239.375000", "115239.375000", "115259.312000", "115259.328000", "115259.328000", "115259.328000", "115259.328000", "115259.328000", "115259.328000", "115259.328000", "115259.328000", "115259.343000", "115259.343000", "115259.343000", "115259.343000", "115259.343000", "115259.343000", "115259.343000", "115259.359000", "115259.359000", "115259.359000", "115259.359000", "115259.359000", "115259.359000", "115259.359000", "115259.359000", "115259.375000", "115319.312000", "115319.328000", "115319.328000", "115319.328000", "115319.328000", "115319.328000", "115319.328000", "115319.328000", "115319.328000", "115319.343000", "115319.343000", "115319.343000", "115319.343000", "115319.343000", "115319.359000", "115319.359000", "115319.359000", "115319.359000", "115319.359000", "115319.359000", "115319.359000", "115319.375000", "115319.375000", "115319.375000", "115319.375000", "115319.375000", "115339.312000", "115339.328000", "115339.328000", "115339.328000", "115339.328000", "115339.328000", "115339.328000", "115339.328000", "115339.343000", "115339.343000", "115339.343000", "115339.343000", "115339.343000", "115339.343000", "115339.343000", "115339.343000", "115339.359000", "115339.359000", "115339.359000", "115339.359000", "115339.359000", "115339.359000", "115339.359000", "115339.375000", "115339.375000", "115359.312000", "115359.328000", "115359.328000", "115359.328000", "115359.328000", "115359.328000", "115359.328000", "115359.328000", "115359.343000", "115359.343000", "115359.343000", "115359.343000", "115359.343000", "115359.343000", "115359.343000", "115359.359000", "115359.359000", "115359.359000", "115359.359000", "115359.359000", "115359.359000", "115359.359000", "115359.359000", "115359.375000", "115359.375000", "115359.375000", "115419.312000", "115419.328000", "115419.328000", "115419.328000", "115419.328000", "115419.328000", "115419.328000", "115419.328000", "115419.343000", "115419.343000", "115419.343000", "115419.343000", "115419.343000", "115419.343000", "115419.359000", "115419.359000", "115419.359000", "115419.359000", "115419.359000", "115419.359000", "115419.359000", "115419.375000", "115419.375000", "115419.375000", "115419.375000", "115439.312000", "115439.328000", "115439.328000", "115439.328000", "115439.328000", "115439.328000", "115439.328000", "115439.328000", "115439.328000", "115439.343000", "115439.343000", "115439.343000", "115439.343000", "115439.343000", "115439.343000", "115439.359000", "115439.359000", "115439.359000", "115439.359000", "115439.359000", "115439.359000", "115439.359000", "115439.359000", "115439.375000", "115439.375000", "115439.375000", "115459.312000", "115459.328000", "115459.328000", "115459.328000", "115459.328000", "115459.328000", "115459.328000", "115459.343000", "115459.343000", "115459.343000", "115459.343000", "115459.343000", "115459.343000", "115459.359000", "115459.359000", "115459.359000", "115459.359000", "115459.359000", "115459.359000", "115459.359000", "115459.359000", "115459.375000", "115459.375000", "115459.375000", "115459.375000", "115511.546000", "115511.546000", "115511.562000", "115511.562000", "115511.562000", "115511.562000", "115511.562000", "115511.562000", "115511.562000", "115511.578000", "115511.578000", "115511.578000", "115511.578000", "115511.578000", "115511.578000", "115511.578000"],
