{
  "AcquisitionMatrixPE": 104,
  "AcquisitionNumber": 1,
  "AcquisitionTime": "11:15:34.690000",
  "BandwidthPerPixelPhaseEncode": 13.935,
  "BaseResolution": 104,
  "CoilString": "C:HEA;HEP",
  "ConversionSoftware": "dcm2niix",
  "ConversionSoftwareVersion": "v1.0.20210317",
  "DerivedVendorReportedEchoSpacing": 0.000690017,
  "DeviceSerialNumber": "35450",
  "DwellTime": 2.5e-06,
  "EchoTime": 0.0348,
  "EffectiveEchoSpacing": 0.000690017,
  "FlipAngle": 55,
  "ImageComments": "Unaliased MB8/PE3 (remote)",
  "ImageOrientationPatientDICOM": [0.999452, -0.00363331, -0.0329077, -1.55814e-08, 0.99396, -0.109743],
  "ImageType": [
    "ORIGINAL",
    "PRIMARY",
    "M",
    "MB",
    "ND",
    "MOSAIC"
],
  "ImagingFrequency": 123.235,
  "InPlanePhaseEncodingDirectionDICOM": "COL",
  "InstitutionAddress": "Univeristy Ave. 197,Newark,North East,US,07102-1814",
  "InstitutionName": "RUBIC",
  "InstitutionalDepartmentName": "Department",
  "MRAcquisitionType": "2D",
  "MagneticFieldStrength": 3,
  "Manufacturer": "Siemens",
  "ManufacturersModelName": "TrioTim",
  "Modality": "MR",
  "MultibandAccelerationFactor": 8,
  "PartialFourier": 0.875,
  "PatientPosition": "HFS",
  "PercentPhaseFOV": 100,
  "PercentSampling": 100,
  "PhaseEncodingDirection": "j-",
  "PhaseEncodingSteps": 91,
  "PhaseResolution": 1,
  "PixelBandwidth": 1923,
  "ProcedureStepDescription": "Cole^Michael",
  "ProtocolName": "cmrr_mbep2d_bold_2mm_MB8_Task_8x",
  "PulseSequenceDetails": "%CustomerSeq%\\cmrr_mbep2d_bold",
  "ReceiveCoilName": "32Ch_Head",
  "ReconMatrixPE": 104,
  "RepetitionTime": 0.785,
  "SAR": 0.16972,
  "ScanOptions": "PFP\\FS",
  "ScanningSequence": "EP",
  "SequenceName": "epfid2d1_104",
  "SequenceVariant": "SK\\SS",
  "SeriesDescription": "cmrr_mbep2d_bold_2mm_MB8_Task_8x",
  "SeriesNumber": 19,
  "ShimSetting": [2141, -500, -7666, 521, 0, -619, -1111, 18],
  "SliceThickness": 2,
  "SliceTiming": [0, 0.4375, 0.0875, 0.525, 0.175, 0.6125, 0.2625, 0.7, 0.35, 0, 0.4375, 0.0875, 0.525, 0.175, 0.6125, 0.2625, 0.7, 0.35, 0, 0.4375, 0.0875, 0.525, 0.175, 0.6125, 0.2625, 0.7, 0.35, 0, 0.4375, 0.0875, 0.525, 0.175, 0.6125, 0.2625, 0.7, 0.35, 0, 0.4375, 0.0875, 0.525, 0.175, 0.6125, 0.2625, 0.7, 0.35, 0, 0.4375, 0.0875, 0.525, 0.175, 0.6125, 0.2625, 0.7, 0.35, 0, 0.4375, 0.0875, 0.525, 0.175, 0.6125, 0.2625, 0.7, 0.35, 0, 0.4375, 0.0875, 0.525, 0.175, 0.6125, 0.2625, 0.7, 0.35],
  "SoftwareVersions": "syngo MR B19",
  "SpacingBetweenSlices": 2,
  "StationName": "MRC35450",
  "TaskName": "cpro",
  "TotalReadoutTime": 0.0710717,
  "TxRefAmp": 349.969,
  "dcmmeta_affine": [
    [-1.9989036321640015, -3.1162716851440564e-08, -0.0662154108285904, 103.55355072021484],
    [0.007266628555953503, 1.9879200458526611, -0.21936510503292084, -75.86308288574219],
    [-0.06581547856330872, 0.21948543190956116, 1.986830234527588, -119.38642120361328],
    [0.0, 0.0, 0.0, 1.0]
],
  "dcmmeta_reorient_transform": [
    [0.0, -1.0, 0.0, 103.0],
    [1.0, 0.0, 0.0, 0.0],
    [0.0, 0.0, 1.0, 0.0],
    [0.0, 0.0, 0.0, 1.0]
],
  "dcmmeta_shape": [104, 104, 72, 581],
  "dcmmeta_slice_dim": 2,
  "dcmmeta_version": 0.6,
  "global": {
    "const": {
      "AcquisitionMatrix": [104, 0, 0, 104],
      "AngioFlag": "N",
      "BitsAllocated": 16,
      "BitsStored": 12,
      "Columns": 936,
      "EchoNumbers": 1,
      "EchoTime": 34.8,
      "EchoTrainLength": 1,
      "FlipAngle": 55.0,
      "HighBit": 11,
      "ImageOrientationPatient": [0.9994517896099, -0.0036333141749, -0.0329077388114, -1.5581358e-08, 0.99396002752351, -0.1097427158652],
      "ImagePositionPatient": [-935.09742090789, -952.84450631572, 21.90575904895],
      "ImageType": [
        "ORIGINAL",
        "PRIMARY",
        "M",
        "MB",
        "ND",
        "MOSAIC"
],
      "ImagedNucleus": "1H",
      "ImagingFrequency": 123.234752,
      "InPlanePhaseEncodingDirection": "COL",
      "MRAcquisitionType": "2D",
      "MagneticFieldStrength": 3.0,
      "Manufacturer": "SIEMENS",
      "ManufacturerModelName": "TrioTim",
      "Modality": "MR",
      "NumberOfAverages": 1.0,
      "NumberOfPhaseEncodingSteps": 91,
      "PercentPhaseFieldOfView": 100.0,
      "PercentSampling": 100.0,
      "PerformedProcedureStepStartTime": "100406.109000",
      "PhotometricInterpretation": "MONOCHROME2",
      "PixelBandwidth": 1923.0,
      "PixelRepresentation": 0,
      "PixelSpacing": [2.0, 2.0],
      "ProtocolName": "cmrr_mbep2d_bold_2mm_MB8_Task_8x",
      "RepetitionTime": 785.0,
      "Rows": 936,
      "SAR": 0.16971983118393,
      "SamplesPerPixel": 1,
      "ScanOptions": [
        "PFP",
        "FS"
],
      "ScanningSequence": "EP",
      "SequenceName": "epfid2d1_104",
      "SequenceVariant": [
        "SK",
        "SS"
],
      "SeriesDescription": "cmrr_mbep2d_bold_2mm_MB8_Task_8x",
      "SeriesNumber": 19,
      "SeriesTime": "111552.453000",
      "SliceLocation": -113.70783803472,
      "SliceThickness": 2.0,
      "SmallestImagePixelValue": 0,
      "SoftwareVersions": "syngo MR B19",
      "SpacingBetweenSlices": 1.9999999831704,
      "SpecificCharacterSet": "ISO_IR 100",
      "StudyID": "1",
      "StudyTime": "100406.046000",
      "TransmitCoilName": "Body",
      "VariableFlipAngleFlag": "N",
      "WindowCenterWidthExplanation": "Algo1",
      "dBdt": 0.0},
    "slices": {}
  },
  "time": {
    "samples": {
      "AcquisitionNumber": [1, 2, 3, 4, 5, 6, 7, 8, 9, 10, 11, 12, 13, 14, 15, 16, 17, 18, 19, 20, 21, 22, 23, 24, 25, 26, 27, 28, 29, 30, 31, 32, 33, 34, 35, 36, 37, 38, 39, 40, 41, 42, 43, 44, 45, 46, 47, 48, 49, 50, 51, 52, 53, 54, 55, 56, 57, 58, 59, 60, 61, 62, 63, 64, 65, 66, 67, 68, 69, 70, 71, 72, 73, 74, 75, 76, 77, 78, 79, 80, 81, 82, 83, 84, 85, 86, 87, 88, 89, 90, 91, 92, 93, 94, 95, 96, 97, 98, 99, 100, 101, 102, 103, 104, 105, 106, 107, 108, 109, 110, 111, 112, 113, 114, 115, 116, 117, 118, 119, 120, 121, 122, 123, 124, 125, 126, 127, 128, 129, 130, 131, 132, 133, 134, 135, 136, 137, 138, 139, 140, 141, 142, 143, 144, 145, 146, 147, 148, 149, 150, 151, 152, 153, 154, 155, 156, 157, 158, 159, 160, 161, 162, 163, 164, 165, 166, 167, 168, 169, 170, 171, 172, 173, 174, 175, 176, 177, 178, 179, 180, 181, 182, 183, 184, 185, 186, 187, 188, 189, 190, 191, 192, 193, 194, 195, 196, 197, 198, 199, 200, 201, 202, 203, 204, 205, 206, 207, 208, 209, 210, 211, 212, 213, 214, 215, 216, 217, 218, 219, 220, 221, 222, 223, 224, 225, 226, 227, 228, 229, 230, 231, 232, 233, 234, 235, 236, 237, 238, 239, 240, 241, 242, 243, 244, 245, 246, 247, 248, 249, 250, 251, 252, 253, 254, 255, 256, 257, 258, 259, 260, 261, 262, 263, 264, 265, 266, 267, 268, 269, 270, 271, 272, 273, 274, 275, 276, 277, 278, 279, 280, 281, 282, 283, 284, 285, 286, 287, 288, 289, 290, 291, 292, 293, 294, 295, 296, 297, 298, 299, 300, 301, 302, 303, 304, 305, 306, 307, 308, 309, 310, 311, 312, 313, 314, 315, 316, 317, 318, 319, 320, 321, 322, 323, 324, 325, 326, 327, 328, 329, 330, 331, 332, 333, 334, 335, 336, 337, 338, 339, 340, 341, 342, 343, 344, 345, 346, 347, 348, 349, 350, 351, 352, 353, 354, 355, 356, 357, 358, 359, 360, 361, 362, 363, 364, 365, 366, 367, 368, 369, 370, 371, 372, 373, 374, 375, 376, 377, 378, 379, 380, 381, 382, 383, 384, 385, 386, 387, 388, 389, 390, 391, 392, 393, 394, 395, 396, 397, 398, 399, 400, 401, 402, 403, 404, 405, 406, 407, 408, 409, 410, 411, 412, 413, 414, 415, 416, 417, 418, 419, 420, 421, 422, 423, 424, 425, 426, 427, 428, 429, 430, 431, 432, 433, 434, 435, 436, 437, 438, 439, 440, 441, 442, 443, 444, 445, 446, 447, 448, 449, 450, 451, 452, 453, 454, 455, 456, 457, 458, 459, 460, 461, 462, 463, 464, 465, 466, 467, 468, 469, 470, 471, 472, 473, 474, 475, 476, 477, 478, 479, 480, 481, 482, 483, 484, 485, 486, 487, 488, 489, 490, 491, 492, 493, 494, 495, 496, 497, 498, 499, 500, 501, 502, 503, 504, 505, 506, 507, 508, 509, 510, 511, 512, 513, 514, 515, 516, 517, 518, 519, 520, 521, 522, 523, 524, 525, 526, 527, 528, 529, 530, 531, 532, 533, 534, 535, 536, 537, 538, 539, 540, 541, 542, 543, 544, 545, 546, 547, 548, 549, 550, 551, 552, 553, 554, 555, 556, 557, 558, 559, 560, 561, 562, 563, 564, 565, 566, 567, 568, 569, 570, 571, 572, 573, 574, 575, 576, 577, 578, 579, 580, 581],
      "AcquisitionTime": ["111534.690000", "111535.480000", "111536.267500", "111537.055000", "111537.842500", "111538.632500", "111539.420000", "111540.207500", "111540.995000", "111541.785000", "111542.572500", "111543.360000", "111544.147500", "111544.937500", "111545.725000", "111546.512500", "111547.302500", "111548.090000", "111548.877500", "111549.665000", "111550.455000", "111551.242500", "111552.030000", "111552.817500", "111553.607500", "111554.395000", "111555.182500", "111555.970000", "111556.760000", "111557.547500", "111558.335000", "111559.122500", "111559.912500", "111600.700000", "111601.487500", "111602.275000", "111603.065000", "111603.852500", "111604.640000", "111605.430000", "111606.217500", "111607.005000", "111607.792500", "111608.582500", "111609.370000", "111610.157500", "111610.945000", "111611.735000", "111612.522500", "111613.310000", "111614.097500", "111614.887500", "111615.675000", "111616.462500", "111617.250000", "111618.040000", "111618.827500", "111619.615000", "111620.402500", "111621.192500", "111621.980000", "111622.767500", "111623.557500", "111624.345000", "111625.132500", "111625.920000", "111626.710000", "111627.497500", "111628.285000", "111629.072500", "111629.862500", "111630.650000", "111631.437500", "111632.225000", "111633.015000", "111633.802500", "111634.590000", "111635.377500", "111636.167500", "111636.955000", "111637.742500", "111638.530000", "111639.320000", "111640.107500", "111640.895000", "111641.685000", "111642.472500", "111643.260000", "111644.047500", "111644.837500", "111645.625000", "111646.412500", "111647.200000", "111647.990000", "111648.777500", "111649.565000", "111650.352500", "111651.142500", "111651.930000", "111652.717500", "111653.505000", "111654.295000", "111655.082500", "111655.870000", "111656.660000", "111657.447500", "111658.235000", "111659.022500", "111659.812500", "111700.600000", "111701.387500", "111702.175000", "111702.965000", "111703.752500", "111704.540000", "111705.327500", "111706.117500", "111706.905000", "111707.692500", "111708.480000", "111709.270000", "111710.057500", "111710.845000", "111711.632500", "111712.422500", "111713.210000", "111713.997500", "111714.787500", "111715.575000", "111716.362500", "111717.150000", "111717.940000", "111718.727500", "111719.515000", "111720.302500", "111721.092500", "111721.880000", "111722.667500", "111723.455000", "111724.245000", "111725.032500", "111725.820000", "111726.607500", "111727.397500", "111728.185000", "111728.972500", "111729.760000", "111730.550000", "111731.337500", "111732.125000", "111732.915000", "111733.702500", "111734.490000", "111735.277500", "111736.067500", "111736.855000", "111737.642500", "111738.430000", "111739.220000", "111740.007500", "111740.795000", "111741.582500", "111742.372500", "111743.160000", "111743.947500", "111744.735000", "111745.525000", "111746.312500", "111747.100000", "111747.887500", "111748.677500", "111749.465000", "111750.252500", "111751.042500", "111751.830000", "111752.617500", "111753.405000", "111754.195000", "111754.982500", "111755.770000", "111756.557500", "111757.347500", "111758.135000", "111758.922500", "111759.710000", "111800.500000", "111801.287500", "111802.075000", "111802.862500", "111803.652500", "111804.440000", "111805.227500", "111806.015000", "111806.805000", "111807.592500", "111808.380000", "111809.170000", "111809.957500", "111810.745000", "111811.532500", "111812.322500", "111813.110000", "111813.897500", "111814.685000", "111815.475000", "111816.262500", "111817.050000", "111817.837500", "111818.627500", "111819.415000", "111820.202500", "111820.990000", "111821.780000", "111822.567500", "111823.355000", "111824.142500", "111824.932500", "111825.720000", "111826.507500", "111827.297500", "111828.085000", "111828.872500", "111829.660000", "111830.450000", "111831.237500", "111832.025000", "111832.812500", "111833.602500", "111834.390000", "111835.177500", "111835.965000", "111836.755000", "111837.542500", "111838.330000", "111839.117500", "111839.907500", "111840.695000", "111841.482500", "111842.270000", "111843.060000", "111843.847500", "111844.635000", "111845.425000", "111846.212500", "111847.000000", "111847.787500", "111848.577500", "111849.365000", "111850.152500", "111850.940000", "111851.730000", "111852.517500", "111853.305000", "111854.092500", "111854.882500", "111855.670000", "111856.457500", "111857.245000", "111858.035000", "111858.822500", "111859.610000", "111900.397500", "111901.187500", "111901.975000", "111902.762500", "111903.552500", "111904.340000", "111905.127500", "111905.915000", "111906.705000", "111907.492500", "111908.280000", "111909.067500", "111909.857500", "111910.645000", "111911.432500", "111912.220000", "111913.010000", "111913.797500", "111914.585000", "111915.372500", "111916.162500", "111916.950000", "111917.737500", "111918.525000", "111919.315000", "111920.102500", "111920.890000", "111921.680000", "111922.467500", "111923.255000", "111924.042500", "111924.832500", "111925.620000", "111926.407500", "111927.195000", "111927.985000", "111928.772500", "111929.560000", "111930.347500", "111931.137500", "111931.925000", "111932.712500", "111933.500000", "111934.290000", "111935.077500", "111935.865000", "111936.652500", "111937.442500", "111938.230000", "111939.017500", "111939.807500", "111940.595000", "111941.382500", "111942.170000", "111942.960000", "111943.747500", "111944.535000", "111945.322500", "111946.112500", "111946.900000", "111947.687500", "111948.475000", "111949.265000", "111950.052500", "111950.840000", "111951.627500", "111952.417500", "111953.205000", "111953.992500", "111954.780000", "111955.570000", "111956.357500", "111957.145000", "111957.935000", "111958.722500", "111959.510000", "112000.297500", "112001.087500", "112001.875000", "112002.662500", "112003.450000", "112004.240000", "112005.027500", "112005.815000", "112006.602500", "112007.392500", "112008.180000", "112008.967500", "112009.755000", "112010.545000", "112011.332500", "112012.120000", "112012.910000", "112013.697500", "112014.485000", "112015.272500", "112016.062500", "112016.850000", "112017.637500", "112018.425000", "112019.215000", "112020.002500", "112020.790000", "112021.577500", "112022.367500", "112023.155000", "112023.942500", "112024.730000", "112025.520000", "112026.307500", "112027.095000", "112027.882500", "112028.672500", "112029.460000", "112030.247500", "112031.037500", "112031.825000", "112032.612500", "112033.400000", "112034.190000", "112034.977500", "112035.765000", "112036.552500", "112037.342500", "112038.130000", "112038.917500", "112039.705000", "112040.495000", "112041.282500", "112042.070000", "112042.857500", "112043.647500", "112044.435000", "112045.222500", "112046.010000", "112046.800000", "112047.587500", "112048.375000", "112049.165000", "112049.952500", "112050.740000", "112051.527500", "112052.317500", "112053.105000", "112053.892500", "112054.680000", "112055.470000", "112056.257500", "112057.045000", "112057.832500", "112058.622500", "112059.410000", "112100.197500", "112100.985000", "112101.775000", "112102.562500", "112103.350000", "112104.137500", "112104.927500", "112105.715000", "112106.502500", "112107.292500", "112108.080000", "112108.867500", "112109.655000", "112110.445000", "112111.232500", "112112.020000", "112112.807500", "112113.597500", "112114.385000", "112115.172500", "112115.960000", "112116.750000", "112117.537500", "112118.325000", "112119.112500", "112119.902500", "112120.690000", "112121.477500", "112122.265000", "112123.055000", "112123.842500", "112124.630000", "112125.420000", "112126.207500", "112126.995000", "112127.782500", "112128.572500", "112129.360000", "112130.147500", "112130.935000", "112131.725000", "112132.512500", "112133.300000", "112134.087500", "112134.877500", "112135.665000", "112136.452500", "112137.240000", "112138.030000", "112138.817500", "112139.605000", "112140.392500", "112141.182500", "112141.970000", "112142.757500", "112143.547500", "112144.335000", "112145.122500", "112145.910000", "112146.700000", "112147.487500", "112148.275000", "112149.062500", "112149.852500", "112150.640000", "112151.427500", "112152.215000", "112153.005000", "112153.792500", "112154.580000", "112155.367500", "112156.157500", "112156.945000", "112157.732500", "112158.520000", "112159.310000", "112200.097500", "112200.885000", "112201.675000", "112202.462500", "112203.250000", "112204.037500", "112204.827500", "112205.615000", "112206.402500", "112207.190000", "112207.980000", "112208.767500", "112209.555000", "112210.342500", "112211.132500", "112211.920000", "112212.707500", "112213.495000", "112214.285000", "112215.072500", "112215.860000", "112216.647500", "112217.437500", "112218.225000", "112219.012500", "112219.802500", "112220.590000", "112221.377500", "112222.165000", "112222.955000", "112223.742500", "112224.530000", "112225.317500", "112226.107500", "112226.895000", "112227.682500", "112228.470000", "112229.260000", "112230.047500", "112230.835000", "112231.622500", "112232.412500", "112233.200000", "112233.987500", "112234.775000", "112235.565000", "112236.352500", "112237.140000", "112237.930000", "112238.717500", "112239.505000", "112240.292500", "112241.082500", "112241.870000", "112242.657500", "112243.445000", "112244.235000", "112245.022500", "112245.810000", "112246.597500", "112247.387500", "112248.175000", "112248.962500", "112249.750000", "112250.540000", "112251.327500", "112252.115000", "112252.902500", "112253.692500", "112254.480000", "112255.267500", "112256.057500", "112256.845000", "112257.632500", "112258.420000", "112259.210000", "112259.997500", "112300.785000", "112301.572500", "112302.362500", "112303.150000", "112303.937500", "112304.725000", "112305.515000", "112306.302500", "112307.090000", "112307.877500", "112308.667500", "112309.455000", "112310.242500", "112311.030000", "112311.820000"],
      "ContentTime": ["111552.453000", "111552.468000", "111552.468000", "111552.468000", "111552.468000", "111552.468000", "111552.468000", "111552.484000", "111552.484000", "111552.484000", "111552.484000", "111552.484000", "111552.484000", "111552.484000", "111552.484000", "111552.500000", "111552.500000", "111552.500000", "111552.500000", "111552.500000", "111552.500000", "111612.421000", "111612.437000", "111612.437000", "111612.437000", "111612.437000", "111612.437000", "111612.437000", "111612.437000", "111612.437000", "111612.453000", "111612.453000", "111612.453000", "111612.453000", "111612.453000", "111612.453000", "111612.453000", "111612.453000", "111612.468000", "111612.468000", "111612.468000", "111612.468000", "111612.468000", "111612.468000", "111612.484000", "111612.484000", "111632.421000", "111632.437000", "111632.437000", "111632.437000", "111632.437000", "111632.437000", "111632.437000", "111632.437000", "111632.437000", "111632.453000", "111632.453000", "111632.453000", "111632.453000", "111632.468000", "111632.468000", "111632.468000", "111632.468000", "111632.484000", "111632.484000", "111632.484000", "111632.484000", "111632.484000", "111632.484000", "111632.484000", "111632.500000", "111632.500000", "111652.421000", "111652.437000", "111652.437000", "111652.437000", "111652.437000", "111652.437000", "111652.437000", "111652.437000", "111652.437000", "111652.453000", "111652.453000", "111652.453000", "111652.453000", "111652.453000", "111652.453000", "111652.453000", "111652.453000", "111652.468000", "111652.468000", "111652.468000", "111652.468000", "111652.468000", "111652.468000", "111652.468000", "111652.484000", "111712.421000", "111712.437000", "111712.437000", "111712.437000", "111712.437000", "111712.437000", "111712.437000", "111712.437000", "111712.437000", "111712.453000", "111712.453000", "111712.453000", "111712.453000", "111712.453000", "111712.453000", "111712.453000", "111712.468000", "111712.468000", "111712.468000", "111712.468000", "111712.468000", "111712.468000", "111712.468000", "111712.484000", "111712.484000", "111712.484000", "111732.421000", "111732.437000", "111732.437000", "111732.437000", "111732.437000", "111732.437000", "111732.437000", "111732.437000", "111732.437000", "111732.453000", "111732.453000", "111732.453000", "111732.453000", "111732.453000", "111732.453000", "111732.453000", "111732.468000", "111732.468000", "111732.468000", "111732.468000", "111732.468000", "111732.468000", "111732.468000", "111732.468000", "111732.484000", "111752.421000", "111752.437000", "111752.437000", "111752.437000", "111752.437000", "111752.437000", "111752.437000", "111752.437000", "111752.437000", "111752.453000", "111752.453000", "111752.453000", "111752.453000", "111752.453000", "111752.453000", "111752.453000", "111752.453000", "111752.468000", "111752.468000", "111752.468000", "111752.468000", "111752.468000", "111752.468000", "111752.468000", "111752.484000", "111752.484000", "111812.421000", "111812.437000", "111812.437000", "111812.437000", "111812.437000", "111812.437000", "111812.437000", "111812.437000", "111812.453000", "111812.453000", "111812.453000", "111812.453000", "111812.453000", "111812.453000", "111812.453000", "111812.468000", "111812.468000", "111812.468000", "111812.468000", "111812.468000", "111812.468000", "111812.468000", "111812.468000", "111812.484000", "111812.484000", "111832.421000", "111832.437000", "111832.437000", "111832.437000", "111832.437000", "111832.437000", "111832.437000", "111832.437000", "111832.437000", "111832.453000", "111832.453000", "111832.453000", "111832.453000", "111832.453000", "111832.453000", "111832.453000", "111832.468000", "111832.468000", "111832.468000", "111832.468000", "111832.468000", "111832.468000", "111832.468000", "111832.468000", "111832.484000", "111832.484000", "111852.421000", "111852.437000", "111852.437000", "111852.437000", "111852.437000", "111852.437000", "111852.437000", "111852.437000", "111852.437000", "111852.453000", "111852.453000", "111852.453000", "111852.453000", "111852.453000", "111852.453000", "111852.453000", "111852.468000", "111852.468000", "111852.468000", "111852.468000", "111852.468000", "111852.468000", "111852.468000", "111852.484000", "111852.484000", "111912.421000", "111912.437000", "111912.437000", "111912.437000", "111912.437000", "111912.437000", "111912.437000", "111912.437000", "111912.437000", "111912.453000", "111912.453000", "111912.453000", "111912.453000", "111912.453000", "111912.453000", "111912.453000", "111912.468000", "111912.468000", "111912.468000", "111912.468000", "111912.468000", "111912.468000", "111912.468000", "111912.468000", "111912.484000", "111912.484000", "111932.421000", "111932.437000", "111932.437000", "111932.437000", "111932.437000", "111932.437000", "111932.437000", "111932.437000", "111932.437000", "111932.453000", "111932.453000", "111932.453000", "111932.453000", "111932.453000", "111932.468000", "111932.468000", "111932.468000", "111932.468000", "111932.468000", "111932.468000", "111932.468000", "111932.484000", "111932.484000", "111932.484000", "111932.484000", "111952.421000", "111952.437000", "111952.437000", "111952.437000", "111952.437000", "111952.437000", "111952.453000", "111952.453000", "111952.453000", "111952.453000", "111952.453000", "111952.453000", "111952.468000", "111952.468000", "111952.468000", "111952.468000", "111952.468000", "111952.468000", "111952.468000", "111952.484000", "111952.484000", "111952.484000", "111952.484000", "111952.484000", "111952.484000", "112012.421000", "112012.437000", "112012.437000", "112012.437000", "112012.437000", "112012.437000", "112012.437000", "112012.437000", "112012.437000", "112012.453000", "112012.453000", "112012.453000", "112012.453000", "112012.453000", "112012.453000", "112012.453000", "112012.468000", "112012.468000", "112012.468000", "112012.468000", "112012.468000", "112012.468000", "112012.468000", "112012.468000", "112012.484000", "112012.484000", "112032.421000", "112032.437000", "112032.437000", "112032.437000", "112032.437000", "112032.437000", "112032.437000", "112032.437000", "112032.453000", "112032.453000", "112032.453000", "112032.453000", "112032.453000", "112032.453000", "112032.453000", "112032.468000", "112032.468000", "112032.468000", "112032.468000", "112032.468000", "112032.468000", "112032.468000", "112032.484000", "112032.484000", "112032.484000", "112052.421000", "112052.437000", "112052.437000", "112052.437000", "112052.437000", "112052.437000", "112052.437000", "112052.437000", "112052.437000", "112052.453000", "112052.453000", "112052.453000", "112052.453000", "112052.453000", "112052.453000", "112052.453000", "112052.468000", "112052.468000", "112052.468000", "112052.468000", "112052.468000", "112052.468000", "112052.468000", "112052.468000", "112052.484000", "112052.484000", "112112.421000", "112112.437000", "112112.437000", "112112.437000", "112112.437000", "112112.437000", "112112.437000", "112112.437000", "112112.437000", "112112.453000", "112112.453000", "112112.453000", "112112.453000", "112112.453000", "112112.453000", "112112.453000", "112112.468000", "112112.468000", "112112.468000", "112112.468000", "112112.468000", "112112.468000", "112112.468000", "112112.484000", "112112.484000", "112132.421000", "112132.437000", "112132.437000", "112132.437000", "112132.437000", "112132.437000", "112132.437000", "112132.437000", "112132.437000", "112132.453000", "112132.453000", "112132.453000", "112132.453000", "112132.453000", "112132.453000", "112132.453000", "112132.468000", "112132.468000", "112132.468000", "112132.468000", "112132.468000", "112132.468000", "112132.468000", "112132.468000", "112132.484000", "112132.484000", "112152.421000", "112152.437000", "112152.437000", "112152.437000", "112152.437000", "112152.437000", "112152.437000", "112152.437000", "112152.437000", "112152.453000", "112152.453000", "112152.453000", "112152.453000", "112152.453000", "112152.453000", "112152.453000", "112152.468000", "112152.468000", "112152.468000", "112152.468000", "112152.468000", "112152.468000", "112152.468000", "112152.468000", "112152.484000", "112212.421000", "112212.437000", "112212.437000", "112212.437000", "112212.437000", "112212.437000", "112212.437000", "112212.437000", "112212.437000", "112212.453000", "112212.453000", "112212.453000", "112212.453000", "112212.453000", "112212.453000", "112212.453000", "112212.468000", "112212.468000", "112212.468000", "112212.468000", "112212.468000", "112212.468000", "112212.468000", "112212.468000", "112212.484000", "112212.484000", "112232.421000", "112232.437000", "112232.437000", "112232.437000", "112232.437000", "112232.437000", "112232.437000", "112232.437000", "112232.437000", "112232.453000", "112232.453000", "112232.453000", "112232.453000", "112232.453000", "112232.453000", "112232.453000", "112232.468000", "112232.468000", "112232.468000", "112232.468000", "112232.468000", "112232.468000", "112232.468000", "112232.468000", "112232.484000", "112252.421000", "112252.437000", "112252.437000", "112252.437000", "112252.437000", "112252.437000", "112252.437000", "112252.437000", "112252.453000", "112252.453000", "112252.453000", "112252.453000", "112252.453000", "112252.453000", "112252.468000", "112252.468000", "112252.468000", "112252.468000", "112252.468000", "112252.468000", "112252.468000", "112252.468000", "112252.484000", "112252.484000", "112252.484000", "112252.484000", "112311.906000", "112311.921000", "112311.921000", "112311.921000", "112311.921000", "112311.921000", "112311.921000", "112311.921000", "112311.937000", "112311.937000", "112311.937000", "112311.937000", "112311.937000", "112311.937000", "112311.937000", "112311.937000", "112311.953000", "112311.953000", "112311.953000", "112311.953000", "112311.953000", "112311.953000", "112311.953000", "112311.968000", "112311.968000"],
