{
  "AcquisitionMatrixPE": 104,
  "AcquisitionNumber": 1,
  "AcquisitionTime": "14:13:12.492500",
  "BandwidthPerPixelPhaseEncode": 13.935,
  "BaseResolution": 104,
  "CoilString": "C:HEA;HEP",
  "ConversionSoftware": "dcm2niix",
  "ConversionSoftwareVersion": "v1.0.20210317",
  "DerivedVendorReportedEchoSpacing": 0.000690017,
  "DeviceSerialNumber": "35450",
  "DwellTime": 2.5e-06,
  "EchoTime": 0.0348,
  "EffectiveEchoSpacing": 0.000690017,
  "FlipAngle": 55,
  "ImageComments": "Unaliased MB8/PE3 (remote)",
  "ImageOrientationPatientDICOM": [0.997801, 0.00115672, 0.0662635, 4.72994e-08, 0.999848, -0.0174544],
  "ImageType": [
    "ORIGINAL",
    "PRIMARY",
    "M",
    "MB",
    "ND",
    "MOSAIC"
],
  "ImagingFrequency": 123.235,
  "InPlanePhaseEncodingDirectionDICOM": "COL",
  "InstitutionAddress": "Univeristy Ave. 197,Newark,North East,US,07102-1814",
  "InstitutionName": "RUBIC",
  "InstitutionalDepartmentName": "Department",
  "MRAcquisitionType": "2D",
  "MagneticFieldStrength": 3,
  "Manufacturer": "Siemens",
  "ManufacturersModelName": "TrioTim",
  "Modality": "MR",
  "MultibandAccelerationFactor": 8,
  "PartialFourier": 0.875,
  "PatientPosition": "HFS",
  "PercentPhaseFOV": 100,
  "PercentSampling": 100,
  "PhaseEncodingDirection": "j-",
  "PhaseEncodingSteps": 91,
  "PhaseResolution": 1,
  "PixelBandwidth": 1923,
  "ProcedureStepDescription": "Cole^Michael",
  "ProtocolName": "cmrr_mbep2d_bold_2mm_MB8_Rest",
  "PulseSequenceDetails": "%CustomerSeq%\\cmrr_mbep2d_bold",
  "ReceiveCoilName": "32Ch_Head",
  "ReconMatrixPE": 104,
  "RepetitionTime": 0.785,
  "SAR": 0.101983,
  "ScanOptions": "PFP\\FS",
  "ScanningSequence": "EP",
  "SequenceName": "epfid2d1_104",
  "SequenceVariant": "SK\\SS",
  "SeriesDescription": "cmrr_mbep2d_bold_2mm_MB8_Rest",
  "SeriesNumber": 9,
  "ShimSetting": [2197, -379, -7399, 626, 490, 155, -46, -207],
  "SliceThickness": 2,
  "SliceTiming": [0, 0.4375, 0.0875, 0.525, 0.175, 0.6125, 0.2625, 0.7, 0.35, 0, 0.4375, 0.0875, 0.525, 0.175, 0.6125, 0.2625, 0.7, 0.35, 0, 0.4375, 0.0875, 0.525, 0.175, 0.6125, 0.2625, 0.7, 0.35, 0, 0.4375, 0.0875, 0.525, 0.175, 0.6125, 0.2625, 0.7, 0.35, 0, 0.4375, 0.0875, 0.525, 0.175, 0.6125, 0.2625, 0.7, 0.35, 0, 0.4375, 0.0875, 0.525, 0.175, 0.6125, 0.2625, 0.7, 0.35, 0, 0.4375, 0.0875, 0.525, 0.175, 0.6125, 0.2625, 0.7, 0.35, 0, 0.4375, 0.0875, 0.525, 0.175, 0.6125, 0.2625, 0.7, 0.35],
  "SoftwareVersions": "syngo MR B19",
  "SpacingBetweenSlices": 2,
  "StationName": "MRC35450",
  "TaskName": "rest",
  "TotalReadoutTime": 0.0710717,
  "TxRefAmp": 316.291,
  "dcmmeta_affine": [
    [-1.9956029653549194, 9.459872529760105e-08, 0.1325472742319107, 102.09819793701172],
    [-0.002313438802957535, 1.9996953010559082, -0.03483206033706665, -87.06830596923828],
    [0.13252708315849304, 0.034908801317214966, 1.995298981666565, -101.67507934570312],
    [0.0, 0.0, 0.0, 1.0]
],
  "dcmmeta_reorient_transform": [
    [0.0, -1.0, 0.0, 103.0],
    [1.0, 0.0, 0.0, 0.0],
    [0.0, 0.0, 1.0, 0.0],
    [0.0, 0.0, 0.0, 1.0]
],
  "dcmmeta_shape": [104, 104, 72, 1070],
  "dcmmeta_slice_dim": 2,
  "dcmmeta_version": 0.6,
  "global": {
    "const": {
      "AcquisitionMatrix": [104, 0, 0, 104],
      "AngioFlag": "N",
      "BitsAllocated": 16,
      "BitsStored": 12,
      "Columns": 936,
      "EchoNumbers": 1,
      "EchoTime": 34.8,
      "EchoTrainLength": 1,
      "FlipAngle": 55.0,
      "HighBit": 11,
      "ImageOrientationPatient": [0.99780148591536, 0.0011567194104, 0.06626353978852, 4.7299361e-08, 0.99984766034013, -0.0174544009454],
      "ImagePositionPatient": [-932.26908598009, -951.73595973702, -138.68867274378],
      "ImageType": [
        "ORIGINAL",
        "PRIMARY",
        "M",
        "MB",
        "ND",
        "MOSAIC"
],
      "ImagedNucleus": "1H",
      "ImagingFrequency": 123.234557,
      "InPlanePhaseEncodingDirection": "COL",
      "MRAcquisitionType": "2D",
      "MagneticFieldStrength": 3.0,
      "Manufacturer": "SIEMENS",
      "ManufacturerModelName": "TrioTim",
      "Modality": "MR",
      "NumberOfAverages": 1.0,
      "NumberOfPhaseEncodingSteps": 91,
      "PercentPhaseFieldOfView": 100.0,
      "PercentSampling": 100.0,
      "PerformedProcedureStepStartTime": "133611.562000",
      "PhotometricInterpretation": "MONOCHROME2",
      "PixelBandwidth": 1923.0,
      "PixelRepresentation": 0,
      "PixelSpacing": [2.0, 2.0],
      "ProtocolName": "cmrr_mbep2d_bold_2mm_MB8_Rest",
      "RepetitionTime": 785.0,
      "Rows": 936,
      "SAR": 0.10198293695663,
      "SamplesPerPixel": 1,
      "ScanOptions": [
        "PFP",
        "FS"
],
      "ScanningSequence": "EP",
      "SequenceName": "epfid2d1_104",
      "SequenceVariant": [
        "SK",
        "SS"
],
      "SeriesDescription": "cmrr_mbep2d_bold_2mm_MB8_Rest",
      "SeriesNumber": 9,
      "SeriesTime": "141322.921000",
      "SliceLocation": -93.153283555149,
      "SliceThickness": 2.0,
      "SmallestImagePixelValue": 0,
      "SoftwareVersions": "syngo MR B19",
      "SpacingBetweenSlices": 1.9999999875062,
      "SpecificCharacterSet": "ISO_IR 100",
      "StudyID": "1",
      "StudyTime": "133611.500000",
      "TransmitCoilName": "Body",
      "VariableFlipAngleFlag": "N",
      "WindowCenterWidthExplanation": "Algo1",
      "dBdt": 0.0},
    "slices": {}
  },
  "time": {
    "samples": {
      "AcquisitionNumber": [1, 2, 3, 4, 5, 6, 7, 8, 9, 10, 11, 12, 13, 14, 15, 16, 17, 18, 19, 20, 21, 22, 23, 24, 25, 26, 27, 28, 29, 30, 31, 32, 33, 34, 35, 36, 37, 38, 39, 40, 41, 42, 43, 44, 45, 46, 47, 48, 49, 50, 51, 52, 53, 54, 55, 56, 57, 58, 59, 60, 61, 62, 63, 64, 65, 66, 67, 68, 69, 70, 71, 72, 73, 74, 75, 76, 77, 78, 79, 80, 81, 82, 83, 84, 85, 86, 87, 88, 89, 90, 91, 92, 93, 94, 95, 96, 97, 98, 99, 100, 101, 102, 103, 104, 105, 106, 107, 108, 109, 110, 111, 112, 113, 114, 115, 116, 117, 118, 119, 120, 121, 122, 123, 124, 125, 126, 127, 128, 129, 130, 131, 132, 133, 134, 135, 136, 137, 138, 139, 140, 141, 142, 143, 144, 145, 146, 147, 148, 149, 150, 151, 152, 153, 154, 155, 156, 157, 158, 159, 160, 161, 162, 163, 164, 165, 166, 167, 168, 169, 170, 171, 172, 173, 174, 175, 176, 177, 178, 179, 180, 181, 182, 183, 184, 185, 186, 187, 188, 189, 190, 191, 192, 193, 194, 195, 196, 197, 198, 199, 200, 201, 202, 203, 204, 205, 206, 207, 208, 209, 210, 211, 212, 213, 214, 215, 216, 217, 218, 219, 220, 221, 222, 223, 224, 225, 226, 227, 228, 229, 230, 231, 232, 233, 234, 235, 236, 237, 238, 239, 240, 241, 242, 243, 244, 245, 246, 247, 248, 249, 250, 251, 252, 253, 254, 255, 256, 257, 258, 259, 260, 261, 262, 263, 264, 265, 266, 267, 268, 269, 270, 271, 272, 273, 274, 275, 276, 277, 278, 279, 280, 281, 282, 283, 284, 285, 286, 287, 288, 289, 290, 291, 292, 293, 294, 295, 296, 297, 298, 299, 300, 301, 302, 303, 304, 305, 306, 307, 308, 309, 310, 311, 312, 313, 314, 315, 316, 317, 318, 319, 320, 321, 322, 323, 324, 325, 326, 327, 328, 329, 330, 331, 332, 333, 334, 335, 336, 337, 338, 339, 340, 341, 342, 343, 344, 345, 346, 347, 348, 349, 350, 351, 352, 353, 354, 355, 356, 357, 358, 359, 360, 361, 362, 363, 364, 365, 366, 367, 368, 369, 370, 371, 372, 373, 374, 375, 376, 377, 378, 379, 380, 381, 382, 383, 384, 385, 386, 387, 388, 389, 390, 391, 392, 393, 394, 395, 396, 397, 398, 399, 400, 401, 402, 403, 404, 405, 406, 407, 408, 409, 410, 411, 412, 413, 414, 415, 416, 417, 418, 419, 420, 421, 422, 423, 424, 425, 426, 427, 428, 429, 430, 431, 432, 433, 434, 435, 436, 437, 438, 439, 440, 441, 442, 443, 444, 445, 446, 447, 448, 449, 450, 451, 452, 453, 454, 455, 456, 457, 458, 459, 460, 461, 462, 463, 464, 465, 466, 467, 468, 469, 470, 471, 472, 473, 474, 475, 476, 477, 478, 479, 480, 481, 482, 483, 484, 485, 486, 487, 488, 489, 490, 491, 492, 493, 494, 495, 496, 497, 498, 499, 500, 501, 502, 503, 504, 505, 506, 507, 508, 509, 510, 511, 512, 513, 514, 515, 516, 517, 518, 519, 520, 521, 522, 523, 524, 525, 526, 527, 528, 529, 530, 531, 532, 533, 534, 535, 536, 537, 538, 539, 540, 541, 542, 543, 544, 545, 546, 547, 548, 549, 550, 551, 552, 553, 554, 555, 556, 557, 558, 559, 560, 561, 562, 563, 564, 565, 566, 567, 568, 569, 570, 571, 572, 573, 574, 575, 576, 577, 578, 579, 580, 581, 582, 583, 584, 585, 586, 587, 588, 589, 590, 591, 592, 593, 594, 595, 596, 597, 598, 599, 600, 601, 602, 603, 604, 605, 606, 607, 608, 609, 610, 611, 612, 613, 614, 615, 616, 617, 618, 619, 620, 621, 622, 623, 624, 625, 626, 627, 628, 629, 630, 631, 632, 633, 634, 635, 636, 637, 638, 639, 640, 641, 642, 643, 644, 645, 646, 647, 648, 649, 650, 651, 652, 653, 654, 655, 656, 657, 658, 659, 660, 661, 662, 663, 664, 665, 666, 667, 668, 669, 670, 671, 672, 673, 674, 675, 676, 677, 678, 679, 680, 681, 682, 683, 684, 685, 686, 687, 688, 689, 690, 691, 692, 693, 694, 695, 696, 697, 698, 699, 700, 701, 702, 703, 704, 705, 706, 707, 708, 709, 710, 711, 712, 713, 714, 715, 716, 717, 718, 719, 720, 721, 722, 723, 724, 725, 726, 727, 728, 729, 730, 731, 732, 733, 734, 735, 736, 737, 738, 739, 740, 741, 742, 743, 744, 745, 746, 747, 748, 749, 750, 751, 752, 753, 754, 755, 756, 757, 758, 759, 760, 761, 762, 763, 764, 765, 766, 767, 768, 769, 770, 771, 772, 773, 774, 775, 776, 777, 778, 779, 780, 781, 782, 783, 784, 785, 786, 787, 788, 789, 790, 791, 792, 793, 794, 795, 796, 797, 798, 799, 800, 801, 802, 803, 804, 805, 806, 807, 808, 809, 810, 811, 812, 813, 814, 815, 816, 817, 818, 819, 820, 821, 822, 823, 824, 825, 826, 827, 828, 829, 830, 831, 832, 833, 834, 835, 836, 837, 838, 839, 840, 841, 842, 843, 844, 845, 846, 847, 848, 849, 850, 851, 852, 853, 854, 855, 856, 857, 858, 859, 860, 861, 862, 863, 864, 865, 866, 867, 868, 869, 870, 871, 872, 873, 874, 875, 876, 877, 878, 879, 880, 881, 882, 883, 884, 885, 886, 887, 888, 889, 890, 891, 892, 893, 894, 895, 896, 897, 898, 899, 900, 901, 902, 903, 904, 905, 906, 907, 908, 909, 910, 911, 912, 913, 914, 915, 916, 917, 918, 919, 920, 921, 922, 923, 924, 925, 926, 927, 928, 929, 930, 931, 932, 933, 934, 935, 936, 937, 938, 939, 940, 941, 942, 943, 944, 945, 946, 947, 948, 949, 950, 951, 952, 953, 954, 955, 956, 957, 958, 959, 960, 961, 962, 963, 964, 965, 966, 967, 968, 969, 970, 971, 972, 973, 974, 975, 976, 977, 978, 979, 980, 981, 982, 983, 984, 985, 986, 987, 988, 989, 990, 991, 992, 993, 994, 995, 996, 997, 998, 999, 1000, 1001, 1002, 1003, 1004, 1005, 1006, 1007, 1008, 1009, 1010, 1011, 1012, 1013, 1014, 1015, 1016, 1017, 1018, 1019, 1020, 1021, 1022, 1023, 1024, 1025, 1026, 1027, 1028, 1029, 1030, 1031, 1032, 1033, 1034, 1035, 1036, 1037, 1038, 1039, 1040, 1041, 1042, 1043, 1044, 1045, 1046, 1047, 1048, 1049, 1050, 1051, 1052, 1053, 1054, 1055, 1056, 1057, 1058, 1059, 1060, 1061, 1062, 1063, 1064, 1065, 1066, 1067, 1068, 1069, 1070],
      "AcquisitionTime": ["141312.492500", "141313.280000", "141314.070000", "141314.857500", "141315.645000", "141316.432500", "141317.222500", "141318.010000", "141318.797500", "141319.585000", "141320.375000", "141321.162500", "141321.950000", "141322.737500", "141323.527500", "141324.315000", "141325.102500", "141325.892500", "141326.680000", "141327.467500", "141328.255000", "141329.045000", "141329.832500", "141330.620000", "141331.407500", "141332.197500", "141332.985000", "141333.772500", "141334.560000", "141335.350000", "141336.137500", "141336.925000", "141337.712500", "141338.502500", "141339.290000", "141340.077500", "141340.865000", "141341.655000", "141342.442500", "141343.230000", "141344.020000", "141344.807500", "141345.595000", "141346.382500", "141347.172500", "141347.960000", "141348.747500", "141349.535000", "141350.325000", "141351.112500", "141351.900000", "141352.687500", "141353.477500", "141354.265000", "141355.052500", "141355.840000", "141356.630000", "141357.417500", "141358.205000", "141358.992500", "141359.782500", "141400.570000", "141401.357500", "141402.147500", "141402.935000", "141403.722500", "141404.510000", "141405.300000", "141406.087500", "141406.875000", "141407.662500", "141408.452500", "141409.240000", "141410.027500", "141410.815000", "141411.605000", "141412.392500", "141413.180000", "141413.967500", "141414.757500", "141415.545000", "141416.332500", "141417.120000", "141417.910000", "141418.697500", "141419.485000", "141420.275000", "141421.062500", "141421.850000", "141422.637500", "141423.427500", "141424.215000", "141425.002500", "141425.790000", "141426.580000", "141427.367500", "141428.155000", "141428.942500", "141429.732500", "141430.520000", "141431.307500", "141432.095000", "141432.885000", "141433.672500", "141434.460000", "141435.250000", "141436.037500", "141436.825000", "141437.612500", "141438.402500", "141439.190000", "141439.977500", "141440.765000", "141441.555000", "141442.342500", "141443.130000", "141443.917500", "141444.707500", "141445.495000", "141446.282500", "141447.070000", "141447.860000", "141448.647500", "141449.435000", "141450.222500", "141451.012500", "141451.800000", "141452.587500", "141453.377500", "141454.165000", "141454.952500", "141455.740000", "141456.530000", "141457.317500", "141458.105000", "141458.892500", "141459.682500", "141500.470000", "141501.257500", "141502.045000", "141502.835000", "141503.622500", "141504.410000", "141505.197500", "141505.987500", "141506.775000", "141507.562500", "141508.350000", "141509.140000", "141509.927500", "141510.715000", "141511.505000", "141512.292500", "141513.080000", "141513.867500", "141514.657500", "141515.445000", "141516.232500", "141517.020000", "141517.810000", "141518.597500", "141519.385000", "141520.172500", "141520.962500", "141521.750000", "141522.537500", "141523.325000", "141524.115000", "141524.902500", "141525.690000", "141526.477500", "141527.267500", "141528.055000", "141528.842500", "141529.632500", "141530.420000", "141531.207500", "141531.995000", "141532.785000", "141533.572500", "141534.360000", "141535.147500", "141535.937500", "141536.725000", "141537.512500", "141538.300000", "141539.090000", "141539.877500", "141540.665000", "141541.452500", "141542.242500", "141543.030000", "141543.817500", "141544.605000", "141545.395000", "141546.182500", "141546.970000", "141547.760000", "141548.547500", "141549.335000", "141550.122500", "141550.912500", "141551.700000", "141552.487500", "141553.275000", "141554.065000", "141554.852500", "141555.640000", "141556.427500", "141557.217500", "141558.005000", "141558.792500", "141559.580000", "141600.370000", "141601.157500", "141601.945000", "141602.732500", "141603.522500", "141604.310000", "141605.097500", "141605.887500", "141606.675000", "141607.462500", "141608.250000", "141609.040000", "141609.827500", "141610.615000", "141611.402500", "141612.192500", "141612.980000", "141613.767500", "141614.555000", "141615.345000", "141616.132500", "141616.920000", "141617.707500", "141618.497500", "141619.285000", "141620.072500", "141620.860000", "141621.650000", "141622.437500", "141623.225000", "141624.015000", "141624.802500", "141625.590000", "141626.377500", "141627.167500", "141627.955000", "141628.742500", "141629.530000", "141630.320000", "141631.107500", "141631.895000", "141632.682500", "141633.472500", "141634.260000", "141635.047500", "141635.835000", "141636.625000", "141637.412500", "141638.200000", "141638.987500", "141639.777500", "141640.565000", "141641.352500", "141642.142500", "141642.930000", "141643.717500", "141644.505000", "141645.295000", "141646.082500", "141646.870000", "141647.657500", "141648.447500", "141649.235000", "141650.022500", "141650.810000", "141651.600000", "141652.387500", "141653.175000", "141653.962500", "141654.752500", "141655.540000", "141656.327500", "141657.115000", "141657.905000", "141658.692500", "141659.480000", "141700.270000", "141701.057500", "141701.845000", "141702.632500", "141703.422500", "141704.210000", "141704.997500", "141705.785000", "141706.575000", "141707.362500", "141708.150000", "141708.937500", "141709.727500", "141710.515000", "141711.302500", "141712.090000", "141712.880000", "141713.667500", "141714.455000", "141715.242500", "141716.032500", "141716.820000", "141717.607500", "141718.397500", "141719.185000", "141719.972500", "141720.760000", "141721.550000", "141722.337500", "141723.125000", "141723.912500", "141724.702500", "141725.490000", "141726.277500", "141727.065000", "141727.855000", "141728.642500", "141729.430000", "141730.217500", "141731.007500", "141731.795000", "141732.582500", "141733.370000", "141734.160000", "141734.947500", "141735.735000", "141736.525000", "141737.312500", "141738.100000", "141738.887500", "141739.677500", "141740.465000", "141741.252500", "141742.040000", "141742.830000", "141743.617500", "141744.405000", "141745.192500", "141745.982500", "141746.770000", "141747.557500", "141748.345000", "141749.135000", "141749.922500", "141750.710000", "141751.500000", "141752.287500", "141753.075000", "141753.862500", "141754.652500", "141755.440000", "141756.227500", "141757.015000", "141757.805000", "141758.592500", "141759.380000", "141800.167500", "141800.957500", "141801.745000", "141802.532500", "141803.320000", "141804.110000", "141804.897500", "141805.685000", "141806.472500", "141807.262500", "141808.050000", "141808.837500", "141809.627500", "141810.415000", "141811.202500", "141811.990000", "141812.780000", "141813.567500", "141814.355000", "141815.142500", "141815.932500", "141816.720000", "141817.507500", "141818.295000", "141819.085000", "141819.872500", "141820.660000", "141821.447500", "141822.237500", "141823.025000", "141823.812500", "141824.600000", "141825.390000", "141826.177500", "141826.965000", "141827.755000", "141828.542500", "141829.330000", "141830.117500", "141830.907500", "141831.695000", "141832.482500", "141833.270000", "141834.060000", "141834.847500", "141835.635000", "141836.422500", "141837.212500", "141838.000000", "141838.787500", "141839.575000", "141840.365000", "141841.152500", "141841.940000", "141842.727500", "141843.517500", "141844.305000", "141845.092500", "141845.882500", "141846.670000", "141847.457500", "141848.245000", "141849.035000", "141849.822500", "141850.610000", "141851.397500", "141852.187500", "141852.975000", "141853.762500", "141854.550000", "141855.340000", "141856.127500", "141856.915000", "141857.702500", "141858.492500", "141859.280000", "141900.067500", "141900.855000", "141901.645000", "141902.432500", "141903.220000", "141904.010000", "141904.797500", "141905.585000", "141906.372500", "141907.162500", "141907.950000", "141908.737500", "141909.525000", "141910.315000", "141911.102500", "141911.890000", "141912.677500", "141913.467500", "141914.255000", "141915.042500", "141915.830000", "141916.620000", "141917.407500", "141918.195000", "141918.982500", "141919.772500", "141920.560000", "141921.347500", "141922.137500", "141922.925000", "141923.712500", "141924.500000", "141925.290000", "141926.077500", "141926.865000", "141927.652500", "141928.442500", "141929.230000", "141930.017500", "141930.805000", "141931.595000", "141932.382500", "141933.170000", "141933.957500", "141934.747500", "141935.535000", "141936.322500", "141937.110000", "141937.900000", "141938.687500", "141939.475000", "141940.265000", "141941.052500", "141941.840000", "141942.627500", "141943.417500", "141944.205000", "141944.992500", "141945.780000", "141946.570000", "141947.357500", "141948.145000", "141948.932500", "141949.722500", "141950.510000", "141951.297500", "141952.085000", "141952.875000", "141953.662500", "141954.450000", "141955.237500", "141956.027500", "141956.815000", "141957.602500", "141958.392500", "141959.180000", "141959.967500", "142000.755000", "142001.545000", "142002.332500", "142003.120000", "142003.907500", "142004.697500", "142005.485000", "142006.272500", "142007.060000", "142007.850000", "142008.637500", "142009.425000", "142010.212500", "142011.002500", "142011.790000", "142012.577500", "142013.365000", "142014.155000", "142014.942500", "142015.730000", "142016.520000", "142017.307500", "142018.095000", "142018.882500", "142019.672500", "142020.460000", "142021.247500", "142022.035000", "142022.825000", "142023.612500", "142024.400000", "142025.187500", "142025.977500", "142026.765000", "142027.552500", "142028.340000", "142029.130000", "142029.917500", "142030.705000", "142031.492500", "142032.282500", "142033.070000", "142033.857500", "142034.647500", "142035.435000", "142036.222500", "142037.010000", "142037.800000", "142038.587500", "142039.375000", "142040.162500", "142040.952500", "142041.740000", "142042.527500", "142043.315000", "142044.105000", "142044.892500", "142045.680000", "142046.467500", "142047.257500", "142048.045000", "142048.832500", "142049.620000", "142050.410000", "142051.197500", "142051.985000", "142052.775000", "142053.562500", "142054.350000", "142055.137500", "142055.927500", "142056.715000", "142057.502500", "142058.290000", "142059.080000", "142059.867500", "142100.655000", "142101.442500", "142102.232500", "142103.020000", "142103.807500", "142104.595000", "142105.385000", "142106.172500", "142106.960000", "142107.750000", "142108.537500", "142109.325000", "142110.112500", "142110.902500", "142111.690000", "142112.477500", "142113.265000", "142114.055000", "142114.842500", "142115.630000", "142116.417500", "142117.207500", "142117.995000", "142118.782500", "142119.570000", "142120.360000", "142121.147500", "142121.935000", "142122.722500", "142123.512500", "142124.300000", "142125.087500", "142125.877500", "142126.665000", "142127.452500", "142128.240000", "142129.030000", "142129.817500", "142130.605000", "142131.392500", "142132.182500", "142132.970000", "142133.757500", "142134.545000", "142135.335000", "142136.122500", "142136.910000", "142137.697500", "142138.487500", "142139.275000", "142140.062500", "142140.850000", "142141.640000", "142142.427500", "142143.215000", "142144.005000", "142144.792500", "142145.580000", "142146.367500", "142147.157500", "142147.945000", "142148.732500", "142149.520000", "142150.310000", "142151.097500", "142151.885000", "142152.672500", "142153.462500", "142154.250000", "142155.037500", "142155.825000", "142156.615000", "142157.402500", "142158.190000", "142158.977500", "142159.767500", "142200.555000", "142201.342500", "142202.132500", "142202.920000", "142203.707500", "142204.495000", "142205.285000", "142206.072500", "142206.860000", "142207.647500", "142208.437500", "142209.225000", "142210.012500", "142210.800000", "142211.590000", "142212.377500", "142213.165000", "142213.952500", "142214.742500", "142215.530000", "142216.317500", "142217.105000", "142217.895000", "142218.682500", "142219.470000", "142220.260000", "142221.047500", "142221.835000", "142222.622500", "142223.412500", "142224.200000", "142224.987500", "142225.775000", "142226.565000", "142227.352500", "142228.140000", "142228.927500", "142229.717500", "142230.505000", "142231.292500", "142232.080000", "142232.870000", "142233.657500", "142234.445000", "142235.232500", "142236.022500", "142236.810000", "142237.597500", "142238.387500", "142239.175000", "142239.962500", "142240.750000", "142241.540000", "142242.327500", "142243.115000", "142243.902500", "142244.692500", "142245.480000", "142246.267500", "142247.055000", "142247.845000", "142248.632500", "142249.420000", "142250.207500", "142250.997500", "142251.785000", "142252.572500", "142253.360000", "142254.150000", "142254.937500", "142255.725000", "142256.515000", "142257.302500", "142258.090000", "142258.877500", "142259.667500", "142300.455000", "142301.242500", "142302.030000", "142302.820000", "142303.607500", "142304.395000", "142305.182500", "142305.972500", "142306.760000", "142307.547500", "142308.335000", "142309.125000", "142309.912500", "142310.700000", "142311.487500", "142312.277500", "142313.065000", "142313.852500", "142314.642500", "142315.430000", "142316.217500", "142317.005000", "142317.795000", "142318.582500", "142319.370000", "142320.157500", "142320.947500", "142321.735000", "142322.522500", "142323.310000", "142324.100000", "142324.887500", "142325.675000", "142326.462500", "142327.252500", "142328.040000", "142328.827500", "142329.615000", "142330.405000", "142331.192500", "142331.980000", "142332.770000", "142333.557500", "142334.345000", "142335.132500", "142335.922500", "142336.710000", "142337.497500", "142338.285000", "142339.075000", "142339.862500", "142340.650000", "142341.437500", "142342.227500", "142343.015000", "142343.802500", "142344.590000", "142345.380000", "142346.167500", "142346.955000", "142347.742500", "142348.532500", "142349.320000", "142350.107500", "142350.897500", "142351.685000", "142352.472500", "142353.260000", "142354.050000", "142354.837500", "142355.625000", "142356.412500", "142357.202500", "142357.990000", "142358.777500", "142359.565000", "142400.355000", "142401.142500", "142401.930000", "142402.717500", "142403.507500", "142404.295000", "142405.082500", "142405.870000", "142406.660000", "142407.447500", "142408.235000", "142409.025000", "142409.812500", "142410.600000", "142411.387500", "142412.177500", "142412.965000", "142413.752500", "142414.540000", "142415.330000", "142416.117500", "142416.905000", "142417.692500", "142418.482500", "142419.270000", "142420.057500", "142420.845000", "142421.635000", "142422.422500", "142423.210000", "142424.000000", "142424.787500", "142425.575000", "142426.362500", "142427.152500", "142427.940000", "142428.727500", "142429.515000", "142430.305000", "142431.092500", "142431.880000", "142432.667500", "142433.457500", "142434.245000", "142435.032500", "142435.820000", "142436.610000", "142437.397500", "142438.185000", "142438.972500", "142439.762500", "142440.550000", "142441.337500", "142442.127500", "142442.915000", "142443.702500", "142444.490000", "142445.280000", "142446.067500", "142446.855000", "142447.642500", "142448.432500", "142449.220000", "142450.007500", "142450.795000", "142451.585000", "142452.372500", "142453.160000", "142453.947500", "142454.737500", "142455.525000", "142456.312500", "142457.100000", "142457.890000", "142458.677500", "142459.465000", "142500.255000", "142501.042500", "142501.830000", "142502.617500", "142503.407500", "142504.195000", "142504.982500", "142505.770000", "142506.560000", "142507.347500", "142508.135000", "142508.922500", "142509.712500", "142510.500000", "142511.287500", "142512.075000", "142512.865000", "142513.652500", "142514.440000", "142515.227500", "142516.017500", "142516.805000", "142517.592500", "142518.382500", "142519.170000", "142519.957500", "142520.745000", "142521.535000", "142522.322500", "142523.110000", "142523.897500", "142524.687500", "142525.475000", "142526.262500", "142527.050000", "142527.840000", "142528.627500", "142529.415000", "142530.202500", "142530.992500", "142531.780000", "142532.567500", "142533.355000", "142534.145000", "142534.932500", "142535.720000", "142536.510000", "142537.297500", "142538.085000", "142538.872500", "142539.662500", "142540.450000", "142541.237500", "142542.025000", "142542.815000", "142543.602500", "142544.390000", "142545.177500", "142545.967500", "142546.755000", "142547.542500", "142548.330000", "142549.120000", "142549.907500", "142550.695000", "142551.482500", "142552.272500", "142553.060000", "142553.847500", "142554.637500", "142555.425000", "142556.212500", "142557.000000", "142557.790000", "142558.577500", "142559.365000", "142600.152500", "142600.942500", "142601.730000", "142602.517500", "142603.305000", "142604.095000", "142604.882500", "142605.670000", "142606.457500", "142607.247500", "142608.035000", "142608.822500", "142609.610000", "142610.400000", "142611.187500", "142611.975000", "142612.765000", "142613.552500", "142614.340000", "142615.127500", "142615.917500", "142616.705000", "142617.492500", "142618.280000", "142619.070000", "142619.857500", "142620.645000", "142621.432500", "142622.222500", "142623.010000", "142623.797500", "142624.585000", "142625.375000", "142626.162500", "142626.950000", "142627.737500", "142628.527500", "142629.315000", "142630.102500", "142630.892500", "142631.680000", "142632.467500", "142633.255000", "142634.045000", "142634.832500", "142635.620000", "142636.407500", "142637.197500", "142637.985000", "142638.772500", "142639.560000", "142640.350000", "142641.137500", "142641.925000", "142642.712500", "142643.502500", "142644.290000", "142645.077500", "142645.865000", "142646.655000", "142647.442500", "142648.230000", "142649.020000", "142649.807500", "142650.595000", "142651.382500", "142652.172500", "142652.960000", "142653.747500", "142654.535000", "142655.325000", "142656.112500", "142656.900000", "142657.687500", "142658.477500", "142659.265000", "142700.052500", "142700.840000", "142701.630000", "142702.417500", "142703.205000", "142703.992500", "142704.782500", "142705.570000", "142706.357500", "142707.147500", "142707.935000", "142708.722500", "142709.510000", "142710.300000", "142711.087500", "142711.875000", "142712.662500", "142713.452500", "142714.240000", "142715.027500"],
