{
  "AcquisitionMatrixPE": 104,
  "AcquisitionNumber": 1,
  "AcquisitionTime": "14:32:21.697500",
  "BandwidthPerPixelPhaseEncode": 13.935,
  "BaseResolution": 104,
  "CoilString": "C:HEA;HEP",
  "ConversionSoftware": "dcm2niix",
  "ConversionSoftwareVersion": "v1.0.20210317",
  "DerivedVendorReportedEchoSpacing": 0.000690017,
  "DeviceSerialNumber": "35450",
  "DwellTime": 2.5e-06,
  "EchoTime": 0.0348,
  "EffectiveEchoSpacing": 0.000690017,
  "FlipAngle": 55,
  "ImageComments": "Unaliased MB8/PE3 (remote)",
  "ImageOrientationPatientDICOM": [1, 0, 0, 0, 1, 0],
  "ImageType": [
    "ORIGINAL",
    "PRIMARY",
    "M",
    "MB",
    "ND",
    "MOSAIC"
],
  "ImagingFrequency": 123.234,
  "InPlanePhaseEncodingDirectionDICOM": "COL",
  "InstitutionAddress": "Univeristy Ave. 197,Newark,North East,US,07102-1814",
  "InstitutionName": "RUBIC",
  "InstitutionalDepartmentName": "Department",
  "MRAcquisitionType": "2D",
  "MagneticFieldStrength": 3,
  "Manufacturer": "Siemens",
  "ManufacturersModelName": "TrioTim",
  "Modality": "MR",
  "MultibandAccelerationFactor": 8,
  "PartialFourier": 0.875,
  "PatientPosition": "HFS",
  "PercentPhaseFOV": 100,
  "PercentSampling": 100,
  "PhaseEncodingDirection": "j-",
  "PhaseEncodingSteps": 91,
  "PhaseResolution": 1,
  "PixelBandwidth": 1923,
  "ProcedureStepDescription": "Cole^Michael",
  "ProtocolName": "cmrr_mbep2d_bold_2mm_MB8_Task_8x",
  "PulseSequenceDetails": "%CustomerSeq%\\cmrr_mbep2d_bold",
  "ReceiveCoilName": "32Ch_Head",
  "ReconMatrixPE": 104,
  "RepetitionTime": 0.785,
  "SAR": 0.15914,
  "ScanOptions": "PFP\\FS",
  "ScanningSequence": "EP",
  "SequenceName": "epfid2d1_104",
  "SequenceVariant": "SK\\SS",
  "SeriesDescription": "cmrr_mbep2d_bold_2mm_MB8_Task_8x",
  "SeriesNumber": 23,
  "ShimSetting": [2086, -427, -7316, 565, 14, -474, 295, 14],
  "SliceThickness": 2,
  "SliceTiming": [0, 0.4375, 0.0875, 0.525, 0.175, 0.6125, 0.2625, 0.7, 0.35, 0, 0.4375, 0.0875, 0.525, 0.175, 0.6125, 0.2625, 0.7, 0.35, 0, 0.4375, 0.0875, 0.525, 0.175, 0.6125, 0.2625, 0.7, 0.35, 0, 0.4375, 0.0875, 0.525, 0.175, 0.6125, 0.2625, 0.7, 0.35, 0, 0.4375, 0.0875, 0.525, 0.175, 0.6125, 0.2625, 0.7, 0.35, 0, 0.4375, 0.0875, 0.525, 0.175, 0.6125, 0.2625, 0.7, 0.35, 0, 0.4375, 0.0875, 0.525, 0.175, 0.6125, 0.2625, 0.7, 0.35, 0, 0.4375, 0.0875, 0.525, 0.175, 0.6125, 0.2625, 0.7, 0.35],
  "SoftwareVersions": "syngo MR B19",
  "SpacingBetweenSlices": 2,
  "StationName": "MRC35450",
  "TaskName": "cpro",
  "TotalReadoutTime": 0.0710717,
  "TxRefAmp": 348.542,
  "dcmmeta_affine": [
    [-2.0, 0.0, 0.0, 103.97078704833984],
    [0.0, 2.0, 0.0, -96.42138671875],
    [0.0, 0.0, 2.0, -91.45520782470703],
    [0.0, 0.0, 0.0, 1.0]
],
  "dcmmeta_reorient_transform": [
    [0.0, -1.0, 0.0, 103.0],
    [1.0, 0.0, 0.0, 0.0],
    [0.0, 0.0, 1.0, 0.0],
    [0.0, 0.0, 0.0, 1.0]
],
  "dcmmeta_shape": [104, 104, 72, 581],
  "dcmmeta_slice_dim": 2,
  "dcmmeta_version": 0.6,
  "global": {
    "const": {
      "AcquisitionMatrix": [104, 0, 0, 104],
      "AngioFlag": "N",
      "BitsAllocated": 16,
      "BitsStored": 12,
      "Columns": 936,
      "EchoNumbers": 1,
      "EchoTime": 34.8,
      "EchoTrainLength": 1,
      "FlipAngle": 55.0,
      "HighBit": 11,
      "ImageOrientationPatient": [1.0, 0.0, 0.0, 0.0, 1.0, 0.0],
      "ImagePositionPatient": [-935.97078990191, -941.57861614227, -91.455207824707],
      "ImageType": [
        "ORIGINAL",
        "PRIMARY",
        "M",
        "MB",
        "ND",
        "MOSAIC"
],
      "ImagedNucleus": "1H",
      "ImagingFrequency": 123.234397,
      "InPlanePhaseEncodingDirection": "COL",
      "MRAcquisitionType": "2D",
      "MagneticFieldStrength": 3.0,
      "Manufacturer": "SIEMENS",
      "ManufacturerModelName": "TrioTim",
      "Modality": "MR",
      "NumberOfAverages": 1.0,
      "NumberOfPhaseEncodingSteps": 91,
      "PercentPhaseFieldOfView": 100.0,
      "PercentSampling": 100.0,
      "PerformedProcedureStepStartTime": "122804.484000",
      "PhotometricInterpretation": "MONOCHROME2",
      "PixelBandwidth": 1923.0,
      "PixelRepresentation": 0,
      "PixelSpacing": [2.0, 2.0],
      "ProtocolName": "cmrr_mbep2d_bold_2mm_MB8_Task_8x",
      "RepetitionTime": 785.0,
      "Rows": 936,
      "SAR": 0.15913971219592,
      "SamplesPerPixel": 1,
      "ScanOptions": [
        "PFP",
        "FS"
],
      "ScanningSequence": "EP",
      "SequenceName": "epfid2d1_104",
      "SequenceVariant": [
        "SK",
        "SS"
],
      "SeriesDescription": "cmrr_mbep2d_bold_2mm_MB8_Task_8x",
      "SeriesNumber": 23,
      "SeriesTime": "143246.703000",
      "SliceLocation": -91.455207824707,
      "SliceThickness": 2.0,
      "SmallestImagePixelValue": 0,
      "SoftwareVersions": "syngo MR B19",
      "SpacingBetweenSlices": 2.0,
      "SpecificCharacterSet": "ISO_IR 100",
      "StudyID": "1",
      "StudyTime": "122804.390000",
      "TransmitCoilName": "Body",
      "VariableFlipAngleFlag": "N",
      "WindowCenterWidthExplanation": "Algo1",
      "dBdt": 0.0},
    "slices": {}
  },
  "time": {
    "samples": {
      "AcquisitionNumber": [1, 2, 3, 4, 5, 6, 7, 8, 9, 10, 11, 12, 13, 14, 15, 16, 17, 18, 19, 20, 21, 22, 23, 24, 25, 26, 27, 28, 29, 30, 31, 32, 33, 34, 35, 36, 37, 38, 39, 40, 41, 42, 43, 44, 45, 46, 47, 48, 49, 50, 51, 52, 53, 54, 55, 56, 57, 58, 59, 60, 61, 62, 63, 64, 65, 66, 67, 68, 69, 70, 71, 72, 73, 74, 75, 76, 77, 78, 79, 80, 81, 82, 83, 84, 85, 86, 87, 88, 89, 90, 91, 92, 93, 94, 95, 96, 97, 98, 99, 100, 101, 102, 103, 104, 105, 106, 107, 108, 109, 110, 111, 112, 113, 114, 115, 116, 117, 118, 119, 120, 121, 122, 123, 124, 125, 126, 127, 128, 129, 130, 131, 132, 133, 134, 135, 136, 137, 138, 139, 140, 141, 142, 143, 144, 145, 146, 147, 148, 149, 150, 151, 152, 153, 154, 155, 156, 157, 158, 159, 160, 161, 162, 163, 164, 165, 166, 167, 168, 169, 170, 171, 172, 173, 174, 175, 176, 177, 178, 179, 180, 181, 182, 183, 184, 185, 186, 187, 188, 189, 190, 191, 192, 193, 194, 195, 196, 197, 198, 199, 200, 201, 202, 203, 204, 205, 206, 207, 208, 209, 210, 211, 212, 213, 214, 215, 216, 217, 218, 219, 220, 221, 222, 223, 224, 225, 226, 227, 228, 229, 230, 231, 232, 233, 234, 235, 236, 237, 238, 239, 240, 241, 242, 243, 244, 245, 246, 247, 248, 249, 250, 251, 252, 253, 254, 255, 256, 257, 258, 259, 260, 261, 262, 263, 264, 265, 266, 267, 268, 269, 270, 271, 272, 273, 274, 275, 276, 277, 278, 279, 280, 281, 282, 283, 284, 285, 286, 287, 288, 289, 290, 291, 292, 293, 294, 295, 296, 297, 298, 299, 300, 301, 302, 303, 304, 305, 306, 307, 308, 309, 310, 311, 312, 313, 314, 315, 316, 317, 318, 319, 320, 321, 322, 323, 324, 325, 326, 327, 328, 329, 330, 331, 332, 333, 334, 335, 336, 337, 338, 339, 340, 341, 342, 343, 344, 345, 346, 347, 348, 349, 350, 351, 352, 353, 354, 355, 356, 357, 358, 359, 360, 361, 362, 363, 364, 365, 366, 367, 368, 369, 370, 371, 372, 373, 374, 375, 376, 377, 378, 379, 380, 381, 382, 383, 384, 385, 386, 387, 388, 389, 390, 391, 392, 393, 394, 395, 396, 397, 398, 399, 400, 401, 402, 403, 404, 405, 406, 407, 408, 409, 410, 411, 412, 413, 414, 415, 416, 417, 418, 419, 420, 421, 422, 423, 424, 425, 426, 427, 428, 429, 430, 431, 432, 433, 434, 435, 436, 437, 438, 439, 440, 441, 442, 443, 444, 445, 446, 447, 448, 449, 450, 451, 452, 453, 454, 455, 456, 457, 458, 459, 460, 461, 462, 463, 464, 465, 466, 467, 468, 469, 470, 471, 472, 473, 474, 475, 476, 477, 478, 479, 480, 481, 482, 483, 484, 485, 486, 487, 488, 489, 490, 491, 492, 493, 494, 495, 496, 497, 498, 499, 500, 501, 502, 503, 504, 505, 506, 507, 508, 509, 510, 511, 512, 513, 514, 515, 516, 517, 518, 519, 520, 521, 522, 523, 524, 525, 526, 527, 528, 529, 530, 531, 532, 533, 534, 535, 536, 537, 538, 539, 540, 541, 542, 543, 544, 545, 546, 547, 548, 549, 550, 551, 552, 553, 554, 555, 556, 557, 558, 559, 560, 561, 562, 563, 564, 565, 566, 567, 568, 569, 570, 571, 572, 573, 574, 575, 576, 577, 578, 579, 580, 581],
      "AcquisitionTime": ["143221.697500", "143222.485000", "143223.272500", "143224.062500", "143224.850000", "143225.637500", "143226.425000", "143227.215000", "143228.002500", "143228.790000", "143229.577500", "143230.367500", "143231.155000", "143231.942500", "143232.730000", "143233.520000", "143234.307500", "143235.095000", "143235.882500", "143236.672500", "143237.460000", "143238.247500", "143239.035000", "143239.825000", "143240.612500", "143241.400000", "143242.190000", "143242.977500", "143243.765000", "143244.552500", "143245.342500", "143246.130000", "143246.917500", "143247.705000", "143248.495000", "143249.282500", "143250.070000", "143250.857500", "143251.647500", "143252.435000", "143253.222500", "143254.010000", "143254.800000", "143255.587500", "143256.375000", "143257.162500", "143257.952500", "143258.740000", "143259.527500", "143300.317500", "143301.105000", "143301.892500", "143302.680000", "143303.470000", "143304.257500", "143305.045000", "143305.832500", "143306.622500", "143307.410000", "143308.197500", "143308.985000", "143309.775000", "143310.562500", "143311.350000", "143312.137500", "143312.927500", "143313.715000", "143314.502500", "143315.290000", "143316.080000", "143316.867500", "143317.655000", "143318.445000", "143319.232500", "143320.020000", "143320.807500", "143321.597500", "143322.385000", "143323.172500", "143323.960000", "143324.750000", "143325.537500", "143326.325000", "143327.112500", "143327.902500", "143328.690000", "143329.477500", "143330.265000", "143331.055000", "143331.842500", "143332.630000", "143333.417500", "143334.207500", "143334.995000", "143335.782500", "143336.572500", "143337.360000", "143338.147500", "143338.935000", "143339.725000", "143340.512500", "143341.300000", "143342.087500", "143342.877500", "143343.665000", "143344.452500", "143345.240000", "143346.030000", "143346.817500", "143347.605000", "143348.392500", "143349.182500", "143349.970000", "143350.757500", "143351.545000", "143352.335000", "143353.122500", "143353.910000", "143354.700000", "143355.487500", "143356.275000", "143357.062500", "143357.852500", "143358.640000", "143359.427500", "143400.215000", "143401.005000", "143401.792500", "143402.580000", "143403.367500", "143404.157500", "143404.945000", "143405.732500", "143406.520000", "143407.310000", "143408.097500", "143408.885000", "143409.672500", "143410.462500", "143411.250000", "143412.037500", "143412.827500", "143413.615000", "143414.402500", "143415.190000", "143415.980000", "143416.767500", "143417.555000", "143418.342500", "143419.132500", "143419.920000", "143420.707500", "143421.495000", "143422.285000", "143423.072500", "143423.860000", "143424.647500", "143425.437500", "143426.225000", "143427.012500", "143427.800000", "143428.590000", "143429.377500", "143430.165000", "143430.955000", "143431.742500", "143432.530000", "143433.317500", "143434.107500", "143434.895000", "143435.682500", "143436.470000", "143437.260000", "143438.047500", "143438.835000", "143439.622500", "143440.412500", "143441.200000", "143441.987500", "143442.775000", "143443.565000", "143444.352500", "143445.140000", "143445.927500", "143446.717500", "143447.505000", "143448.292500", "143449.082500", "143449.870000", "143450.657500", "143451.445000", "143452.235000", "143453.022500", "143453.810000", "143454.597500", "143455.387500", "143456.175000", "143456.962500", "143457.750000", "143458.540000", "143459.327500", "143500.115000", "143500.902500", "143501.692500", "143502.480000", "143503.267500", "143504.057500", "143504.845000", "143505.632500", "143506.420000", "143507.210000", "143507.997500", "143508.785000", "143509.572500", "143510.362500", "143511.150000", "143511.937500", "143512.725000", "143513.515000", "143514.302500", "143515.090000", "143515.877500", "143516.667500", "143517.455000", "143518.242500", "143519.030000", "143519.820000", "143520.607500", "143521.395000", "143522.185000", "143522.972500", "143523.760000", "143524.547500", "143525.337500", "143526.125000", "143526.912500", "143527.700000", "143528.490000", "143529.277500", "143530.065000", "143530.852500", "143531.642500", "143532.430000", "143533.217500", "143534.005000", "143534.795000", "143535.582500", "143536.370000", "143537.157500", "143537.947500", "143538.735000", "143539.522500", "143540.312500", "143541.100000", "143541.887500", "143542.675000", "143543.465000", "143544.252500", "143545.040000", "143545.827500", "143546.617500", "143547.405000", "143548.192500", "143548.980000", "143549.770000", "143550.557500", "143551.345000", "143552.132500", "143552.922500", "143553.710000", "143554.497500", "143555.285000", "143556.075000", "143556.862500", "143557.650000", "143558.440000", "143559.227500", "143600.015000", "143600.802500", "143601.592500", "143602.380000", "143603.167500", "143603.955000", "143604.745000", "143605.532500", "143606.320000", "143607.107500", "143607.897500", "143608.685000", "143609.472500", "143610.260000", "143611.050000", "143611.837500", "143612.625000", "143613.412500", "143614.202500", "143614.990000", "143615.777500", "143616.567500", "143617.355000", "143618.142500", "143618.930000", "143619.720000", "143620.507500", "143621.295000", "143622.082500", "143622.872500", "143623.660000", "143624.447500", "143625.235000", "143626.025000", "143626.812500", "143627.600000", "143628.387500", "143629.177500", "143629.965000", "143630.752500", "143631.540000", "143632.330000", "143633.117500", "143633.905000", "143634.695000", "143635.482500", "143636.270000", "143637.057500", "143637.847500", "143638.635000", "143639.422500", "143640.210000", "143641.000000", "143641.787500", "143642.575000", "143643.362500", "143644.152500", "143644.940000", "143645.727500", "143646.515000", "143647.305000", "143648.092500", "143648.880000", "143649.667500", "143650.457500", "143651.245000", "143652.032500", "143652.822500", "143653.610000", "143654.397500", "143655.185000", "143655.975000", "143656.762500", "143657.550000", "143658.337500", "143659.127500", "143659.915000", "143700.702500", "143701.490000", "143702.280000", "143703.067500", "143703.855000", "143704.642500", "143705.432500", "143706.220000", "143707.007500", "143707.795000", "143708.585000", "143709.372500", "143710.160000", "143710.950000", "143711.737500", "143712.525000", "143713.312500", "143714.102500", "143714.890000", "143715.677500", "143716.465000", "143717.255000", "143718.042500", "143718.830000", "143719.617500", "143720.407500", "143721.195000", "143721.982500", "143722.770000", "143723.560000", "143724.347500", "143725.135000", "143725.922500", "143726.712500", "143727.500000", "143728.287500", "143729.077500", "143729.865000", "143730.652500", "143731.440000", "143732.230000", "143733.017500", "143733.805000", "143734.592500", "143735.382500", "143736.170000", "143736.957500", "143737.745000", "143738.535000", "143739.322500", "143740.110000", "143740.897500", "143741.687500", "143742.475000", "143743.262500", "143744.050000", "143744.840000", "143745.627500", "143746.415000", "143747.205000", "143747.992500", "143748.780000", "143749.567500", "143750.357500", "143751.145000", "143751.932500", "143752.720000", "143753.510000", "143754.297500", "143755.085000", "143755.872500", "143756.662500", "143757.450000", "143758.237500", "143759.025000", "143759.815000", "143800.602500", "143801.390000", "143802.177500", "143802.967500", "143803.755000", "143804.542500", "143805.332500", "143806.120000", "143806.907500", "143807.695000", "143808.485000", "143809.272500", "143810.060000", "143810.847500", "143811.637500", "143812.425000", "143813.212500", "143814.000000", "143814.790000", "143815.577500", "143816.365000", "143817.152500", "143817.942500", "143818.730000", "143819.517500", "143820.307500", "143821.095000", "143821.882500", "143822.670000", "143823.460000", "143824.247500", "143825.035000", "143825.822500", "143826.612500", "143827.400000", "143828.187500", "143828.975000", "143829.765000", "143830.552500", "143831.340000", "143832.127500", "143832.917500", "143833.705000", "143834.492500", "143835.280000", "143836.070000", "143836.857500", "143837.645000", "143838.435000", "143839.222500", "143840.010000", "143840.797500", "143841.587500", "143842.375000", "143843.162500", "143843.950000", "143844.740000", "143845.527500", "143846.315000", "143847.102500", "143847.892500", "143848.680000", "143849.467500", "143850.255000", "143851.045000", "143851.832500", "143852.620000", "143853.407500", "143854.197500", "143854.985000", "143855.772500", "143856.562500", "143857.350000", "143858.137500", "143858.925000", "143859.715000", "143900.502500", "143901.290000", "143902.077500", "143902.867500", "143903.655000", "143904.442500", "143905.230000", "143906.020000", "143906.807500", "143907.595000", "143908.382500", "143909.172500", "143909.960000", "143910.747500", "143911.535000", "143912.325000", "143913.112500", "143913.900000", "143914.690000", "143915.477500", "143916.265000", "143917.052500", "143917.842500", "143918.630000", "143919.417500", "143920.205000", "143920.995000", "143921.782500", "143922.570000", "143923.357500", "143924.147500", "143924.935000", "143925.722500", "143926.510000", "143927.300000", "143928.087500", "143928.875000", "143929.662500", "143930.452500", "143931.240000", "143932.027500", "143932.817500", "143933.605000", "143934.392500", "143935.180000", "143935.970000", "143936.757500", "143937.545000", "143938.332500", "143939.122500", "143939.910000", "143940.697500", "143941.485000", "143942.275000", "143943.062500", "143943.850000", "143944.637500", "143945.427500", "143946.215000", "143947.002500", "143947.790000", "143948.580000", "143949.367500", "143950.155000", "143950.945000", "143951.732500", "143952.520000", "143953.307500", "143954.097500", "143954.885000", "143955.672500", "143956.460000", "143957.250000", "143958.037500", "143958.825000"],
      "ContentTime": ["143246.703000", "143246.703000", "143246.718000", "143246.718000", "143246.718000", "143246.734000", "143246.734000", "143246.750000", "143246.750000", "143246.750000", "143246.750000", "143246.765000", "143246.765000", "143246.765000", "143246.765000", "143246.765000", "143246.765000", "143246.765000", "143246.781000", "143246.781000", "143246.781000", "143246.781000", "143246.781000", "143246.796000", "143246.796000", "143246.796000", "143246.796000", "143246.796000", "143306.671000", "143306.671000", "143306.671000", "143306.671000", "143306.671000", "143306.687000", "143306.687000", "143306.687000", "143306.703000", "143306.703000", "143306.703000", "143306.703000", "143306.703000", "143306.703000", "143306.703000", "143306.718000", "143306.718000", "143306.718000", "143306.718000", "143306.718000", "143306.718000", "143306.718000", "143306.734000", "143306.734000", "143306.734000", "143306.734000", "143326.671000", "143326.671000", "143326.671000", "143326.671000", "143326.671000", "143326.687000", "143326.687000", "143326.687000", "143326.687000", "143326.687000", "143326.703000", "143326.703000", "143326.703000", "143326.703000", "143326.703000", "143326.703000", "143326.718000", "143326.718000", "143326.718000", "143326.718000", "143326.718000", "143326.718000", "143326.734000", "143326.734000", "143326.734000", "143346.671000", "143346.671000", "143346.671000", "143346.687000", "143346.687000", "143346.687000", "143346.687000", "143346.687000", "143346.687000", "143346.687000", "143346.703000", "143346.703000", "143346.703000", "143346.718000", "143346.718000", "143346.718000", "143346.718000", "143346.718000", "143346.718000", "143346.718000", "143346.718000", "143346.734000", "143346.734000", "143346.734000", "143346.734000", "143346.734000", "143406.671000", "143406.687000", "143406.687000", "143406.687000", "143406.687000", "143406.687000", "143406.687000", "143406.687000", "143406.703000", "143406.703000", "143406.703000", "143406.703000", "143406.703000", "143406.703000", "143406.703000", "143406.718000", "143406.718000", "143406.718000", "143406.734000", "143406.734000", "143406.734000", "143406.734000", "143406.734000", "143406.734000", "143406.734000", "143426.671000", "143426.671000", "143426.671000", "143426.671000", "143426.687000", "143426.687000", "143426.687000", "143426.703000", "143426.703000", "143426.703000", "143426.703000", "143426.703000", "143426.703000", "143426.703000", "143426.703000", "143426.718000", "143426.718000", "143426.718000", "143426.718000", "143426.718000", "143426.734000", "143426.734000", "143426.734000", "143426.734000", "143426.734000", "143426.734000", "143446.671000", "143446.671000", "143446.671000", "143446.671000", "143446.671000", "143446.687000", "143446.687000", "143446.687000", "143446.687000", "143446.703000", "143446.703000", "143446.703000", "143446.703000", "143446.718000", "143446.718000", "143446.718000", "143446.718000", "143446.718000", "143446.718000", "143446.718000", "143446.734000", "143446.734000", "143446.734000", "143446.734000", "143446.750000", "143506.671000", "143506.671000", "143506.671000", "143506.671000", "143506.687000", "143506.687000", "143506.687000", "143506.687000", "143506.687000", "143506.687000", "143506.687000", "143506.703000", "143506.703000", "143506.703000", "143506.703000", "143506.703000", "143506.718000", "143506.718000", "143506.718000", "143506.718000", "143506.718000", "143506.718000", "143506.718000", "143506.734000", "143506.734000", "143506.734000", "143526.671000", "143526.671000", "143526.671000", "143526.671000", "143526.671000", "143526.687000", "143526.687000", "143526.687000", "143526.687000", "143526.687000", "143526.687000", "143526.687000", "143526.703000", "143526.703000", "143526.703000", "143526.718000", "143526.718000", "143526.718000", "143526.718000", "143526.718000", "143526.718000", "143526.734000", "143526.734000", "143526.734000", "143526.734000", "143546.671000", "143546.671000", "143546.687000", "143546.687000", "143546.687000", "143546.687000", "143546.687000", "143546.703000", "143546.703000", "143546.703000", "143546.703000", "143546.703000", "143546.703000", "143546.703000", "143546.718000", "143546.718000", "143546.718000", "143546.718000", "143546.718000", "143546.734000", "143546.734000", "143546.734000", "143546.734000", "143546.750000", "143546.750000", "143546.750000", "143606.671000", "143606.671000", "143606.671000", "143606.671000", "143606.671000", "143606.687000", "143606.687000", "143606.687000", "143606.703000", "143606.703000", "143606.703000", "143606.703000", "143606.703000", "143606.703000", "143606.703000", "143606.718000", "143606.718000", "143606.718000", "143606.718000", "143606.718000", "143606.718000", "143606.718000", "143606.734000", "143606.734000", "143606.734000", "143626.671000", "143626.671000", "143626.671000", "143626.671000", "143626.687000", "143626.687000", "143626.687000", "143626.687000", "143626.687000", "143626.703000", "143626.703000", "143626.703000", "143626.703000", "143626.703000", "143626.703000", "143626.718000", "143626.718000", "143626.718000", "143626.718000", "143626.718000", "143626.718000", "143626.718000", "143626.734000", "143626.734000", "143626.734000", "143626.734000", "143646.671000", "143646.671000", "143646.671000", "143646.671000", "143646.671000", "143646.687000", "143646.687000", "143646.687000", "143646.687000", "143646.687000", "143646.687000", "143646.687000", "143646.703000", "143646.703000", "143646.703000", "143646.703000", "143646.703000", "143646.718000", "143646.718000", "143646.718000", "143646.718000", "143646.718000", "143646.718000", "143646.718000", "143646.734000", "143706.671000", "143706.671000", "143706.671000", "143706.671000", "143706.671000", "143706.687000", "143706.687000", "143706.687000", "143706.687000", "143706.687000", "143706.687000", "143706.687000", "143706.703000", "143706.703000", "143706.703000", "143706.703000", "143706.718000", "143706.718000", "143706.718000", "143706.718000", "143706.718000", "143706.734000", "143706.734000", "143706.734000", "143706.734000", "143706.734000", "143726.671000", "143726.671000", "143726.671000", "143726.671000", "143726.687000", "143726.687000", "143726.687000", "143726.703000", "143726.703000", "143726.703000", "143726.703000", "143726.703000", "143726.703000", "143726.703000", "143726.718000", "143726.718000", "143726.718000", "143726.718000", "143726.734000", "143726.734000", "143726.734000", "143726.750000", "143726.750000", "143726.750000", "143726.750000", "143746.671000", "143746.671000", "143746.671000", "143746.671000", "143746.671000", "143746.687000", "143746.687000", "143746.687000", "143746.703000", "143746.703000", "143746.703000", "143746.703000", "143746.703000", "143746.703000", "143746.703000", "143746.718000", "143746.718000", "143746.718000", "143746.718000", "143746.718000", "143746.718000", "143746.718000", "143746.734000", "143746.734000", "143746.734000", "143746.734000", "143806.671000", "143806.671000", "143806.671000", "143806.671000", "143806.671000", "143806.687000", "143806.687000", "143806.687000", "143806.687000", "143806.687000", "143806.687000", "143806.703000", "143806.703000", "143806.703000", "143806.703000", "143806.703000", "143806.718000", "143806.718000", "143806.718000", "143806.718000", "143806.718000", "143806.718000", "143806.718000", "143806.734000", "143806.734000", "143826.671000", "143826.671000", "143826.671000", "143826.671000", "143826.671000", "143826.687000", "143826.687000", "143826.687000", "143826.687000", "143826.687000", "143826.687000", "143826.687000", "143826.703000", "143826.703000", "143826.718000", "143826.718000", "143826.718000", "143826.718000", "143826.718000", "143826.718000", "143826.718000", "143826.734000", "143826.734000", "143826.734000", "143826.734000", "143826.734000", "143846.671000", "143846.671000", "143846.687000", "143846.687000", "143846.687000", "143846.703000", "143846.703000", "143846.703000", "143846.703000", "143846.703000", "143846.703000", "143846.718000", "143846.718000", "143846.718000", "143846.718000", "143846.718000", "143846.718000", "143846.718000", "143846.734000", "143846.734000", "143846.734000", "143846.734000", "143846.734000", "143846.750000", "143846.750000", "143906.671000", "143906.671000", "143906.671000", "143906.687000", "143906.687000", "143906.687000", "143906.687000", "143906.703000", "143906.703000", "143906.703000", "143906.703000", "143906.703000", "143906.703000", "143906.703000", "143906.718000", "143906.718000", "143906.718000", "143906.718000", "143906.718000", "143906.718000", "143906.718000", "143906.734000", "143906.734000", "143906.734000", "143906.734000", "143926.671000", "143926.671000", "143926.671000", "143926.671000", "143926.671000", "143926.687000", "143926.687000", "143926.687000", "143926.687000", "143926.687000", "143926.703000", "143926.703000", "143926.703000", "143926.703000", "143926.703000", "143926.703000", "143926.703000", "143926.718000", "143926.718000", "143926.718000", "143926.718000", "143926.718000", "143926.718000", "143926.718000", "143926.734000", "143926.734000", "143946.671000", "143946.671000", "143946.671000", "143946.671000", "143946.687000", "143946.687000", "143946.687000", "143946.687000", "143946.687000", "143946.687000", "143946.687000", "143946.703000", "143946.703000", "143946.718000", "143946.718000", "143946.718000", "143946.718000", "143946.718000", "143946.718000", "143946.718000", "143946.734000", "143946.734000", "143946.734000", "143946.734000", "143946.734000", "144000.109000", "144000.125000", "144000.125000", "144000.125000", "144000.125000", "144000.125000", "144000.140000", "144000.140000", "144000.140000", "144000.140000", "144000.140000", "144000.140000", "144000.156000", "144000.156000", "144000.156000", "144000.156000", "144000.156000", "144000.171000"],
      "DataSetTrailingPadding": [
