{
  "AcquisitionMatrixPE": 104,
  "AcquisitionNumber": 1,
  "AcquisitionTime": "14:05:40.765000",
  "BandwidthPerPixelPhaseEncode": 13.935,
  "BaseResolution": 104,
  "CoilString": "C:HEA;HEP",
  "ConversionSoftware": "dcm2niix",
  "ConversionSoftwareVersion": "v1.0.20210317",
  "DerivedVendorReportedEchoSpacing": 0.000690017,
  "DeviceSerialNumber": "35450",
  "DwellTime": 2.5e-06,
  "EchoTime": 0.0348,
  "EffectiveEchoSpacing": 0.000690017,
  "FlipAngle": 55,
  "ImageComments": "Unaliased MB8/PE3 (remote)",
  "ImageOrientationPatientDICOM": [1, 0, 0, 0, 1, 0],
  "ImageType": [
    "ORIGINAL",
    "PRIMARY",
    "M",
    "MB",
    "ND",
    "MOSAIC"
],
  "ImagingFrequency": 123.234,
  "InPlanePhaseEncodingDirectionDICOM": "COL",
  "InstitutionAddress": "Univeristy Ave. 197,Newark,North East,US,07102-1814",
  "InstitutionName": "RUBIC",
  "InstitutionalDepartmentName": "Department",
  "MRAcquisitionType": "2D",
  "MagneticFieldStrength": 3,
  "Manufacturer": "Siemens",
  "ManufacturersModelName": "TrioTim",
  "Modality": "MR",
  "MultibandAccelerationFactor": 8,
  "PartialFourier": 0.875,
  "PatientPosition": "HFS",
  "PercentPhaseFOV": 100,
  "PercentSampling": 100,
  "PhaseEncodingDirection": "j-",
  "PhaseEncodingSteps": 91,
  "PhaseResolution": 1,
  "PixelBandwidth": 1923,
  "ProcedureStepDescription": "Cole^Michael",
  "ProtocolName": "cmrr_mbep2d_bold_2mm_MB8_Task_8x",
  "PulseSequenceDetails": "%CustomerSeq%\\cmrr_mbep2d_bold",
  "ReceiveCoilName": "32Ch_Head",
  "ReconMatrixPE": 104,
  "RepetitionTime": 0.785,
  "SAR": 0.15914,
  "ScanOptions": "PFP\\FS",
  "ScanningSequence": "EP",
  "SequenceName": "epfid2d1_104",
  "SequenceVariant": "SK\\SS",
  "SeriesDescription": "cmrr_mbep2d_bold_2mm_MB8_Task_8x",
  "SeriesNumber": 17,
  "ShimSetting": [2086, -427, -7316, 565, 14, -474, 295, 14],
  "SliceThickness": 2,
  "SliceTiming": [0, 0.4375, 0.0875, 0.525, 0.175, 0.6125, 0.2625, 0.7, 0.35, 0, 0.4375, 0.0875, 0.525, 0.175, 0.6125, 0.2625, 0.7, 0.35, 0, 0.4375, 0.0875, 0.525, 0.175, 0.6125, 0.2625, 0.7, 0.35, 0, 0.4375, 0.0875, 0.525, 0.175, 0.6125, 0.2625, 0.7, 0.35, 0, 0.4375, 0.0875, 0.525, 0.175, 0.6125, 0.2625, 0.7, 0.35, 0, 0.4375, 0.0875, 0.525, 0.175, 0.6125, 0.2625, 0.7, 0.35, 0, 0.4375, 0.0875, 0.525, 0.175, 0.6125, 0.2625, 0.7, 0.35, 0, 0.4375, 0.0875, 0.525, 0.175, 0.6125, 0.2625, 0.7, 0.35],
  "SoftwareVersions": "syngo MR B19",
  "SpacingBetweenSlices": 2,
  "StationName": "MRC35450",
  "TaskName": "cpro",
  "TotalReadoutTime": 0.0710717,
  "TxRefAmp": 348.542,
  "dcmmeta_affine": [
    [-2.0, 0.0, 0.0, 103.97078704833984],
    [0.0, 2.0, 0.0, -96.42138671875],
    [0.0, 0.0, 2.0, -91.45520782470703],
    [0.0, 0.0, 0.0, 1.0]
],
  "dcmmeta_reorient_transform": [
    [0.0, -1.0, 0.0, 103.0],
    [1.0, 0.0, 0.0, 0.0],
    [0.0, 0.0, 1.0, 0.0],
    [0.0, 0.0, 0.0, 1.0]
],
  "dcmmeta_shape": [104, 104, 72, 581],
  "dcmmeta_slice_dim": 2,
  "dcmmeta_version": 0.6,
  "global": {
    "const": {
      "AcquisitionMatrix": [104, 0, 0, 104],
      "AngioFlag": "N",
      "BitsAllocated": 16,
      "BitsStored": 12,
      "Columns": 936,
      "EchoNumbers": 1,
      "EchoTime": 34.8,
      "EchoTrainLength": 1,
      "FlipAngle": 55.0,
      "HighBit": 11,
      "ImageOrientationPatient": [1.0, 0.0, 0.0, 0.0, 1.0, 0.0],
      "ImagePositionPatient": [-935.97078990191, -941.57861614227, -91.455207824707],
      "ImageType": [
        "ORIGINAL",
        "PRIMARY",
        "M",
        "MB",
        "ND",
        "MOSAIC"
],
      "ImagedNucleus": "1H",
      "ImagingFrequency": 123.234397,
      "InPlanePhaseEncodingDirection": "COL",
      "MRAcquisitionType": "2D",
      "MagneticFieldStrength": 3.0,
      "Manufacturer": "SIEMENS",
      "ManufacturerModelName": "TrioTim",
      "Modality": "MR",
      "NumberOfAverages": 1.0,
      "NumberOfPhaseEncodingSteps": 91,
      "PercentPhaseFieldOfView": 100.0,
      "PercentSampling": 100.0,
      "PerformedProcedureStepStartTime": "122804.484000",
      "PhotometricInterpretation": "MONOCHROME2",
      "PixelBandwidth": 1923.0,
      "PixelRepresentation": 0,
      "PixelSpacing": [2.0, 2.0],
      "ProtocolName": "cmrr_mbep2d_bold_2mm_MB8_Task_8x",
      "RepetitionTime": 785.0,
      "Rows": 936,
      "SAR": 0.15913971219592,
      "SamplesPerPixel": 1,
      "ScanOptions": [
        "PFP",
        "FS"
],
      "ScanningSequence": "EP",
      "SequenceName": "epfid2d1_104",
      "SequenceVariant": [
        "SK",
        "SS"
],
      "SeriesDescription": "cmrr_mbep2d_bold_2mm_MB8_Task_8x",
      "SeriesNumber": 17,
      "SeriesTime": "140606.703000",
      "SliceLocation": -91.455207824707,
      "SliceThickness": 2.0,
      "SmallestImagePixelValue": 0,
      "SoftwareVersions": "syngo MR B19",
      "SpacingBetweenSlices": 2.0,
      "SpecificCharacterSet": "ISO_IR 100",
      "StudyID": "1",
      "StudyTime": "122804.390000",
      "TransmitCoilName": "Body",
      "VariableFlipAngleFlag": "N",
      "WindowCenterWidthExplanation": "Algo1",
      "dBdt": 0.0},
    "slices": {}
  },
  "time": {
    "samples": {
      "AcquisitionNumber": [1, 2, 3, 4, 5, 6, 7, 8, 9, 10, 11, 12, 13, 14, 15, 16, 17, 18, 19, 20, 21, 22, 23, 24, 25, 26, 27, 28, 29, 30, 31, 32, 33, 34, 35, 36, 37, 38, 39, 40, 41, 42, 43, 44, 45, 46, 47, 48, 49, 50, 51, 52, 53, 54, 55, 56, 57, 58, 59, 60, 61, 62, 63, 64, 65, 66, 67, 68, 69, 70, 71, 72, 73, 74, 75, 76, 77, 78, 79, 80, 81, 82, 83, 84, 85, 86, 87, 88, 89, 90, 91, 92, 93, 94, 95, 96, 97, 98, 99, 100, 101, 102, 103, 104, 105, 106, 107, 108, 109, 110, 111, 112, 113, 114, 115, 116, 117, 118, 119, 120, 121, 122, 123, 124, 125, 126, 127, 128, 129, 130, 131, 132, 133, 134, 135, 136, 137, 138, 139, 140, 141, 142, 143, 144, 145, 146, 147, 148, 149, 150, 151, 152, 153, 154, 155, 156, 157, 158, 159, 160, 161, 162, 163, 164, 165, 166, 167, 168, 169, 170, 171, 172, 173, 174, 175, 176, 177, 178, 179, 180, 181, 182, 183, 184, 185, 186, 187, 188, 189, 190, 191, 192, 193, 194, 195, 196, 197, 198, 199, 200, 201, 202, 203, 204, 205, 206, 207, 208, 209, 210, 211, 212, 213, 214, 215, 216, 217, 218, 219, 220, 221, 222, 223, 224, 225, 226, 227, 228, 229, 230, 231, 232, 233, 234, 235, 236, 237, 238, 239, 240, 241, 242, 243, 244, 245, 246, 247, 248, 249, 250, 251, 252, 253, 254, 255, 256, 257, 258, 259, 260, 261, 262, 263, 264, 265, 266, 267, 268, 269, 270, 271, 272, 273, 274, 275, 276, 277, 278, 279, 280, 281, 282, 283, 284, 285, 286, 287, 288, 289, 290, 291, 292, 293, 294, 295, 296, 297, 298, 299, 300, 301, 302, 303, 304, 305, 306, 307, 308, 309, 310, 311, 312, 313, 314, 315, 316, 317, 318, 319, 320, 321, 322, 323, 324, 325, 326, 327, 328, 329, 330, 331, 332, 333, 334, 335, 336, 337, 338, 339, 340, 341, 342, 343, 344, 345, 346, 347, 348, 349, 350, 351, 352, 353, 354, 355, 356, 357, 358, 359, 360, 361, 362, 363, 364, 365, 366, 367, 368, 369, 370, 371, 372, 373, 374, 375, 376, 377, 378, 379, 380, 381, 382, 383, 384, 385, 386, 387, 388, 389, 390, 391, 392, 393, 394, 395, 396, 397, 398, 399, 400, 401, 402, 403, 404, 405, 406, 407, 408, 409, 410, 411, 412, 413, 414, 415, 416, 417, 418, 419, 420, 421, 422, 423, 424, 425, 426, 427, 428, 429, 430, 431, 432, 433, 434, 435, 436, 437, 438, 439, 440, 441, 442, 443, 444, 445, 446, 447, 448, 449, 450, 451, 452, 453, 454, 455, 456, 457, 458, 459, 460, 461, 462, 463, 464, 465, 466, 467, 468, 469, 470, 471, 472, 473, 474, 475, 476, 477, 478, 479, 480, 481, 482, 483, 484, 485, 486, 487, 488, 489, 490, 491, 492, 493, 494, 495, 496, 497, 498, 499, 500, 501, 502, 503, 504, 505, 506, 507, 508, 509, 510, 511, 512, 513, 514, 515, 516, 517, 518, 519, 520, 521, 522, 523, 524, 525, 526, 527, 528, 529, 530, 531, 532, 533, 534, 535, 536, 537, 538, 539, 540, 541, 542, 543, 544, 545, 546, 547, 548, 549, 550, 551, 552, 553, 554, 555, 556, 557, 558, 559, 560, 561, 562, 563, 564, 565, 566, 567, 568, 569, 570, 571, 572, 573, 574, 575, 576, 577, 578, 579, 580, 581],
      "AcquisitionTime": ["140540.765000", "140541.552500", "140542.342500", "140543.130000", "140543.917500", "140544.705000", "140545.495000", "140546.282500", "140547.070000", "140547.857500", "140548.647500", "140549.435000", "140550.222500", "140551.010000", "140551.800000", "140552.587500", "140553.375000", "140554.162500", "140554.952500", "140555.740000", "140556.527500", "140557.317500", "140558.105000", "140558.892500", "140559.680000", "140600.470000", "140601.257500", "140602.045000", "140602.832500", "140603.622500", "140604.410000", "140605.197500", "140605.985000", "140606.775000", "140607.562500", "140608.350000", "140609.137500", "140609.927500", "140610.715000", "140611.502500", "140612.290000", "140613.080000", "140613.867500", "140614.655000", "140615.445000", "140616.232500", "140617.020000", "140617.807500", "140618.597500", "140619.385000", "140620.172500", "140620.960000", "140621.750000", "140622.537500", "140623.325000", "140624.112500", "140624.902500", "140625.690000", "140626.477500", "140627.265000", "140628.055000", "140628.842500", "140629.630000", "140630.417500", "140631.207500", "140631.995000", "140632.782500", "140633.572500", "140634.360000", "140635.147500", "140635.935000", "140636.725000", "140637.512500", "140638.300000", "140639.087500", "140639.877500", "140640.665000", "140641.452500", "140642.240000", "140643.030000", "140643.817500", "140644.605000", "140645.392500", "140646.182500", "140646.970000", "140647.757500", "140648.545000", "140649.335000", "140650.122500", "140650.910000", "140651.700000", "140652.487500", "140653.275000", "140654.062500", "140654.852500", "140655.640000", "140656.427500", "140657.215000", "140658.005000", "140658.792500", "140659.580000", "140700.367500", "140701.157500", "140701.945000", "140702.732500", "140703.520000", "140704.310000", "140705.097500", "140705.885000", "140706.672500", "140707.462500", "140708.250000", "140709.037500", "140709.827500", "140710.615000", "140711.402500", "140712.190000", "140712.980000", "140713.767500", "140714.555000", "140715.342500", "140716.132500", "140716.920000", "140717.707500", "140718.495000", "140719.285000", "140720.072500", "140720.860000", "140721.647500", "140722.437500", "140723.225000", "140724.012500", "140724.800000", "140725.590000", "140726.377500", "140727.165000", "140727.955000", "140728.742500", "140729.530000", "140730.317500", "140731.107500", "140731.895000", "140732.682500", "140733.470000", "140734.260000", "140735.047500", "140735.835000", "140736.622500", "140737.412500", "140738.200000", "140738.987500", "140739.775000", "140740.565000", "140741.352500", "140742.140000", "140742.927500", "140743.717500", "140744.505000", "140745.292500", "140746.082500", "140746.870000", "140747.657500", "140748.445000", "140749.235000", "140750.022500", "140750.810000", "140751.597500", "140752.387500", "140753.175000", "140753.962500", "140754.750000", "140755.540000", "140756.327500", "140757.115000", "140757.902500", "140758.692500", "140759.480000", "140800.267500", "140801.055000", "140801.845000", "140802.632500", "140803.420000", "140804.210000", "140804.997500", "140805.785000", "140806.572500", "140807.362500", "140808.150000", "140808.937500", "140809.725000", "140810.515000", "140811.302500", "140812.090000", "140812.877500", "140813.667500", "140814.455000", "140815.242500", "140816.030000", "140816.820000", "140817.607500", "140818.395000", "140819.182500", "140819.972500", "140820.760000", "140821.547500", "140822.337500", "140823.125000", "140823.912500", "140824.700000", "140825.490000", "140826.277500", "140827.065000", "140827.852500", "140828.642500", "140829.430000", "140830.217500", "140831.005000", "140831.795000", "140832.582500", "140833.370000", "140834.157500", "140834.947500", "140835.735000", "140836.522500", "140837.310000", "140838.100000", "140838.887500", "140839.675000", "140840.465000", "140841.252500", "140842.040000", "140842.827500", "140843.617500", "140844.405000", "140845.192500", "140845.980000", "140846.770000", "140847.557500", "140848.345000", "140849.132500", "140849.922500", "140850.710000", "140851.497500", "140852.285000", "140853.075000", "140853.862500", "140854.650000", "140855.440000", "140856.227500", "140857.015000", "140857.802500", "140858.592500", "140859.380000", "140900.167500", "140900.955000", "140901.745000", "140902.532500", "140903.320000", "140904.107500", "140904.897500", "140905.685000", "140906.472500", "140907.260000", "140908.050000", "140908.837500", "140909.625000", "140910.412500", "140911.202500", "140911.990000", "140912.777500", "140913.567500", "140914.355000", "140915.142500", "140915.930000", "140916.720000", "140917.507500", "140918.295000", "140919.082500", "140919.872500", "140920.660000", "140921.447500", "140922.235000", "140923.025000", "140923.812500", "140924.600000", "140925.387500", "140926.177500", "140926.965000", "140927.752500", "140928.540000", "140929.330000", "140930.117500", "140930.905000", "140931.695000", "140932.482500", "140933.270000", "140934.057500", "140934.847500", "140935.635000", "140936.422500", "140937.210000", "140938.000000", "140938.787500", "140939.575000", "140940.362500", "140941.152500", "140941.940000", "140942.727500", "140943.515000", "140944.305000", "140945.092500", "140945.880000", "140946.667500", "140947.457500", "140948.245000", "140949.032500", "140949.822500", "140950.610000", "140951.397500", "140952.185000", "140952.975000", "140953.762500", "140954.550000", "140955.337500", "140956.127500", "140956.915000", "140957.702500", "140958.490000", "140959.280000", "141000.067500", "141000.855000", "141001.642500", "141002.432500", "141003.220000", "141004.007500", "141004.795000", "141005.585000", "141006.372500", "141007.160000", "141007.950000", "141008.737500", "141009.525000", "141010.312500", "141011.102500", "141011.890000", "141012.677500", "141013.465000", "141014.255000", "141015.042500", "141015.830000", "141016.617500", "141017.407500", "141018.195000", "141018.982500", "141019.770000", "141020.560000", "141021.347500", "141022.135000", "141022.922500", "141023.712500", "141024.500000", "141025.287500", "141026.077500", "141026.865000", "141027.652500", "141028.440000", "141029.230000", "141030.017500", "141030.805000", "141031.592500", "141032.382500", "141033.170000", "141033.957500", "141034.745000", "141035.535000", "141036.322500", "141037.110000", "141037.897500", "141038.687500", "141039.475000", "141040.262500", "141041.050000", "141041.840000", "141042.627500", "141043.415000", "141044.205000", "141044.992500", "141045.780000", "141046.567500", "141047.357500", "141048.145000", "141048.932500", "141049.720000", "141050.510000", "141051.297500", "141052.085000", "141052.872500", "141053.662500", "141054.450000", "141055.237500", "141056.025000", "141056.815000", "141057.602500", "141058.390000", "141059.177500", "141059.967500", "141100.755000", "141101.542500", "141102.332500", "141103.120000", "141103.907500", "141104.695000", "141105.485000", "141106.272500", "141107.060000", "141107.847500", "141108.637500", "141109.425000", "141110.212500", "141111.000000", "141111.790000", "141112.577500", "141113.365000", "141114.152500", "141114.942500", "141115.730000", "141116.517500", "141117.305000", "141118.095000", "141118.882500", "141119.670000", "141120.460000", "141121.247500", "141122.035000", "141122.822500", "141123.612500", "141124.400000", "141125.187500", "141125.975000", "141126.765000", "141127.552500", "141128.340000", "141129.127500", "141129.917500", "141130.705000", "141131.492500", "141132.280000", "141133.070000", "141133.857500", "141134.645000", "141135.432500", "141136.222500", "141137.010000", "141137.797500", "141138.587500", "141139.375000", "141140.162500", "141140.950000", "141141.740000", "141142.527500", "141143.315000", "141144.102500", "141144.892500", "141145.680000", "141146.467500", "141147.255000", "141148.045000", "141148.832500", "141149.620000", "141150.407500", "141151.197500", "141151.985000", "141152.772500", "141153.560000", "141154.350000", "141155.137500", "141155.925000", "141156.715000", "141157.502500", "141158.290000", "141159.077500", "141159.867500", "141200.655000", "141201.442500", "141202.230000", "141203.020000", "141203.807500", "141204.595000", "141205.382500", "141206.172500", "141206.960000", "141207.747500", "141208.535000", "141209.325000", "141210.112500", "141210.900000", "141211.690000", "141212.477500", "141213.265000", "141214.052500", "141214.842500", "141215.630000", "141216.417500", "141217.205000", "141217.995000", "141218.782500", "141219.570000", "141220.357500", "141221.147500", "141221.935000", "141222.722500", "141223.510000", "141224.300000", "141225.087500", "141225.875000", "141226.662500", "141227.452500", "141228.240000", "141229.027500", "141229.817500", "141230.605000", "141231.392500", "141232.180000", "141232.970000", "141233.757500", "141234.545000", "141235.332500", "141236.122500", "141236.910000", "141237.697500", "141238.485000", "141239.275000", "141240.062500", "141240.850000", "141241.637500", "141242.427500", "141243.215000", "141244.002500", "141244.790000", "141245.580000", "141246.367500", "141247.155000", "141247.945000", "141248.732500", "141249.520000", "141250.307500", "141251.097500", "141251.885000", "141252.672500", "141253.460000", "141254.250000", "141255.037500", "141255.825000", "141256.612500", "141257.402500", "141258.190000", "141258.977500", "141259.765000", "141300.555000", "141301.342500", "141302.130000", "141302.917500", "141303.707500", "141304.495000", "141305.282500", "141306.072500", "141306.860000", "141307.647500", "141308.435000", "141309.225000", "141310.012500", "141310.800000", "141311.587500", "141312.377500", "141313.165000", "141313.952500", "141314.740000", "141315.530000", "141316.317500", "141317.105000", "141317.892500"],
      "ContentTime": ["140606.703000", "140606.703000", "140606.718000", "140606.718000", "140606.718000", "140606.718000", "140606.718000", "140606.718000", "140606.718000", "140606.734000", "140606.734000", "140606.734000", "140606.734000", "140606.734000", "140606.734000", "140606.750000", "140606.750000", "140606.750000", "140606.750000", "140606.750000", "140606.765000", "140606.765000", "140606.765000", "140606.765000", "140606.765000", "140606.781000", "140606.781000", "140606.781000", "140606.781000", "140606.781000", "140626.671000", "140626.671000", "140626.671000", "140626.687000", "140626.687000", "140626.687000", "140626.687000", "140626.687000", "140626.687000", "140626.687000", "140626.703000", "140626.703000", "140626.703000", "140626.703000", "140626.703000", "140626.703000", "140626.703000", "140626.718000", "140626.718000", "140626.718000", "140626.734000", "140626.734000", "140626.734000", "140626.734000", "140626.734000", "140646.671000", "140646.671000", "140646.671000", "140646.671000", "140646.687000", "140646.687000", "140646.687000", "140646.687000", "140646.687000", "140646.687000", "140646.703000", "140646.703000", "140646.703000", "140646.703000", "140646.703000", "140646.703000", "140646.703000", "140646.718000", "140646.718000", "140646.718000", "140646.718000", "140646.734000", "140646.734000", "140646.734000", "140646.734000", "140646.734000", "140706.671000", "140706.671000", "140706.671000", "140706.671000", "140706.671000", "140706.687000", "140706.687000", "140706.687000", "140706.703000", "140706.703000", "140706.703000", "140706.703000", "140706.703000", "140706.703000", "140706.703000", "140706.718000", "140706.718000", "140706.718000", "140706.718000", "140706.718000", "140706.718000", "140706.718000", "140706.734000", "140706.734000", "140706.734000", "140726.671000", "140726.671000", "140726.671000", "140726.671000", "140726.671000", "140726.687000", "140726.687000", "140726.687000", "140726.687000", "140726.687000", "140726.687000", "140726.703000", "140726.703000", "140726.703000", "140726.703000", "140726.718000", "140726.718000", "140726.718000", "140726.718000", "140726.718000", "140726.718000", "140726.718000", "140726.734000", "140726.734000", "140726.734000", "140726.734000", "140746.671000", "140746.671000", "140746.671000", "140746.671000", "140746.671000", "140746.687000", "140746.687000", "140746.687000", "140746.687000", "140746.687000", "140746.687000", "140746.687000", "140746.703000", "140746.703000", "140746.703000", "140746.703000", "140746.718000", "140746.718000", "140746.718000", "140746.718000", "140746.718000", "140746.718000", "140746.734000", "140746.734000", "140746.734000", "140806.671000", "140806.671000", "140806.687000", "140806.687000", "140806.687000", "140806.687000", "140806.687000", "140806.687000", "140806.687000", "140806.703000", "140806.703000", "140806.703000", "140806.703000", "140806.703000", "140806.703000", "140806.703000", "140806.718000", "140806.718000", "140806.718000", "140806.718000", "140806.734000", "140806.734000", "140806.734000", "140806.734000", "140806.734000", "140806.734000", "140826.671000", "140826.671000", "140826.671000", "140826.671000", "140826.671000", "140826.687000", "140826.687000", "140826.687000", "140826.703000", "140826.703000", "140826.703000", "140826.703000", "140826.703000", "140826.703000", "140826.703000", "140826.718000", "140826.718000", "140826.718000", "140826.718000", "140826.718000", "140826.718000", "140826.718000", "140826.734000", "140826.734000", "140826.734000", "140846.671000", "140846.671000", "140846.671000", "140846.671000", "140846.671000", "140846.687000", "140846.687000", "140846.687000", "140846.687000", "140846.703000", "140846.703000", "140846.703000", "140846.703000", "140846.703000", "140846.703000", "140846.718000", "140846.718000", "140846.718000", "140846.718000", "140846.734000", "140846.734000", "140846.734000", "140846.734000", "140846.750000", "140846.750000", "140846.750000", "140906.671000", "140906.671000", "140906.671000", "140906.671000", "140906.671000", "140906.687000", "140906.687000", "140906.687000", "140906.687000", "140906.687000", "140906.687000", "140906.703000", "140906.703000", "140906.718000", "140906.718000", "140906.718000", "140906.718000", "140906.734000", "140906.734000", "140906.734000", "140906.734000", "140906.734000", "140906.734000", "140906.750000", "140906.750000", "140926.671000", "140926.671000", "140926.671000", "140926.671000", "140926.671000", "140926.687000", "140926.687000", "140926.687000", "140926.687000", "140926.687000", "140926.687000", "140926.687000", "140926.703000", "140926.703000", "140926.703000", "140926.703000", "140926.718000", "140926.718000", "140926.718000", "140926.718000", "140926.718000", "140926.718000", "140926.734000", "140926.734000", "140926.734000", "140926.734000", "140946.671000", "140946.671000", "140946.671000", "140946.671000", "140946.687000", "140946.687000", "140946.687000", "140946.687000", "140946.687000", "140946.687000", "140946.703000", "140946.703000", "140946.703000", "140946.703000", "140946.703000", "140946.703000", "140946.703000", "140946.718000", "140946.718000", "140946.718000", "140946.718000", "140946.734000", "140946.734000", "140946.734000", "140946.734000", "141006.671000", "141006.671000", "141006.671000", "141006.671000", "141006.671000", "141006.687000", "141006.687000", "141006.703000", "141006.703000", "141006.703000", "141006.703000", "141006.703000", "141006.703000", "141006.703000", "141006.718000", "141006.718000", "141006.718000", "141006.718000", "141006.718000", "141006.718000", "141006.718000", "141006.734000", "141006.734000", "141006.734000", "141006.734000", "141006.750000", "141026.671000", "141026.671000", "141026.671000", "141026.671000", "141026.671000", "141026.687000", "141026.687000", "141026.687000", "141026.687000", "141026.687000", "141026.687000", "141026.703000", "141026.703000", "141026.718000", "141026.718000", "141026.718000", "141026.718000", "141026.718000", "141026.718000", "141026.718000", "141026.734000", "141026.734000", "141026.734000", "141026.734000", "141026.734000", "141046.671000", "141046.671000", "141046.671000", "141046.671000", "141046.671000", "141046.687000", "141046.687000", "141046.687000", "141046.687000", "141046.687000", "141046.687000", "141046.703000", "141046.703000", "141046.703000", "141046.703000", "141046.718000", "141046.718000", "141046.718000", "141046.718000", "141046.718000", "141046.718000", "141046.718000", "141046.734000", "141046.734000", "141046.734000", "141106.671000", "141106.671000", "141106.671000", "141106.687000", "141106.687000", "141106.687000", "141106.687000", "141106.687000", "141106.703000", "141106.703000", "141106.703000", "141106.703000", "141106.703000", "141106.703000", "141106.703000", "141106.718000", "141106.718000", "141106.718000", "141106.718000", "141106.734000", "141106.734000", "141106.734000", "141106.734000", "141106.734000", "141106.734000", "141106.734000", "141126.671000", "141126.671000", "141126.671000", "141126.671000", "141126.671000", "141126.703000", "141126.718000", "141126.718000", "141126.718000", "141126.718000", "141126.718000", "141126.718000", "141126.718000", "141126.734000", "141126.734000", "141126.734000", "141126.734000", "141126.734000", "141126.734000", "141126.734000", "141126.750000", "141126.750000", "141126.750000", "141126.750000", "141126.765000", "141146.671000", "141146.671000", "141146.671000", "141146.671000", "141146.671000", "141146.687000", "141146.687000", "141146.687000", "141146.687000", "141146.687000", "141146.703000", "141146.703000", "141146.703000", "141146.718000", "141146.718000", "141146.718000", "141146.718000", "141146.718000", "141146.734000", "141146.734000", "141146.734000", "141146.734000", "141146.734000", "141146.734000", "141146.734000", "141146.750000", "141206.671000", "141206.671000", "141206.671000", "141206.671000", "141206.687000", "141206.687000", "141206.687000", "141206.687000", "141206.687000", "141206.703000", "141206.703000", "141206.703000", "141206.703000", "141206.703000", "141206.718000", "141206.718000", "141206.718000", "141206.718000", "141206.734000", "141206.734000", "141206.734000", "141206.734000", "141206.734000", "141206.734000", "141206.734000", "141226.671000", "141226.687000", "141226.687000", "141226.687000", "141226.687000", "141226.687000", "141226.687000", "141226.703000", "141226.703000", "141226.703000", "141226.703000", "141226.703000", "141226.703000", "141226.703000", "141226.718000", "141226.718000", "141226.718000", "141226.718000", "141226.718000", "141226.734000", "141226.734000", "141226.734000", "141226.734000", "141226.734000", "141226.734000", "141226.734000", "141246.671000", "141246.671000", "141246.671000", "141246.671000", "141246.671000", "141246.687000", "141246.687000", "141246.687000", "141246.687000", "141246.703000", "141246.703000", "141246.703000", "141246.703000", "141246.718000", "141246.718000", "141246.718000", "141246.718000", "141246.718000", "141246.718000", "141246.718000", "141246.734000", "141246.734000", "141246.734000", "141246.734000", "141246.750000", "141306.671000", "141306.671000", "141306.671000", "141306.671000", "141306.671000", "141306.687000", "141306.687000", "141306.687000", "141306.687000", "141306.703000", "141306.703000", "141306.703000", "141306.703000", "141306.703000", "141306.703000", "141306.718000", "141306.718000", "141306.718000", "141306.718000", "141306.718000", "141306.718000", "141306.718000", "141306.734000", "141306.734000", "141306.750000", "141306.750000", "141319.093000", "141319.093000", "141319.109000", "141319.109000", "141319.109000", "141319.109000", "141319.109000", "141319.109000", "141319.125000", "141319.125000", "141319.125000", "141319.125000", "141319.125000", "141319.125000", "141319.140000", "141319.140000"],
      "DataSetTrailingPadding": [
