{
  "AcquisitionMatrixPE": 104,
  "AcquisitionNumber": 1,
  "AcquisitionTime": "14:59:22.740000",
  "BandwidthPerPixelPhaseEncode": 13.935,
  "BaseResolution": 104,
  "CoilString": "C:HEA;HEP",
  "ConversionSoftware": "dcm2niix",
  "ConversionSoftwareVersion": "v1.0.20210317",
  "DerivedVendorReportedEchoSpacing": 0.000690017,
  "DeviceSerialNumber": "35450",
  "DwellTime": 2.5e-06,
  "EchoTime": 0.0348,
  "EffectiveEchoSpacing": 0.000690017,
  "FlipAngle": 55,
  "ImageComments": "Unaliased MB8/PE3 (remote)",
  "ImageOrientationPatientDICOM": [0.997801, 0.00115672, 0.0662635, 4.72994e-08, 0.999848, -0.0174544],
  "ImageType": [
    "ORIGINAL",
    "PRIMARY",
    "M",
    "MB",
    "ND",
    "MOSAIC"
],
  "ImagingFrequency": 123.235,
  "InPlanePhaseEncodingDirectionDICOM": "COL",
  "InstitutionAddress": "Univeristy Ave. 197,Newark,North East,US,07102-1814",
  "InstitutionName": "RUBIC",
  "InstitutionalDepartmentName": "Department",
  "MRAcquisitionType": "2D",
  "MagneticFieldStrength": 3,
  "Manufacturer": "Siemens",
  "ManufacturersModelName": "TrioTim",
  "Modality": "MR",
  "MultibandAccelerationFactor": 8,
  "PartialFourier": 0.875,
  "PatientPosition": "HFS",
  "PercentPhaseFOV": 100,
  "PercentSampling": 100,
  "PhaseEncodingDirection": "j-",
  "PhaseEncodingSteps": 91,
  "PhaseResolution": 1,
  "PixelBandwidth": 1923,
  "ProcedureStepDescription": "Cole^Michael",
  "ProtocolName": "cmrr_mbep2d_bold_2mm_MB8_Task_8x",
  "PulseSequenceDetails": "%CustomerSeq%\\cmrr_mbep2d_bold",
  "ReceiveCoilName": "32Ch_Head",
  "ReconMatrixPE": 104,
  "RepetitionTime": 0.785,
  "SAR": 0.100001,
  "ScanOptions": "PFP\\FS",
  "ScanningSequence": "EP",
  "SequenceName": "epfid2d1_104",
  "SequenceVariant": "SK\\SS",
  "SeriesDescription": "cmrr_mbep2d_bold_2mm_MB8_Task_8x",
  "SeriesNumber": 19,
  "ShimSetting": [2197, -379, -7399, 626, 490, 155, -46, -207],
  "SliceThickness": 2,
  "SliceTiming": [0, 0.4375, 0.0875, 0.525, 0.175, 0.6125, 0.2625, 0.7, 0.35, 0, 0.4375, 0.0875, 0.525, 0.175, 0.6125, 0.2625, 0.7, 0.35, 0, 0.4375, 0.0875, 0.525, 0.175, 0.6125, 0.2625, 0.7, 0.35, 0, 0.4375, 0.0875, 0.525, 0.175, 0.6125, 0.2625, 0.7, 0.35, 0, 0.4375, 0.0875, 0.525, 0.175, 0.6125, 0.2625, 0.7, 0.35, 0, 0.4375, 0.0875, 0.525, 0.175, 0.6125, 0.2625, 0.7, 0.35, 0, 0.4375, 0.0875, 0.525, 0.175, 0.6125, 0.2625, 0.7, 0.35, 0, 0.4375, 0.0875, 0.525, 0.175, 0.6125, 0.2625, 0.7, 0.35],
  "SoftwareVersions": "syngo MR B19",
  "SpacingBetweenSlices": 2,
  "StationName": "MRC35450",
  "TaskName": "cpro",
  "TotalReadoutTime": 0.0710717,
  "TxRefAmp": 316.291,
  "dcmmeta_affine": [
    [-1.9956029653549194, 9.459872529760105e-08, 0.1325472742319107, 102.09819793701172],
    [-0.002313438802957535, 1.9996953010559082, -0.03483206033706665, -87.06830596923828],
    [0.13252708315849304, 0.034908801317214966, 1.995298981666565, -101.67507934570312],
    [0.0, 0.0, 0.0, 1.0]
],
  "dcmmeta_reorient_transform": [
    [0.0, -1.0, 0.0, 103.0],
    [1.0, 0.0, 0.0, 0.0],
    [0.0, 0.0, 1.0, 0.0],
    [0.0, 0.0, 0.0, 1.0]
],
  "dcmmeta_shape": [104, 104, 72, 581],
  "dcmmeta_slice_dim": 2,
  "dcmmeta_version": 0.6,
  "global": {
    "const": {
      "AcquisitionMatrix": [104, 0, 0, 104],
      "AngioFlag": "N",
      "BitsAllocated": 16,
      "BitsStored": 12,
      "Columns": 936,
      "EchoNumbers": 1,
      "EchoTime": 34.8,
      "EchoTrainLength": 1,
      "FlipAngle": 55.0,
      "HighBit": 11,
      "ImageOrientationPatient": [0.99780148591536, 0.0011567194104, 0.06626353978852, 4.7299361e-08, 0.99984766034013, -0.0174544009454],
      "ImagePositionPatient": [-932.26908598009, -951.73595973702, -138.68867274378],
      "ImageType": [
        "ORIGINAL",
        "PRIMARY",
        "M",
        "MB",
        "ND",
        "MOSAIC"
],
      "ImagedNucleus": "1H",
      "ImagingFrequency": 123.234608,
      "InPlanePhaseEncodingDirection": "COL",
      "MRAcquisitionType": "2D",
      "MagneticFieldStrength": 3.0,
      "Manufacturer": "SIEMENS",
      "ManufacturerModelName": "TrioTim",
      "Modality": "MR",
      "NumberOfAverages": 1.0,
      "NumberOfPhaseEncodingSteps": 91,
      "PercentPhaseFieldOfView": 100.0,
      "PercentSampling": 100.0,
      "PerformedProcedureStepStartTime": "133611.562000",
      "PhotometricInterpretation": "MONOCHROME2",
      "PixelBandwidth": 1923.0,
      "PixelRepresentation": 0,
      "PixelSpacing": [2.0, 2.0],
      "ProtocolName": "cmrr_mbep2d_bold_2mm_MB8_Task_8x",
      "RepetitionTime": 785.0,
      "Rows": 936,
      "SAR": 0.10000070575064,
      "SamplesPerPixel": 1,
      "ScanOptions": [
        "PFP",
        "FS"
],
      "ScanningSequence": "EP",
      "SequenceName": "epfid2d1_104",
      "SequenceVariant": [
        "SK",
        "SS"
],
      "SeriesDescription": "cmrr_mbep2d_bold_2mm_MB8_Task_8x",
      "SeriesNumber": 19,
      "SeriesTime": "145952.453000",
      "SliceLocation": -93.153283555149,
      "SliceThickness": 2.0,
      "SmallestImagePixelValue": 0,
      "SoftwareVersions": "syngo MR B19",
      "SpacingBetweenSlices": 1.9999999875062,
      "SpecificCharacterSet": "ISO_IR 100",
      "StudyID": "1",
      "StudyTime": "133611.500000",
      "TransmitCoilName": "Body",
      "VariableFlipAngleFlag": "N",
      "WindowCenterWidthExplanation": "Algo1",
      "dBdt": 0.0},
    "slices": {}
  },
  "time": {
    "samples": {
      "AcquisitionNumber": [1, 2, 3, 4, 5, 6, 7, 8, 9, 10, 11, 12, 13, 14, 15, 16, 17, 18, 19, 20, 21, 22, 23, 24, 25, 26, 27, 28, 29, 30, 31, 32, 33, 34, 35, 36, 37, 38, 39, 40, 41, 42, 43, 44, 45, 46, 47, 48, 49, 50, 51, 52, 53, 54, 55, 56, 57, 58, 59, 60, 61, 62, 63, 64, 65, 66, 67, 68, 69, 70, 71, 72, 73, 74, 75, 76, 77, 78, 79, 80, 81, 82, 83, 84, 85, 86, 87, 88, 89, 90, 91, 92, 93, 94, 95, 96, 97, 98, 99, 100, 101, 102, 103, 104, 105, 106, 107, 108, 109, 110, 111, 112, 113, 114, 115, 116, 117, 118, 119, 120, 121, 122, 123, 124, 125, 126, 127, 128, 129, 130, 131, 132, 133, 134, 135, 136, 137, 138, 139, 140, 141, 142, 143, 144, 145, 146, 147, 148, 149, 150, 151, 152, 153, 154, 155, 156, 157, 158, 159, 160, 161, 162, 163, 164, 165, 166, 167, 168, 169, 170, 171, 172, 173, 174, 175, 176, 177, 178, 179, 180, 181, 182, 183, 184, 185, 186, 187, 188, 189, 190, 191, 192, 193, 194, 195, 196, 197, 198, 199, 200, 201, 202, 203, 204, 205, 206, 207, 208, 209, 210, 211, 212, 213, 214, 215, 216, 217, 218, 219, 220, 221, 222, 223, 224, 225, 226, 227, 228, 229, 230, 231, 232, 233, 234, 235, 236, 237, 238, 239, 240, 241, 242, 243, 244, 245, 246, 247, 248, 249, 250, 251, 252, 253, 254, 255, 256, 257, 258, 259, 260, 261, 262, 263, 264, 265, 266, 267, 268, 269, 270, 271, 272, 273, 274, 275, 276, 277, 278, 279, 280, 281, 282, 283, 284, 285, 286, 287, 288, 289, 290, 291, 292, 293, 294, 295, 296, 297, 298, 299, 300, 301, 302, 303, 304, 305, 306, 307, 308, 309, 310, 311, 312, 313, 314, 315, 316, 317, 318, 319, 320, 321, 322, 323, 324, 325, 326, 327, 328, 329, 330, 331, 332, 333, 334, 335, 336, 337, 338, 339, 340, 341, 342, 343, 344, 345, 346, 347, 348, 349, 350, 351, 352, 353, 354, 355, 356, 357, 358, 359, 360, 361, 362, 363, 364, 365, 366, 367, 368, 369, 370, 371, 372, 373, 374, 375, 376, 377, 378, 379, 380, 381, 382, 383, 384, 385, 386, 387, 388, 389, 390, 391, 392, 393, 394, 395, 396, 397, 398, 399, 400, 401, 402, 403, 404, 405, 406, 407, 408, 409, 410, 411, 412, 413, 414, 415, 416, 417, 418, 419, 420, 421, 422, 423, 424, 425, 426, 427, 428, 429, 430, 431, 432, 433, 434, 435, 436, 437, 438, 439, 440, 441, 442, 443, 444, 445, 446, 447, 448, 449, 450, 451, 452, 453, 454, 455, 456, 457, 458, 459, 460, 461, 462, 463, 464, 465, 466, 467, 468, 469, 470, 471, 472, 473, 474, 475, 476, 477, 478, 479, 480, 481, 482, 483, 484, 485, 486, 487, 488, 489, 490, 491, 492, 493, 494, 495, 496, 497, 498, 499, 500, 501, 502, 503, 504, 505, 506, 507, 508, 509, 510, 511, 512, 513, 514, 515, 516, 517, 518, 519, 520, 521, 522, 523, 524, 525, 526, 527, 528, 529, 530, 531, 532, 533, 534, 535, 536, 537, 538, 539, 540, 541, 542, 543, 544, 545, 546, 547, 548, 549, 550, 551, 552, 553, 554, 555, 556, 557, 558, 559, 560, 561, 562, 563, 564, 565, 566, 567, 568, 569, 570, 571, 572, 573, 574, 575, 576, 577, 578, 579, 580, 581],
      "AcquisitionTime": ["145922.740000", "145923.527500", "145924.315000", "145925.102500", "145925.892500", "145926.680000", "145927.467500", "145928.255000", "145929.045000", "145929.832500", "145930.620000", "145931.407500", "145932.197500", "145932.985000", "145933.772500", "145934.560000", "145935.350000", "145936.137500", "145936.925000", "145937.712500", "145938.502500", "145939.290000", "145940.077500", "145940.867500", "145941.655000", "145942.442500", "145943.230000", "145944.020000", "145944.807500", "145945.595000", "145946.382500", "145947.172500", "145947.960000", "145948.747500", "145949.535000", "145950.325000", "145951.112500", "145951.900000", "145952.687500", "145953.477500", "145954.265000", "145955.052500", "145955.840000", "145956.630000", "145957.417500", "145958.205000", "145958.995000", "145959.782500", "150000.570000", "150001.357500", "150002.147500", "150002.935000", "150003.722500", "150004.510000", "150005.300000", "150006.087500", "150006.875000", "150007.662500", "150008.452500", "150009.240000", "150010.027500", "150010.815000", "150011.605000", "150012.392500", "150013.180000", "150013.967500", "150014.757500", "150015.545000", "150016.332500", "150017.122500", "150017.910000", "150018.697500", "150019.485000", "150020.275000", "150021.062500", "150021.850000", "150022.637500", "150023.427500", "150024.215000", "150025.002500", "150025.790000", "150026.580000", "150027.367500", "150028.155000", "150028.942500", "150029.732500", "150030.520000", "150031.307500", "150032.095000", "150032.885000", "150033.672500", "150034.460000", "150035.250000", "150036.037500", "150036.825000", "150037.612500", "150038.402500", "150039.190000", "150039.977500", "150040.765000", "150041.555000", "150042.342500", "150043.130000", "150043.917500", "150044.707500", "150045.495000", "150046.282500", "150047.070000", "150047.860000", "150048.647500", "150049.435000", "150050.222500", "150051.012500", "150051.800000", "150052.587500", "150053.377500", "150054.165000", "150054.952500", "150055.740000", "150056.530000", "150057.317500", "150058.105000", "150058.892500", "150059.682500", "150100.470000", "150101.257500", "150102.045000", "150102.835000", "150103.622500", "150104.410000", "150105.197500", "150105.987500", "150106.775000", "150107.562500", "150108.350000", "150109.140000", "150109.927500", "150110.715000", "150111.505000", "150112.292500", "150113.080000", "150113.867500", "150114.657500", "150115.445000", "150116.232500", "150117.020000", "150117.810000", "150118.597500", "150119.385000", "150120.172500", "150120.962500", "150121.750000", "150122.537500", "150123.325000", "150124.115000", "150124.902500", "150125.690000", "150126.480000", "150127.267500", "150128.055000", "150128.842500", "150129.632500", "150130.420000", "150131.207500", "150131.995000", "150132.785000", "150133.572500", "150134.360000", "150135.147500", "150135.937500", "150136.725000", "150137.512500", "150138.300000", "150139.090000", "150139.877500", "150140.665000", "150141.452500", "150142.242500", "150143.030000", "150143.817500", "150144.607500", "150145.395000", "150146.182500", "150146.970000", "150147.760000", "150148.547500", "150149.335000", "150150.122500", "150150.912500", "150151.700000", "150152.487500", "150153.275000", "150154.065000", "150154.852500", "150155.640000", "150156.427500", "150157.217500", "150158.005000", "150158.792500", "150159.580000", "150200.370000", "150201.157500", "150201.945000", "150202.735000", "150203.522500", "150204.310000", "150205.097500", "150205.887500", "150206.675000", "150207.462500", "150208.250000", "150209.040000", "150209.827500", "150210.615000", "150211.402500", "150212.192500", "150212.980000", "150213.767500", "150214.555000", "150215.345000", "150216.132500", "150216.920000", "150217.707500", "150218.497500", "150219.285000", "150220.072500", "150220.862500", "150221.650000", "150222.437500", "150223.225000", "150224.015000", "150224.802500", "150225.590000", "150226.377500", "150227.167500", "150227.955000", "150228.742500", "150229.530000", "150230.320000", "150231.107500", "150231.895000", "150232.682500", "150233.472500", "150234.260000", "150235.047500", "150235.835000", "150236.625000", "150237.412500", "150238.200000", "150238.990000", "150239.777500", "150240.565000", "150241.352500", "150242.142500", "150242.930000", "150243.717500", "150244.505000", "150245.295000", "150246.082500", "150246.870000", "150247.657500", "150248.447500", "150249.235000", "150250.022500", "150250.810000", "150251.600000", "150252.387500", "150253.175000", "150253.962500", "150254.752500", "150255.540000", "150256.327500", "150257.117500", "150257.905000", "150258.692500", "150259.480000", "150300.270000", "150301.057500", "150301.845000", "150302.632500", "150303.422500", "150304.210000", "150304.997500", "150305.785000", "150306.575000", "150307.362500", "150308.150000", "150308.937500", "150309.727500", "150310.515000", "150311.302500", "150312.090000", "150312.880000", "150313.667500", "150314.455000", "150315.245000", "150316.032500", "150316.820000", "150317.607500", "150318.397500", "150319.185000", "150319.972500", "150320.760000", "150321.550000", "150322.337500", "150323.125000", "150323.912500", "150324.702500", "150325.490000", "150326.277500", "150327.065000", "150327.855000", "150328.642500", "150329.430000", "150330.217500", "150331.007500", "150331.795000", "150332.582500", "150333.372500", "150334.160000", "150334.947500", "150335.735000", "150336.525000", "150337.312500", "150338.100000", "150338.887500", "150339.677500", "150340.465000", "150341.252500", "150342.040000", "150342.830000", "150343.617500", "150344.405000", "150345.192500", "150345.982500", "150346.770000", "150347.557500", "150348.345000", "150349.135000", "150349.922500", "150350.710000", "150351.500000", "150352.287500", "150353.075000", "150353.862500", "150354.652500", "150355.440000", "150356.227500", "150357.015000", "150357.805000", "150358.592500", "150359.380000", "150400.167500", "150400.957500", "150401.745000", "150402.532500", "150403.320000", "150404.110000", "150404.897500", "150405.685000", "150406.472500", "150407.262500", "150408.050000", "150408.837500", "150409.627500", "150410.415000", "150411.202500", "150411.990000", "150412.780000", "150413.567500", "150414.355000", "150415.142500", "150415.932500", "150416.720000", "150417.507500", "150418.295000", "150419.085000", "150419.872500", "150420.660000", "150421.447500", "150422.237500", "150423.025000", "150423.812500", "150424.600000", "150425.390000", "150426.177500", "150426.965000", "150427.755000", "150428.542500", "150429.330000", "150430.117500", "150430.907500", "150431.695000", "150432.482500", "150433.270000", "150434.060000", "150434.847500", "150435.635000", "150436.422500", "150437.212500", "150438.000000", "150438.787500", "150439.575000", "150440.365000", "150441.152500", "150441.940000", "150442.730000", "150443.517500", "150444.305000", "150445.092500", "150445.882500", "150446.670000", "150447.457500", "150448.245000", "150449.035000", "150449.822500", "150450.610000", "150451.397500", "150452.187500", "150452.975000", "150453.762500", "150454.550000", "150455.340000", "150456.127500", "150456.915000", "150457.702500", "150458.492500", "150459.280000", "150500.067500", "150500.857500", "150501.645000", "150502.432500", "150503.220000", "150504.010000", "150504.797500", "150505.585000", "150506.372500", "150507.162500", "150507.950000", "150508.737500", "150509.525000", "150510.315000", "150511.102500", "150511.890000", "150512.677500", "150513.467500", "150514.255000", "150515.042500", "150515.830000", "150516.620000", "150517.407500", "150518.195000", "150518.985000", "150519.772500", "150520.560000", "150521.347500", "150522.137500", "150522.925000", "150523.712500", "150524.500000", "150525.290000", "150526.077500", "150526.865000", "150527.652500", "150528.442500", "150529.230000", "150530.017500", "150530.805000", "150531.595000", "150532.382500", "150533.170000", "150533.957500", "150534.747500", "150535.535000", "150536.322500", "150537.112500", "150537.900000", "150538.687500", "150539.475000", "150540.265000", "150541.052500", "150541.840000", "150542.627500", "150543.417500", "150544.205000", "150544.992500", "150545.780000", "150546.570000", "150547.357500", "150548.145000", "150548.932500", "150549.722500", "150550.510000", "150551.297500", "150552.085000", "150552.875000", "150553.662500", "150554.450000", "150555.240000", "150556.027500", "150556.815000", "150557.602500", "150558.392500", "150559.180000", "150559.967500", "150600.755000", "150601.545000", "150602.332500", "150603.120000", "150603.907500", "150604.697500", "150605.485000", "150606.272500", "150607.060000", "150607.850000", "150608.637500", "150609.425000", "150610.212500", "150611.002500", "150611.790000", "150612.577500", "150613.367500", "150614.155000", "150614.942500", "150615.730000", "150616.520000", "150617.307500", "150618.095000", "150618.882500", "150619.672500", "150620.460000", "150621.247500", "150622.035000", "150622.825000", "150623.612500", "150624.400000", "150625.187500", "150625.977500", "150626.765000", "150627.552500", "150628.340000", "150629.130000", "150629.917500", "150630.705000", "150631.495000", "150632.282500", "150633.070000", "150633.857500", "150634.647500", "150635.435000", "150636.222500", "150637.010000", "150637.800000", "150638.587500", "150639.375000", "150640.162500", "150640.952500", "150641.740000", "150642.527500", "150643.315000", "150644.105000", "150644.892500", "150645.680000", "150646.467500", "150647.257500", "150648.045000", "150648.832500", "150649.622500", "150650.410000", "150651.197500", "150651.985000", "150652.775000", "150653.562500", "150654.350000", "150655.137500", "150655.927500", "150656.715000", "150657.502500", "150658.290000", "150659.080000", "150659.867500"],
      "ContentTime": ["145952.453000", "145952.453000", "145952.453000", "145952.453000", "145952.453000", "145952.468000", "145952.468000", "145952.468000", "145952.468000", "145952.468000", "145952.468000", "145952.468000", "145952.484000", "145952.484000", "145952.484000", "145952.484000", "145952.484000", "145952.484000", "145952.484000", "145952.500000", "145952.500000", "145952.500000", "145952.500000", "145952.500000", "145952.500000", "145952.500000", "145952.500000", "145952.515000", "145952.515000", "145952.515000", "145952.515000", "145952.515000", "145952.515000", "145952.515000", "145952.531000", "150012.421000", "150012.437000", "150012.437000", "150012.437000", "150012.437000", "150012.437000", "150012.437000", "150012.437000", "150012.437000", "150012.453000", "150012.453000", "150012.453000", "150012.453000", "150012.453000", "150012.453000", "150012.453000", "150012.468000", "150012.468000", "150012.468000", "150012.468000", "150012.468000", "150012.468000", "150012.484000", "150012.484000", "150012.484000", "150032.421000", "150032.437000", "150032.437000", "150032.437000", "150032.437000", "150032.437000", "150032.437000", "150032.437000", "150032.437000", "150032.453000", "150032.453000", "150032.453000", "150032.453000", "150032.453000", "150032.453000", "150032.453000", "150032.453000", "150032.468000", "150032.468000", "150032.468000", "150032.468000", "150032.468000", "150032.468000", "150032.468000", "150032.484000", "150032.484000", "150052.421000", "150052.421000", "150052.437000", "150052.437000", "150052.437000", "150052.437000", "150052.437000", "150052.437000", "150052.437000", "150052.453000", "150052.453000", "150052.453000", "150052.453000", "150052.453000", "150052.453000", "150052.453000", "150052.453000", "150052.468000", "150052.468000", "150052.468000", "150052.468000", "150052.468000", "150052.468000", "150052.484000", "150052.484000", "150112.421000", "150112.421000", "150112.437000", "150112.437000", "150112.437000", "150112.437000", "150112.437000", "150112.437000", "150112.437000", "150112.453000", "150112.453000", "150112.453000", "150112.453000", "150112.453000", "150112.453000", "150112.468000", "150112.468000", "150112.468000", "150112.468000", "150112.468000", "150112.468000", "150112.468000", "150112.484000", "150112.484000", "150112.484000", "150112.484000", "150132.421000", "150132.421000", "150132.437000", "150132.437000", "150132.437000", "150132.437000", "150132.437000", "150132.437000", "150132.437000", "150132.453000", "150132.453000", "150132.453000", "150132.453000", "150132.453000", "150132.453000", "150132.468000", "150132.468000", "150132.468000", "150132.468000", "150132.468000", "150132.468000", "150132.468000", "150132.484000", "150132.484000", "150132.484000", "150152.421000", "150152.421000", "150152.437000", "150152.437000", "150152.437000", "150152.437000", "150152.437000", "150152.437000", "150152.437000", "150152.453000", "150152.453000", "150152.453000", "150152.453000", "150152.453000", "150152.453000", "150152.453000", "150152.453000", "150152.468000", "150152.468000", "150152.468000", "150152.468000", "150152.468000", "150152.468000", "150152.468000", "150152.484000", "150152.484000", "150212.421000", "150212.421000", "150212.437000", "150212.437000", "150212.437000", "150212.437000", "150212.437000", "150212.437000", "150212.437000", "150212.453000", "150212.453000", "150212.453000", "150212.453000", "150212.453000", "150212.453000", "150212.453000", "150212.453000", "150212.468000", "150212.468000", "150212.468000", "150212.468000", "150212.468000", "150212.468000", "150212.468000", "150212.484000", "150232.421000", "150232.421000", "150232.437000", "150232.437000", "150232.437000", "150232.437000", "150232.437000", "150232.437000", "150232.437000", "150232.453000", "150232.453000", "150232.453000", "150232.453000", "150232.453000", "150232.453000", "150232.453000", "150232.468000", "150232.468000", "150232.468000", "150232.468000", "150232.468000", "150232.468000", "150232.468000", "150232.484000", "150232.484000", "150232.484000", "150252.421000", "150252.437000", "150252.437000", "150252.437000", "150252.437000", "150252.437000", "150252.437000", "150252.437000", "150252.437000", "150252.453000", "150252.453000", "150252.453000", "150252.453000", "150252.453000", "150252.453000", "150252.453000", "150252.468000", "150252.468000", "150252.468000", "150252.468000", "150252.468000", "150252.468000", "150252.468000", "150252.468000", "150252.484000", "150312.421000", "150312.421000", "150312.437000", "150312.437000", "150312.437000", "150312.437000", "150312.437000", "150312.437000", "150312.437000", "150312.453000", "150312.453000", "150312.453000", "150312.453000", "150312.453000", "150312.453000", "150312.453000", "150312.468000", "150312.468000", "150312.468000", "150312.468000", "150312.468000", "150312.468000", "150312.468000", "150312.468000", "150312.484000", "150312.484000", "150332.421000", "150332.421000", "150332.437000", "150332.437000", "150332.437000", "150332.437000", "150332.437000", "150332.437000", "150332.453000", "150332.453000", "150332.453000", "150332.468000", "150332.468000", "150332.468000", "150332.468000", "150332.468000", "150332.468000", "150332.468000", "150332.484000", "150332.484000", "150332.484000", "150332.484000", "150332.484000", "150332.484000", "150332.484000", "150352.421000", "150352.421000", "150352.437000", "150352.437000", "150352.437000", "150352.437000", "150352.437000", "150352.437000", "150352.437000", "150352.453000", "150352.453000", "150352.453000", "150352.453000", "150352.453000", "150352.453000", "150352.453000", "150352.468000", "150352.468000", "150352.468000", "150352.468000", "150352.468000", "150352.468000", "150352.468000", "150352.484000", "150352.484000", "150352.484000", "150412.421000", "150412.437000", "150412.437000", "150412.437000", "150412.437000", "150412.437000", "150412.437000", "150412.437000", "150412.437000", "150412.453000", "150412.453000", "150412.453000", "150412.453000", "150412.453000", "150412.453000", "150412.453000", "150412.453000", "150412.468000", "150412.468000", "150412.468000", "150412.468000", "150412.468000", "150412.468000", "150412.468000", "150412.468000", "150432.421000", "150432.421000", "150432.437000", "150432.437000", "150432.437000", "150432.437000", "150432.437000", "150432.437000", "150432.437000", "150432.453000", "150432.453000", "150432.453000", "150432.453000", "150432.453000", "150432.453000", "150432.453000", "150432.453000", "150432.468000", "150432.468000", "150432.468000", "150432.468000", "150432.468000", "150432.468000", "150432.468000", "150432.484000", "150432.484000", "150452.421000", "150452.421000", "150452.437000", "150452.437000", "150452.437000", "150452.437000", "150452.437000", "150452.437000", "150452.437000", "150452.453000", "150452.453000", "150452.453000", "150452.453000", "150452.453000", "150452.453000", "150452.453000", "150452.468000", "150452.468000", "150452.468000", "150452.468000", "150452.468000", "150452.468000", "150452.468000", "150452.468000", "150452.484000", "150512.421000", "150512.421000", "150512.437000", "150512.437000", "150512.437000", "150512.437000", "150512.437000", "150512.437000", "150512.437000", "150512.453000", "150512.453000", "150512.453000", "150512.453000", "150512.453000", "150512.453000", "150512.468000", "150512.468000", "150512.468000", "150512.468000", "150512.468000", "150512.468000", "150512.484000", "150512.484000", "150512.484000", "150512.484000", "150512.484000", "150532.421000", "150532.421000", "150532.437000", "150532.437000", "150532.437000", "150532.437000", "150532.437000", "150532.453000", "150532.453000", "150532.453000", "150532.468000", "150532.468000", "150532.468000", "150532.468000", "150532.468000", "150532.484000", "150532.484000", "150532.484000", "150532.484000", "150532.484000", "150532.484000", "150532.500000", "150532.500000", "150532.500000", "150532.500000", "150552.421000", "150552.421000", "150552.437000", "150552.437000", "150552.437000", "150552.437000", "150552.437000", "150552.437000", "150552.437000", "150552.453000", "150552.453000", "150552.453000", "150552.453000", "150552.453000", "150552.453000", "150552.453000", "150552.453000", "150552.468000", "150552.468000", "150552.468000", "150552.468000", "150552.468000", "150552.468000", "150552.484000", "150552.484000", "150612.421000", "150612.437000", "150612.437000", "150612.437000", "150612.437000", "150612.437000", "150612.437000", "150612.437000", "150612.453000", "150612.453000", "150612.453000", "150612.453000", "150612.453000", "150612.453000", "150612.453000", "150612.468000", "150612.468000", "150612.468000", "150612.468000", "150612.468000", "150612.468000", "150612.484000", "150612.484000", "150612.484000", "150612.484000", "150612.484000", "150632.421000", "150632.437000", "150632.437000", "150632.437000", "150632.437000", "150632.437000", "150632.453000", "150632.453000", "150632.453000", "150632.453000", "150632.453000", "150632.453000", "150632.453000", "150632.468000", "150632.468000", "150632.468000", "150632.468000", "150632.468000", "150632.468000", "150632.468000", "150632.484000", "150632.484000", "150632.484000", "150632.484000", "150632.484000", "150652.421000", "150652.421000", "150652.437000", "150652.437000", "150652.437000", "150652.437000", "150652.437000", "150652.437000", "150652.437000", "150652.453000", "150652.453000", "150652.453000", "150652.453000", "150652.453000", "150652.453000", "150652.453000", "150652.453000", "150652.468000", "150652.468000", "150652.468000", "150652.468000", "150652.468000", "150652.468000", "150652.468000", "150652.484000", "150652.484000", "150700.781000", "150700.781000", "150700.781000", "150700.796000", "150700.796000", "150700.796000", "150700.796000", "150700.796000", "150700.796000", "150700.796000", "150700.796000"],
