{
  "AcquisitionMatrixPE": 104,
  "AcquisitionNumber": 1,
  "AcquisitionTime": "15:23:16.722500",
  "BandwidthPerPixelPhaseEncode": 13.935,
  "BaseResolution": 104,
  "CoilString": "C:HEA;HEP",
  "ConversionSoftware": "dcm2niix",
  "ConversionSoftwareVersion": "v1.0.20210317",
  "DerivedVendorReportedEchoSpacing": 0.000690017,
  "DeviceSerialNumber": "35450",
  "DwellTime": 2.5e-06,
  "EchoTime": 0.0348,
  "EffectiveEchoSpacing": 0.000690017,
  "FlipAngle": 55,
  "ImageComments": "Unaliased MB8/PE3 (remote)",
  "ImageOrientationPatientDICOM": [0.997801, 0.00115672, 0.0662635, 4.72994e-08, 0.999848, -0.0174544],
  "ImageType": [
    "ORIGINAL",
    "PRIMARY",
    "M",
    "MB",
    "ND",
    "MOSAIC"
],
  "ImagingFrequency": 123.235,
  "InPlanePhaseEncodingDirectionDICOM": "COL",
  "InstitutionAddress": "Univeristy Ave. 197,Newark,North East,US,07102-1814",
  "InstitutionName": "RUBIC",
  "InstitutionalDepartmentName": "Department",
  "MRAcquisitionType": "2D",
  "MagneticFieldStrength": 3,
  "Manufacturer": "Siemens",
  "ManufacturersModelName": "TrioTim",
  "Modality": "MR",
  "MultibandAccelerationFactor": 8,
  "PartialFourier": 0.875,
  "PatientPosition": "HFS",
  "PercentPhaseFOV": 100,
  "PercentSampling": 100,
  "PhaseEncodingDirection": "j-",
  "PhaseEncodingSteps": 91,
  "PhaseResolution": 1,
  "PixelBandwidth": 1923,
  "ProcedureStepDescription": "Cole^Michael",
  "ProtocolName": "cmrr_mbep2d_bold_2mm_MB8_Task_8x",
  "PulseSequenceDetails": "%CustomerSeq%\\cmrr_mbep2d_bold",
  "ReceiveCoilName": "32Ch_Head",
  "ReconMatrixPE": 104,
  "RepetitionTime": 0.785,
  "SAR": 0.100001,
  "ScanOptions": "PFP\\FS",
  "ScanningSequence": "EP",
  "SequenceName": "epfid2d1_104",
  "SequenceVariant": "SK\\SS",
  "SeriesDescription": "cmrr_mbep2d_bold_2mm_MB8_Task_8x",
  "SeriesNumber": 25,
  "ShimSetting": [2197, -379, -7399, 626, 490, 155, -46, -207],
  "SliceThickness": 2,
  "SliceTiming": [0, 0.44, 0.0875, 0.5275, 0.175, 0.615, 0.2625, 0.7025, 0.3525, 0, 0.44, 0.0875, 0.5275, 0.175, 0.615, 0.2625, 0.7025, 0.3525, 0, 0.44, 0.0875, 0.5275, 0.175, 0.615, 0.2625, 0.7025, 0.3525, 0, 0.44, 0.0875, 0.5275, 0.175, 0.615, 0.2625, 0.7025, 0.3525, 0, 0.44, 0.0875, 0.5275, 0.175, 0.615, 0.2625, 0.7025, 0.3525, 0, 0.44, 0.0875, 0.5275, 0.175, 0.615, 0.2625, 0.7025, 0.3525, 0, 0.44, 0.0875, 0.5275, 0.175, 0.615, 0.2625, 0.7025, 0.3525, 0, 0.44, 0.0875, 0.5275, 0.175, 0.615, 0.2625, 0.7025, 0.3525],
  "SoftwareVersions": "syngo MR B19",
  "SpacingBetweenSlices": 2,
  "StationName": "MRC35450",
  "TaskName": "cpro",
  "TotalReadoutTime": 0.0710717,
  "TxRefAmp": 316.291,
  "dcmmeta_affine": [
    [-1.9956029653549194, 9.459872529760105e-08, 0.1325472742319107, 102.09819793701172],
    [-0.002313438802957535, 1.9996953010559082, -0.03483206033706665, -87.06830596923828],
    [0.13252708315849304, 0.034908801317214966, 1.995298981666565, -101.67507934570312],
    [0.0, 0.0, 0.0, 1.0]
],
  "dcmmeta_reorient_transform": [
    [0.0, -1.0, 0.0, 103.0],
    [1.0, 0.0, 0.0, 0.0],
    [0.0, 0.0, 1.0, 0.0],
    [0.0, 0.0, 0.0, 1.0]
],
  "dcmmeta_shape": [104, 104, 72, 581],
  "dcmmeta_slice_dim": 2,
  "dcmmeta_version": 0.6,
  "global": {
    "const": {
      "AcquisitionMatrix": [104, 0, 0, 104],
      "AngioFlag": "N",
      "BitsAllocated": 16,
      "BitsStored": 12,
      "Columns": 936,
      "EchoNumbers": 1,
      "EchoTime": 34.8,
      "EchoTrainLength": 1,
      "FlipAngle": 55.0,
      "HighBit": 11,
      "ImageOrientationPatient": [0.99780148591536, 0.0011567194104, 0.06626353978852, 4.7299361e-08, 0.99984766034013, -0.0174544009454],
      "ImagePositionPatient": [-932.26908598009, -951.73595973702, -138.68867274378],
      "ImageType": [
        "ORIGINAL",
        "PRIMARY",
        "M",
        "MB",
        "ND",
        "MOSAIC"
],
      "ImagedNucleus": "1H",
      "ImagingFrequency": 123.234608,
      "InPlanePhaseEncodingDirection": "COL",
      "MRAcquisitionType": "2D",
      "MagneticFieldStrength": 3.0,
      "Manufacturer": "SIEMENS",
      "ManufacturerModelName": "TrioTim",
      "Modality": "MR",
      "NumberOfAverages": 1.0,
      "NumberOfPhaseEncodingSteps": 91,
      "PercentPhaseFieldOfView": 100.0,
      "PercentSampling": 100.0,
      "PerformedProcedureStepStartTime": "133611.562000",
      "PhotometricInterpretation": "MONOCHROME2",
      "PixelBandwidth": 1923.0,
      "PixelRepresentation": 0,
      "PixelSpacing": [2.0, 2.0],
      "ProtocolName": "cmrr_mbep2d_bold_2mm_MB8_Task_8x",
      "RepetitionTime": 785.0,
      "Rows": 936,
      "SAR": 0.10000070575064,
      "SamplesPerPixel": 1,
      "ScanOptions": [
        "PFP",
        "FS"
],
      "ScanningSequence": "EP",
      "SequenceName": "epfid2d1_104",
      "SequenceVariant": [
        "SK",
        "SS"
],
      "SeriesDescription": "cmrr_mbep2d_bold_2mm_MB8_Task_8x",
      "SeriesNumber": 25,
      "SeriesTime": "152352.453000",
      "SliceLocation": -93.153283555149,
      "SliceThickness": 2.0,
      "SmallestImagePixelValue": 0,
      "SoftwareVersions": "syngo MR B19",
      "SpacingBetweenSlices": 1.9999999875062,
      "SpecificCharacterSet": "ISO_IR 100",
      "StudyID": "1",
      "StudyTime": "133611.500000",
      "TransmitCoilName": "Body",
      "VariableFlipAngleFlag": "N",
      "WindowCenterWidthExplanation": "Algo1",
      "dBdt": 0.0},
    "slices": {}
  },
  "time": {
    "samples": {
      "AcquisitionNumber": [1, 2, 3, 4, 5, 6, 7, 8, 9, 10, 11, 12, 13, 14, 15, 16, 17, 18, 19, 20, 21, 22, 23, 24, 25, 26, 27, 28, 29, 30, 31, 32, 33, 34, 35, 36, 37, 38, 39, 40, 41, 42, 43, 44, 45, 46, 47, 48, 49, 50, 51, 52, 53, 54, 55, 56, 57, 58, 59, 60, 61, 62, 63, 64, 65, 66, 67, 68, 69, 70, 71, 72, 73, 74, 75, 76, 77, 78, 79, 80, 81, 82, 83, 84, 85, 86, 87, 88, 89, 90, 91, 92, 93, 94, 95, 96, 97, 98, 99, 100, 101, 102, 103, 104, 105, 106, 107, 108, 109, 110, 111, 112, 113, 114, 115, 116, 117, 118, 119, 120, 121, 122, 123, 124, 125, 126, 127, 128, 129, 130, 131, 132, 133, 134, 135, 136, 137, 138, 139, 140, 141, 142, 143, 144, 145, 146, 147, 148, 149, 150, 151, 152, 153, 154, 155, 156, 157, 158, 159, 160, 161, 162, 163, 164, 165, 166, 167, 168, 169, 170, 171, 172, 173, 174, 175, 176, 177, 178, 179, 180, 181, 182, 183, 184, 185, 186, 187, 188, 189, 190, 191, 192, 193, 194, 195, 196, 197, 198, 199, 200, 201, 202, 203, 204, 205, 206, 207, 208, 209, 210, 211, 212, 213, 214, 215, 216, 217, 218, 219, 220, 221, 222, 223, 224, 225, 226, 227, 228, 229, 230, 231, 232, 233, 234, 235, 236, 237, 238, 239, 240, 241, 242, 243, 244, 245, 246, 247, 248, 249, 250, 251, 252, 253, 254, 255, 256, 257, 258, 259, 260, 261, 262, 263, 264, 265, 266, 267, 268, 269, 270, 271, 272, 273, 274, 275, 276, 277, 278, 279, 280, 281, 282, 283, 284, 285, 286, 287, 288, 289, 290, 291, 292, 293, 294, 295, 296, 297, 298, 299, 300, 301, 302, 303, 304, 305, 306, 307, 308, 309, 310, 311, 312, 313, 314, 315, 316, 317, 318, 319, 320, 321, 322, 323, 324, 325, 326, 327, 328, 329, 330, 331, 332, 333, 334, 335, 336, 337, 338, 339, 340, 341, 342, 343, 344, 345, 346, 347, 348, 349, 350, 351, 352, 353, 354, 355, 356, 357, 358, 359, 360, 361, 362, 363, 364, 365, 366, 367, 368, 369, 370, 371, 372, 373, 374, 375, 376, 377, 378, 379, 380, 381, 382, 383, 384, 385, 386, 387, 388, 389, 390, 391, 392, 393, 394, 395, 396, 397, 398, 399, 400, 401, 402, 403, 404, 405, 406, 407, 408, 409, 410, 411, 412, 413, 414, 415, 416, 417, 418, 419, 420, 421, 422, 423, 424, 425, 426, 427, 428, 429, 430, 431, 432, 433, 434, 435, 436, 437, 438, 439, 440, 441, 442, 443, 444, 445, 446, 447, 448, 449, 450, 451, 452, 453, 454, 455, 456, 457, 458, 459, 460, 461, 462, 463, 464, 465, 466, 467, 468, 469, 470, 471, 472, 473, 474, 475, 476, 477, 478, 479, 480, 481, 482, 483, 484, 485, 486, 487, 488, 489, 490, 491, 492, 493, 494, 495, 496, 497, 498, 499, 500, 501, 502, 503, 504, 505, 506, 507, 508, 509, 510, 511, 512, 513, 514, 515, 516, 517, 518, 519, 520, 521, 522, 523, 524, 525, 526, 527, 528, 529, 530, 531, 532, 533, 534, 535, 536, 537, 538, 539, 540, 541, 542, 543, 544, 545, 546, 547, 548, 549, 550, 551, 552, 553, 554, 555, 556, 557, 558, 559, 560, 561, 562, 563, 564, 565, 566, 567, 568, 569, 570, 571, 572, 573, 574, 575, 576, 577, 578, 579, 580, 581],
      "AcquisitionTime": ["152316.722500", "152317.512500", "152318.300000", "152319.087500", "152319.877500", "152320.665000", "152321.452500", "152322.240000", "152323.030000", "152323.817500", "152324.605000", "152325.392500", "152326.182500", "152326.970000", "152327.757500", "152328.545000", "152329.335000", "152330.122500", "152330.910000", "152331.697500", "152332.487500", "152333.275000", "152334.062500", "152334.850000", "152335.640000", "152336.427500", "152337.215000", "152338.005000", "152338.792500", "152339.580000", "152340.367500", "152341.157500", "152341.945000", "152342.732500", "152343.520000", "152344.310000", "152345.097500", "152345.885000", "152346.672500", "152347.462500", "152348.250000", "152349.037500", "152349.825000", "152350.615000", "152351.402500", "152352.190000", "152352.977500", "152353.767500", "152354.555000", "152355.342500", "152356.132500", "152356.920000", "152357.707500", "152358.495000", "152359.285000", "152400.072500", "152400.860000", "152401.647500", "152402.437500", "152403.225000", "152404.012500", "152404.800000", "152405.590000", "152406.377500", "152407.165000", "152407.952500", "152408.742500", "152409.530000", "152410.317500", "152411.105000", "152411.895000", "152412.682500", "152413.470000", "152414.260000", "152415.047500", "152415.835000", "152416.622500", "152417.412500", "152418.200000", "152418.987500", "152419.775000", "152420.565000", "152421.352500", "152422.140000", "152422.927500", "152423.717500", "152424.505000", "152425.292500", "152426.080000", "152426.870000", "152427.657500", "152428.445000", "152429.232500", "152430.022500", "152430.810000", "152431.597500", "152432.387500", "152433.175000", "152433.962500", "152434.750000", "152435.540000", "152436.327500", "152437.115000", "152437.902500", "152438.692500", "152439.480000", "152440.267500", "152441.055000", "152441.845000", "152442.632500", "152443.420000", "152444.207500", "152444.997500", "152445.785000", "152446.572500", "152447.360000", "152448.150000", "152448.937500", "152449.725000", "152450.515000", "152451.302500", "152452.090000", "152452.877500", "152453.667500", "152454.455000", "152455.242500", "152456.030000", "152456.820000", "152457.607500", "152458.395000", "152459.182500", "152459.972500", "152500.760000", "152501.547500", "152502.335000", "152503.125000", "152503.912500", "152504.700000", "152505.487500", "152506.277500", "152507.065000", "152507.852500", "152508.642500", "152509.430000", "152510.217500", "152511.005000", "152511.795000", "152512.582500", "152513.370000", "152514.157500", "152514.947500", "152515.735000", "152516.522500", "152517.310000", "152518.100000", "152518.887500", "152519.675000", "152520.462500", "152521.252500", "152522.040000", "152522.827500", "152523.615000", "152524.405000", "152525.192500", "152525.980000", "152526.770000", "152527.557500", "152528.345000", "152529.132500", "152529.922500", "152530.710000", "152531.497500", "152532.285000", "152533.075000", "152533.862500", "152534.650000", "152535.437500", "152536.227500", "152537.015000", "152537.802500", "152538.590000", "152539.380000", "152540.167500", "152540.955000", "152541.742500", "152542.532500", "152543.320000", "152544.107500", "152544.897500", "152545.685000", "152546.472500", "152547.260000", "152548.050000", "152548.837500", "152549.625000", "152550.412500", "152551.202500", "152551.990000", "152552.777500", "152553.565000", "152554.355000", "152555.142500", "152555.930000", "152556.717500", "152557.507500", "152558.295000", "152559.082500", "152559.870000", "152600.660000", "152601.447500", "152602.235000", "152603.025000", "152603.812500", "152604.600000", "152605.387500", "152606.177500", "152606.965000", "152607.752500", "152608.540000", "152609.330000", "152610.117500", "152610.905000", "152611.692500", "152612.482500", "152613.270000", "152614.057500", "152614.845000", "152615.635000", "152616.422500", "152617.210000", "152618.000000", "152618.787500", "152619.575000", "152620.362500", "152621.152500", "152621.940000", "152622.727500", "152623.515000", "152624.305000", "152625.092500", "152625.880000", "152626.667500", "152627.457500", "152628.245000", "152629.032500", "152629.820000", "152630.610000", "152631.397500", "152632.185000", "152632.972500", "152633.762500", "152634.550000", "152635.337500", "152636.127500", "152636.915000", "152637.702500", "152638.490000", "152639.280000", "152640.067500", "152640.855000", "152641.642500", "152642.432500", "152643.220000", "152644.007500", "152644.795000", "152645.585000", "152646.372500", "152647.160000", "152647.947500", "152648.737500", "152649.525000", "152650.312500", "152651.100000", "152651.890000", "152652.677500", "152653.465000", "152654.255000", "152655.042500", "152655.830000", "152656.617500", "152657.407500", "152658.195000", "152658.982500", "152659.770000", "152700.560000", "152701.347500", "152702.135000", "152702.922500", "152703.712500", "152704.500000", "152705.287500", "152706.075000", "152706.865000", "152707.652500", "152708.440000", "152709.227500", "152710.017500", "152710.805000", "152711.592500", "152712.382500", "152713.170000", "152713.957500", "152714.745000", "152715.535000", "152716.322500", "152717.110000", "152717.897500", "152718.687500", "152719.475000", "152720.262500", "152721.050000", "152721.840000", "152722.627500", "152723.415000", "152724.202500", "152724.992500", "152725.780000", "152726.567500", "152727.355000", "152728.145000", "152728.932500", "152729.720000", "152730.510000", "152731.297500", "152732.085000", "152732.872500", "152733.662500", "152734.450000", "152735.237500", "152736.025000", "152736.815000", "152737.602500", "152738.390000", "152739.177500", "152739.967500", "152740.755000", "152741.542500", "152742.330000", "152743.120000", "152743.907500", "152744.695000", "152745.482500", "152746.272500", "152747.060000", "152747.847500", "152748.637500", "152749.425000", "152750.212500", "152751.000000", "152751.790000", "152752.577500", "152753.365000", "152754.152500", "152754.942500", "152755.730000", "152756.517500", "152757.305000", "152758.095000", "152758.882500", "152759.670000", "152800.457500", "152801.247500", "152802.035000", "152802.822500", "152803.610000", "152804.400000", "152805.187500", "152805.975000", "152806.765000", "152807.552500", "152808.340000", "152809.127500", "152809.917500", "152810.705000", "152811.492500", "152812.280000", "152813.070000", "152813.857500", "152814.645000", "152815.432500", "152816.222500", "152817.010000", "152817.797500", "152818.585000", "152819.375000", "152820.162500", "152820.950000", "152821.737500", "152822.527500", "152823.315000", "152824.102500", "152824.892500", "152825.680000", "152826.467500", "152827.255000", "152828.045000", "152828.832500", "152829.620000", "152830.407500", "152831.197500", "152831.985000", "152832.772500", "152833.560000", "152834.350000", "152835.137500", "152835.925000", "152836.712500", "152837.502500", "152838.290000", "152839.077500", "152839.865000", "152840.655000", "152841.442500", "152842.230000", "152843.020000", "152843.807500", "152844.595000", "152845.382500", "152846.172500", "152846.960000", "152847.747500", "152848.535000", "152849.325000", "152850.112500", "152850.900000", "152851.687500", "152852.477500", "152853.265000", "152854.052500", "152854.840000", "152855.630000", "152856.417500", "152857.205000", "152857.992500", "152858.782500", "152859.570000", "152900.357500", "152901.147500", "152901.935000", "152902.722500", "152903.510000", "152904.300000", "152905.087500", "152905.875000", "152906.662500", "152907.452500", "152908.240000", "152909.027500", "152909.815000", "152910.605000", "152911.392500", "152912.180000", "152912.967500", "152913.757500", "152914.545000", "152915.332500", "152916.120000", "152916.910000", "152917.697500", "152918.485000", "152919.275000", "152920.062500", "152920.850000", "152921.637500", "152922.427500", "152923.215000", "152924.002500", "152924.790000", "152925.580000", "152926.367500", "152927.155000", "152927.942500", "152928.732500", "152929.520000", "152930.307500", "152931.095000", "152931.885000", "152932.672500", "152933.460000", "152934.250000", "152935.037500", "152935.825000", "152936.612500", "152937.402500", "152938.190000", "152938.977500", "152939.765000", "152940.555000", "152941.342500", "152942.130000", "152942.917500", "152943.707500", "152944.495000", "152945.282500", "152946.070000", "152946.860000", "152947.647500", "152948.435000", "152949.222500", "152950.012500", "152950.800000", "152951.587500", "152952.377500", "152953.165000", "152953.952500", "152954.740000", "152955.530000", "152956.317500", "152957.105000", "152957.892500", "152958.682500", "152959.470000", "153000.257500", "153001.045000", "153001.835000", "153002.622500", "153003.410000", "153004.197500", "153004.987500", "153005.775000", "153006.562500", "153007.350000", "153008.140000", "153008.927500", "153009.715000", "153010.505000", "153011.292500", "153012.080000", "153012.867500", "153013.657500", "153014.445000", "153015.232500", "153016.020000", "153016.810000", "153017.597500", "153018.385000", "153019.172500", "153019.962500", "153020.750000", "153021.537500", "153022.325000", "153023.115000", "153023.902500", "153024.690000", "153025.477500", "153026.267500", "153027.055000", "153027.842500", "153028.632500", "153029.420000", "153030.207500", "153030.995000", "153031.785000", "153032.572500", "153033.360000", "153034.147500", "153034.937500", "153035.725000", "153036.512500", "153037.300000", "153038.090000", "153038.877500", "153039.665000", "153040.452500", "153041.242500", "153042.030000", "153042.817500", "153043.605000", "153044.395000", "153045.182500", "153045.970000", "153046.760000", "153047.547500", "153048.335000", "153049.122500", "153049.912500", "153050.700000", "153051.487500", "153052.275000", "153053.065000", "153053.852500"],
      "ContentTime": ["152352.453000", "152352.453000", "152352.453000", "152352.453000", "152352.453000", "152352.453000", "152352.468000", "152352.468000", "152352.468000", "152352.468000", "152352.468000", "152352.468000", "152352.468000", "152352.468000", "152352.484000", "152352.484000", "152352.484000", "152352.484000", "152352.484000", "152352.484000", "152352.500000", "152352.500000", "152352.500000", "152352.500000", "152352.500000", "152352.500000", "152352.500000", "152352.500000", "152352.515000", "152352.515000", "152352.515000", "152352.515000", "152352.515000", "152352.515000", "152352.515000", "152352.515000", "152352.531000", "152352.531000", "152352.531000", "152352.531000", "152352.531000", "152352.546000", "152412.421000", "152412.421000", "152412.437000", "152412.437000", "152412.437000", "152412.437000", "152412.437000", "152412.437000", "152412.437000", "152412.453000", "152412.453000", "152412.453000", "152412.453000", "152412.453000", "152412.453000", "152412.453000", "152412.468000", "152412.468000", "152412.468000", "152412.468000", "152412.468000", "152412.468000", "152412.468000", "152412.468000", "152412.484000", "152432.421000", "152432.421000", "152432.437000", "152432.437000", "152432.437000", "152432.437000", "152432.437000", "152432.437000", "152432.437000", "152432.453000", "152432.453000", "152432.453000", "152432.453000", "152432.453000", "152432.453000", "152432.453000", "152432.468000", "152432.468000", "152432.468000", "152432.468000", "152432.468000", "152432.468000", "152432.468000", "152432.468000", "152432.484000", "152432.484000", "152452.421000", "152452.421000", "152452.437000", "152452.437000", "152452.437000", "152452.437000", "152452.437000", "152452.437000", "152452.437000", "152452.453000", "152452.453000", "152452.453000", "152452.453000", "152452.453000", "152452.453000", "152452.453000", "152452.468000", "152452.468000", "152452.468000", "152452.468000", "152452.468000", "152452.484000", "152452.484000", "152452.484000", "152452.484000", "152512.421000", "152512.421000", "152512.437000", "152512.437000", "152512.437000", "152512.437000", "152512.437000", "152512.437000", "152512.437000", "152512.453000", "152512.453000", "152512.453000", "152512.453000", "152512.453000", "152512.453000", "152512.453000", "152512.453000", "152512.468000", "152512.468000", "152512.468000", "152512.468000", "152512.468000", "152512.468000", "152512.484000", "152512.484000", "152512.484000", "152532.421000", "152532.421000", "152532.437000", "152532.437000", "152532.437000", "152532.437000", "152532.437000", "152532.437000", "152532.437000", "152532.453000", "152532.453000", "152532.453000", "152532.453000", "152532.453000", "152532.453000", "152532.453000", "152532.453000", "152532.468000", "152532.468000", "152532.468000", "152532.468000", "152532.468000", "152532.468000", "152532.468000", "152532.484000", "152552.421000", "152552.421000", "152552.437000", "152552.437000", "152552.437000", "152552.437000", "152552.437000", "152552.437000", "152552.437000", "152552.453000", "152552.453000", "152552.453000", "152552.453000", "152552.453000", "152552.453000", "152552.453000", "152552.468000", "152552.468000", "152552.468000", "152552.468000", "152552.468000", "152552.468000", "152552.468000", "152552.484000", "152552.484000", "152552.484000", "152612.421000", "152612.421000", "152612.437000", "152612.437000", "152612.437000", "152612.437000", "152612.437000", "152612.437000", "152612.437000", "152612.453000", "152612.453000", "152612.453000", "152612.453000", "152612.453000", "152612.453000", "152612.453000", "152612.468000", "152612.468000", "152612.468000", "152612.468000", "152612.468000", "152612.468000", "152612.468000", "152612.468000", "152612.484000", "152632.421000", "152632.421000", "152632.437000", "152632.437000", "152632.437000", "152632.437000", "152632.437000", "152632.437000", "152632.453000", "152632.453000", "152632.453000", "152632.453000", "152632.453000", "152632.453000", "152632.468000", "152632.468000", "152632.468000", "152632.468000", "152632.468000", "152632.468000", "152632.468000", "152632.484000", "152632.484000", "152632.484000", "152632.484000", "152652.421000", "152652.421000", "152652.437000", "152652.437000", "152652.437000", "152652.437000", "152652.437000", "152652.437000", "152652.437000", "152652.453000", "152652.453000", "152652.453000", "152652.453000", "152652.453000", "152652.453000", "152652.453000", "152652.453000", "152652.468000", "152652.468000", "152652.468000", "152652.468000", "152652.468000", "152652.468000", "152652.468000", "152652.484000", "152652.484000", "152712.421000", "152712.421000", "152712.437000", "152712.437000", "152712.437000", "152712.437000", "152712.437000", "152712.437000", "152712.437000", "152712.453000", "152712.453000", "152712.453000", "152712.453000", "152712.453000", "152712.453000", "152712.468000", "152712.468000", "152712.468000", "152712.468000", "152712.468000", "152712.468000", "152712.468000", "152712.484000", "152712.484000", "152712.484000", "152732.421000", "152732.421000", "152732.437000", "152732.437000", "152732.437000", "152732.437000", "152732.437000", "152732.437000", "152732.437000", "152732.453000", "152732.453000", "152732.453000", "152732.453000", "152732.453000", "152732.453000", "152732.453000", "152732.453000", "152732.468000", "152732.468000", "152732.468000", "152732.468000", "152732.468000", "152732.468000", "152732.468000", "152732.468000", "152732.484000", "152752.421000", "152752.421000", "152752.437000", "152752.437000", "152752.437000", "152752.437000", "152752.437000", "152752.437000", "152752.437000", "152752.453000", "152752.453000", "152752.453000", "152752.453000", "152752.468000", "152752.468000", "152752.468000", "152752.468000", "152752.468000", "152752.484000", "152752.484000", "152752.484000", "152752.484000", "152752.484000", "152752.484000", "152752.484000", "152812.421000", "152812.437000", "152812.437000", "152812.437000", "152812.437000", "152812.437000", "152812.437000", "152812.437000", "152812.437000", "152812.453000", "152812.453000", "152812.453000", "152812.453000", "152812.453000", "152812.453000", "152812.453000", "152812.453000", "152812.468000", "152812.468000", "152812.468000", "152812.468000", "152812.468000", "152812.468000", "152812.468000", "152812.484000", "152812.484000", "152832.421000", "152832.421000", "152832.437000", "152832.437000", "152832.437000", "152832.437000", "152832.437000", "152832.437000", "152832.437000", "152832.453000", "152832.453000", "152832.453000", "152832.453000", "152832.453000", "152832.453000", "152832.453000", "152832.468000", "152832.468000", "152832.468000", "152832.468000", "152832.484000", "152832.484000", "152832.484000", "152832.484000", "152832.484000", "152852.421000", "152852.421000", "152852.437000", "152852.437000", "152852.437000", "152852.437000", "152852.437000", "152852.437000", "152852.437000", "152852.453000", "152852.453000", "152852.453000", "152852.453000", "152852.453000", "152852.468000", "152852.468000", "152852.468000", "152852.468000", "152852.468000", "152852.468000", "152852.468000", "152852.484000", "152852.484000", "152852.484000", "152852.484000", "152852.484000", "152912.421000", "152912.437000", "152912.437000", "152912.437000", "152912.437000", "152912.437000", "152912.437000", "152912.453000", "152912.453000", "152912.453000", "152912.453000", "152912.453000", "152912.453000", "152912.453000", "152912.453000", "152912.468000", "152912.468000", "152912.468000", "152912.468000", "152912.468000", "152912.468000", "152912.468000", "152912.484000", "152912.484000", "152912.484000", "152932.421000", "152932.421000", "152932.437000", "152932.437000", "152932.437000", "152932.437000", "152932.437000", "152932.437000", "152932.437000", "152932.453000", "152932.453000", "152932.453000", "152932.453000", "152932.453000", "152932.453000", "152932.453000", "152932.468000", "152932.468000", "152932.468000", "152932.468000", "152932.468000", "152932.468000", "152932.468000", "152932.468000", "152932.484000", "152932.484000", "152952.421000", "152952.421000", "152952.437000", "152952.437000", "152952.437000", "152952.437000", "152952.437000", "152952.437000", "152952.437000", "152952.453000", "152952.453000", "152952.453000", "152952.453000", "152952.453000", "152952.453000", "152952.453000", "152952.453000", "152952.468000", "152952.468000", "152952.468000", "152952.468000", "152952.468000", "152952.468000", "152952.468000", "152952.468000", "153012.421000", "153012.421000", "153012.437000", "153012.437000", "153012.437000", "153012.437000", "153012.437000", "153012.437000", "153012.453000", "153012.453000", "153012.453000", "153012.453000", "153012.453000", "153012.453000", "153012.453000", "153012.453000", "153012.468000", "153012.468000", "153012.468000", "153012.468000", "153012.468000", "153012.468000", "153012.468000", "153012.484000", "153012.484000", "153012.484000", "153032.421000", "153032.421000", "153032.437000", "153032.437000", "153032.437000", "153032.437000", "153032.437000", "153032.453000", "153032.453000", "153032.453000", "153032.453000", "153032.453000", "153032.453000", "153032.453000", "153032.468000", "153032.468000", "153032.468000", "153032.468000", "153032.468000", "153032.468000", "153032.468000", "153032.484000", "153032.484000", "153032.484000", "153032.484000", "153052.421000", "153052.421000", "153052.437000", "153052.437000", "153052.437000", "153052.437000", "153052.437000", "153052.437000", "153052.437000", "153052.453000", "153052.453000", "153052.453000", "153052.453000", "153052.453000", "153052.453000", "153052.453000", "153052.453000", "153052.468000", "153052.468000", "153052.468000", "153052.468000", "153052.468000", "153052.468000", "153052.484000", "153052.484000", "153052.484000", "153055.484000", "153055.500000", "153055.500000", "153055.500000"],
