{
  "AcquisitionMatrixPE": 104,
  "AcquisitionNumber": 1,
  "AcquisitionTime": "12:02:25.672500",
  "BandwidthPerPixelPhaseEncode": 13.935,
  "BaseResolution": 104,
  "CoilString": "C:HEA;HEP",
  "ConversionSoftware": "dcm2niix",
  "ConversionSoftwareVersion": "v1.0.20210317",
  "DerivedVendorReportedEchoSpacing": 0.000690017,
  "DeviceSerialNumber": "35450",
  "DwellTime": 2.5e-06,
  "EchoTime": 0.0348,
  "EffectiveEchoSpacing": 0.000690017,
  "FlipAngle": 55,
  "ImageComments": "Unaliased MB8/PE3 (remote)",
  "ImageOrientationPatientDICOM": [0.999938, -0.00123514, -0.0110232, 1.12873e-08, 0.993781, -0.111351],
  "ImageType": [
    "ORIGINAL",
    "PRIMARY",
    "M",
    "MB",
    "ND",
    "MOSAIC"
],
  "ImagingFrequency": 123.235,
  "InPlanePhaseEncodingDirectionDICOM": "COL",
  "InstitutionAddress": "Univeristy Ave. 197,Newark,North East,US,07102-1814",
  "InstitutionName": "RUBIC",
  "InstitutionalDepartmentName": "Department",
  "MRAcquisitionType": "2D",
  "MagneticFieldStrength": 3,
  "Manufacturer": "Siemens",
  "ManufacturersModelName": "TrioTim",
  "Modality": "MR",
  "MultibandAccelerationFactor": 8,
  "PartialFourier": 0.875,
  "PatientPosition": "HFS",
  "PercentPhaseFOV": 100,
  "PercentSampling": 100,
  "PhaseEncodingDirection": "j-",
  "PhaseEncodingSteps": 91,
  "PhaseResolution": 1,
  "PixelBandwidth": 1923,
  "ProcedureStepDescription": "Cole^Michael",
  "ProtocolName": "cmrr_mbep2d_bold_2mm_MB8_Task_8x",
  "PulseSequenceDetails": "%CustomerSeq%\\cmrr_mbep2d_bold",
  "ReceiveCoilName": "32Ch_Head",
  "ReconMatrixPE": 104,
  "RepetitionTime": 0.785,
  "SAR": 0.132854,
  "ScanOptions": "PFP\\FS",
  "ScanningSequence": "EP",
  "SequenceName": "epfid2d1_104",
  "SequenceVariant": "SK\\SS",
  "SeriesDescription": "cmrr_mbep2d_bold_2mm_MB8_Task_8x",
  "SeriesNumber": 25,
  "ShimSetting": [2125, -431, -7418, 548, 136, -669, 238, -49],
  "SliceThickness": 2,
  "SliceTiming": [0, 0.4375, 0.0875, 0.525, 0.175, 0.6125, 0.2625, 0.7, 0.35, 0, 0.4375, 0.0875, 0.525, 0.175, 0.6125, 0.2625, 0.7, 0.35, 0, 0.4375, 0.0875, 0.525, 0.175, 0.6125, 0.2625, 0.7, 0.35, 0, 0.4375, 0.0875, 0.525, 0.175, 0.6125, 0.2625, 0.7, 0.35, 0, 0.4375, 0.0875, 0.525, 0.175, 0.6125, 0.2625, 0.7, 0.35, 0, 0.4375, 0.0875, 0.525, 0.175, 0.6125, 0.2625, 0.7, 0.35, 0, 0.4375, 0.0875, 0.525, 0.175, 0.6125, 0.2625, 0.7, 0.35, 0, 0.4375, 0.0875, 0.525, 0.175, 0.6125, 0.2625, 0.7, 0.35],
  "SoftwareVersions": "syngo MR B19",
  "SpacingBetweenSlices": 2,
  "StationName": "MRC35450",
  "TaskName": "cpro",
  "TotalReadoutTime": 0.0710717,
  "TxRefAmp": 323.504,
  "dcmmeta_affine": [
    [-1.9998769760131836, 2.257453957099642e-08, -0.022184379398822784, 103.84369659423828],
    [0.0024702781811356544, 1.9875622987747192, -0.22268857061862946, -87.72187805175781],
    [-0.022046415135264397, 0.2227022647857666, 1.9874399900436401, -101.19713592529297],
    [0.0, 0.0, 0.0, 1.0]
],
  "dcmmeta_reorient_transform": [
    [0.0, -1.0, 0.0, 103.0],
    [1.0, 0.0, 0.0, 0.0],
    [0.0, 0.0, 1.0, 0.0],
    [0.0, 0.0, 0.0, 1.0]
],
  "dcmmeta_shape": [104, 104, 72, 581],
  "dcmmeta_slice_dim": 2,
  "dcmmeta_version": 0.6,
  "global": {
    "const": {
      "AcquisitionMatrix": [104, 0, 0, 104],
      "AngioFlag": "N",
      "BitsAllocated": 16,
      "BitsStored": 12,
      "Columns": 936,
      "EchoNumbers": 1,
      "EchoTime": 34.8,
      "EchoTrainLength": 1,
      "FlipAngle": 55.0,
      "HighBit": 11,
      "ImageOrientationPatient": [0.99993847977015, -0.0012351391402, -0.0110232076216, 1.128727e-08, 0.99378112518585, -0.1113511348139],
      "ImagePositionPatient": [-935.79252707413, -942.79529788256, 23.556651487433],
      "ImageType": [
        "ORIGINAL",
        "PRIMARY",
        "M",
        "MB",
        "ND",
        "MOSAIC"
],
      "ImagedNucleus": "1H",
      "ImagingFrequency": 123.234521,
      "InPlanePhaseEncodingDirection": "COL",
      "MRAcquisitionType": "2D",
      "MagneticFieldStrength": 3.0,
      "Manufacturer": "SIEMENS",
      "ManufacturerModelName": "TrioTim",
      "Modality": "MR",
      "NumberOfAverages": 1.0,
      "NumberOfPhaseEncodingSteps": 91,
      "PercentPhaseFieldOfView": 100.0,
      "PercentSampling": 100.0,
      "PerformedProcedureStepStartTime": "101628.609000",
      "PhotometricInterpretation": "MONOCHROME2",
      "PixelBandwidth": 1923.0,
      "PixelRepresentation": 0,
      "PixelSpacing": [2.0, 2.0],
      "ProtocolName": "cmrr_mbep2d_bold_2mm_MB8_Task_8x",
      "RepetitionTime": 785.0,
      "Rows": 936,
      "SAR": 0.13285432915732,
      "SamplesPerPixel": 1,
      "ScanOptions": [
        "PFP",
        "FS"
],
      "ScanningSequence": "EP",
      "SequenceName": "epfid2d1_104",
      "SequenceVariant": [
        "SK",
        "SS"
],
      "SeriesDescription": "cmrr_mbep2d_bold_2mm_MB8_Task_8x",
      "SeriesNumber": 25,
      "SeriesTime": "120253.593000",
      "SliceLocation": -91.94614064169,
      "SliceThickness": 2.0,
      "SmallestImagePixelValue": 0,
      "SoftwareVersions": "syngo MR B19",
      "SpacingBetweenSlices": 2.0000000537201,
      "SpecificCharacterSet": "ISO_IR 100",
      "StudyID": "1",
      "StudyTime": "101628.468000",
      "TransmitCoilName": "Body",
      "VariableFlipAngleFlag": "N",
      "WindowCenterWidthExplanation": "Algo1",
      "dBdt": 0.0},
    "slices": {}
  },
  "time": {
    "samples": {
      "AcquisitionNumber": [1, 2, 3, 4, 5, 6, 7, 8, 9, 10, 11, 12, 13, 14, 15, 16, 17, 18, 19, 20, 21, 22, 23, 24, 25, 26, 27, 28, 29, 30, 31, 32, 33, 34, 35, 36, 37, 38, 39, 40, 41, 42, 43, 44, 45, 46, 47, 48, 49, 50, 51, 52, 53, 54, 55, 56, 57, 58, 59, 60, 61, 62, 63, 64, 65, 66, 67, 68, 69, 70, 71, 72, 73, 74, 75, 76, 77, 78, 79, 80, 81, 82, 83, 84, 85, 86, 87, 88, 89, 90, 91, 92, 93, 94, 95, 96, 97, 98, 99, 100, 101, 102, 103, 104, 105, 106, 107, 108, 109, 110, 111, 112, 113, 114, 115, 116, 117, 118, 119, 120, 121, 122, 123, 124, 125, 126, 127, 128, 129, 130, 131, 132, 133, 134, 135, 136, 137, 138, 139, 140, 141, 142, 143, 144, 145, 146, 147, 148, 149, 150, 151, 152, 153, 154, 155, 156, 157, 158, 159, 160, 161, 162, 163, 164, 165, 166, 167, 168, 169, 170, 171, 172, 173, 174, 175, 176, 177, 178, 179, 180, 181, 182, 183, 184, 185, 186, 187, 188, 189, 190, 191, 192, 193, 194, 195, 196, 197, 198, 199, 200, 201, 202, 203, 204, 205, 206, 207, 208, 209, 210, 211, 212, 213, 214, 215, 216, 217, 218, 219, 220, 221, 222, 223, 224, 225, 226, 227, 228, 229, 230, 231, 232, 233, 234, 235, 236, 237, 238, 239, 240, 241, 242, 243, 244, 245, 246, 247, 248, 249, 250, 251, 252, 253, 254, 255, 256, 257, 258, 259, 260, 261, 262, 263, 264, 265, 266, 267, 268, 269, 270, 271, 272, 273, 274, 275, 276, 277, 278, 279, 280, 281, 282, 283, 284, 285, 286, 287, 288, 289, 290, 291, 292, 293, 294, 295, 296, 297, 298, 299, 300, 301, 302, 303, 304, 305, 306, 307, 308, 309, 310, 311, 312, 313, 314, 315, 316, 317, 318, 319, 320, 321, 322, 323, 324, 325, 326, 327, 328, 329, 330, 331, 332, 333, 334, 335, 336, 337, 338, 339, 340, 341, 342, 343, 344, 345, 346, 347, 348, 349, 350, 351, 352, 353, 354, 355, 356, 357, 358, 359, 360, 361, 362, 363, 364, 365, 366, 367, 368, 369, 370, 371, 372, 373, 374, 375, 376, 377, 378, 379, 380, 381, 382, 383, 384, 385, 386, 387, 388, 389, 390, 391, 392, 393, 394, 395, 396, 397, 398, 399, 400, 401, 402, 403, 404, 405, 406, 407, 408, 409, 410, 411, 412, 413, 414, 415, 416, 417, 418, 419, 420, 421, 422, 423, 424, 425, 426, 427, 428, 429, 430, 431, 432, 433, 434, 435, 436, 437, 438, 439, 440, 441, 442, 443, 444, 445, 446, 447, 448, 449, 450, 451, 452, 453, 454, 455, 456, 457, 458, 459, 460, 461, 462, 463, 464, 465, 466, 467, 468, 469, 470, 471, 472, 473, 474, 475, 476, 477, 478, 479, 480, 481, 482, 483, 484, 485, 486, 487, 488, 489, 490, 491, 492, 493, 494, 495, 496, 497, 498, 499, 500, 501, 502, 503, 504, 505, 506, 507, 508, 509, 510, 511, 512, 513, 514, 515, 516, 517, 518, 519, 520, 521, 522, 523, 524, 525, 526, 527, 528, 529, 530, 531, 532, 533, 534, 535, 536, 537, 538, 539, 540, 541, 542, 543, 544, 545, 546, 547, 548, 549, 550, 551, 552, 553, 554, 555, 556, 557, 558, 559, 560, 561, 562, 563, 564, 565, 566, 567, 568, 569, 570, 571, 572, 573, 574, 575, 576, 577, 578, 579, 580, 581],
      "AcquisitionTime": ["120225.672500", "120226.460000", "120227.247500", "120228.037500", "120228.825000", "120229.612500", "120230.400000", "120231.190000", "120231.977500", "120232.765000", "120233.552500", "120234.342500", "120235.130000", "120235.917500", "120236.705000", "120237.495000", "120238.282500", "120239.070000", "120239.857500", "120240.647500", "120241.435000", "120242.222500", "120243.012500", "120243.800000", "120244.587500", "120245.375000", "120246.165000", "120246.952500", "120247.740000", "120248.527500", "120249.317500", "120250.105000", "120250.892500", "120251.680000", "120252.470000", "120253.257500", "120254.045000", "120254.832500", "120255.622500", "120256.410000", "120257.197500", "120257.985000", "120258.775000", "120259.562500", "120300.350000", "120301.140000", "120301.927500", "120302.715000", "120303.502500", "120304.292500", "120305.080000", "120305.867500", "120306.655000", "120307.445000", "120308.232500", "120309.020000", "120309.807500", "120310.597500", "120311.385000", "120312.172500", "120312.960000", "120313.750000", "120314.537500", "120315.325000", "120316.112500", "120316.902500", "120317.690000", "120318.477500", "120319.267500", "120320.055000", "120320.842500", "120321.630000", "120322.420000", "120323.207500", "120323.995000", "120324.782500", "120325.572500", "120326.360000", "120327.147500", "120327.935000", "120328.725000", "120329.512500", "120330.300000", "120331.087500", "120331.877500", "120332.665000", "120333.452500", "120334.240000", "120335.030000", "120335.817500", "120336.605000", "120337.395000", "120338.182500", "120338.970000", "120339.757500", "120340.547500", "120341.335000", "120342.122500", "120342.910000", "120343.700000", "120344.487500", "120345.275000", "120346.062500", "120346.852500", "120347.640000", "120348.427500", "120349.215000", "120350.005000", "120350.792500", "120351.580000", "120352.367500", "120353.157500", "120353.945000", "120354.732500", "120355.522500", "120356.310000", "120357.097500", "120357.885000", "120358.675000", "120359.462500", "120400.250000", "120401.037500", "120401.827500", "120402.615000", "120403.402500", "120404.190000", "120404.980000", "120405.767500", "120406.555000", "120407.342500", "120408.132500", "120408.920000", "120409.707500", "120410.495000", "120411.285000", "120412.072500", "120412.860000", "120413.650000", "120414.437500", "120415.225000", "120416.012500", "120416.802500", "120417.590000", "120418.377500", "120419.165000", "120419.955000", "120420.742500", "120421.530000", "120422.317500", "120423.107500", "120423.895000", "120424.682500", "120425.470000", "120426.260000", "120427.047500", "120427.835000", "120428.622500", "120429.412500", "120430.200000", "120430.987500", "120431.777500", "120432.565000", "120433.352500", "120434.140000", "120434.930000", "120435.717500", "120436.505000", "120437.292500", "120438.082500", "120438.870000", "120439.657500", "120440.445000", "120441.235000", "120442.022500", "120442.810000", "120443.597500", "120444.387500", "120445.175000", "120445.962500", "120446.752500", "120447.540000", "120448.327500", "120449.115000", "120449.905000", "120450.692500", "120451.480000", "120452.267500", "120453.057500", "120453.845000", "120454.632500", "120455.420000", "120456.210000", "120456.997500", "120457.785000", "120458.572500", "120459.362500", "120500.150000", "120500.937500", "120501.725000", "120502.515000", "120503.302500", "120504.090000", "120504.880000", "120505.667500", "120506.455000", "120507.242500", "120508.032500", "120508.820000", "120509.607500", "120510.395000", "120511.185000", "120511.972500", "120512.760000", "120513.547500", "120514.337500", "120515.125000", "120515.912500", "120516.700000", "120517.490000", "120518.277500", "120519.065000", "120519.852500", "120520.642500", "120521.430000", "120522.217500", "120523.007500", "120523.795000", "120524.582500", "120525.370000", "120526.160000", "120526.947500", "120527.735000", "120528.522500", "120529.312500", "120530.100000", "120530.887500", "120531.675000", "120532.465000", "120533.252500", "120534.040000", "120534.827500", "120535.617500", "120536.405000", "120537.192500", "120537.980000", "120538.770000", "120539.557500", "120540.345000", "120541.135000", "120541.922500", "120542.710000", "120543.497500", "120544.287500", "120545.075000", "120545.862500", "120546.650000", "120547.440000", "120548.227500", "120549.015000", "120549.802500", "120550.592500", "120551.380000", "120552.167500", "120552.955000", "120553.745000", "120554.532500", "120555.320000", "120556.107500", "120556.897500", "120557.685000", "120558.472500", "120559.262500", "120600.050000", "120600.837500", "120601.625000", "120602.415000", "120603.202500", "120603.990000", "120604.777500", "120605.567500", "120606.355000", "120607.142500", "120607.930000", "120608.720000", "120609.507500", "120610.295000", "120611.082500", "120611.872500", "120612.660000", "120613.447500", "120614.235000", "120615.025000", "120615.812500", "120616.600000", "120617.390000", "120618.177500", "120618.965000", "120619.752500", "120620.542500", "120621.330000", "120622.117500", "120622.905000", "120623.695000", "120624.482500", "120625.270000", "120626.057500", "120626.847500", "120627.635000", "120628.422500", "120629.210000", "120630.000000", "120630.787500", "120631.575000", "120632.362500", "120633.152500", "120633.940000", "120634.727500", "120635.517500", "120636.305000", "120637.092500", "120637.880000", "120638.670000", "120639.457500", "120640.245000", "120641.032500", "120641.822500", "120642.610000", "120643.397500", "120644.185000", "120644.975000", "120645.762500", "120646.550000", "120647.337500", "120648.127500", "120648.915000", "120649.702500", "120650.490000", "120651.280000", "120652.067500", "120652.855000", "120653.645000", "120654.432500", "120655.220000", "120656.007500", "120656.797500", "120657.585000", "120658.372500", "120659.160000", "120659.950000", "120700.737500", "120701.525000", "120702.312500", "120703.102500", "120703.890000", "120704.677500", "120705.465000", "120706.255000", "120707.042500", "120707.830000", "120708.617500", "120709.407500", "120710.195000", "120710.982500", "120711.772500", "120712.560000", "120713.347500", "120714.135000", "120714.925000", "120715.712500", "120716.500000", "120717.287500", "120718.077500", "120718.865000", "120719.652500", "120720.440000", "120721.230000", "120722.017500", "120722.805000", "120723.592500", "120724.382500", "120725.170000", "120725.957500", "120726.745000", "120727.535000", "120728.322500", "120729.110000", "120729.900000", "120730.687500", "120731.475000", "120732.262500", "120733.052500", "120733.840000", "120734.627500", "120735.415000", "120736.205000", "120736.992500", "120737.780000", "120738.567500", "120739.357500", "120740.145000", "120740.932500", "120741.720000", "120742.510000", "120743.297500", "120744.085000", "120744.872500", "120745.662500", "120746.450000", "120747.237500", "120748.027500", "120748.815000", "120749.602500", "120750.390000", "120751.180000", "120751.967500", "120752.755000", "120753.542500", "120754.332500", "120755.120000", "120755.907500", "120756.695000", "120757.485000", "120758.272500", "120759.060000", "120759.847500", "120800.637500", "120801.425000", "120802.212500", "120803.002500", "120803.790000", "120804.577500", "120805.365000", "120806.155000", "120806.942500", "120807.730000", "120808.517500", "120809.307500", "120810.095000", "120810.882500", "120811.670000", "120812.460000", "120813.247500", "120814.035000", "120814.822500", "120815.612500", "120816.400000", "120817.187500", "120817.975000", "120818.765000", "120819.552500", "120820.340000", "120821.130000", "120821.917500", "120822.705000", "120823.492500", "120824.282500", "120825.070000", "120825.857500", "120826.645000", "120827.435000", "120828.222500", "120829.010000", "120829.797500", "120830.587500", "120831.375000", "120832.162500", "120832.950000", "120833.740000", "120834.527500", "120835.315000", "120836.102500", "120836.892500", "120837.680000", "120838.467500", "120839.257500", "120840.045000", "120840.832500", "120841.620000", "120842.410000", "120843.197500", "120843.985000", "120844.772500", "120845.562500", "120846.350000", "120847.137500", "120847.925000", "120848.715000", "120849.502500", "120850.290000", "120851.077500", "120851.867500", "120852.655000", "120853.442500", "120854.230000", "120855.020000", "120855.807500", "120856.595000", "120857.385000", "120858.172500", "120858.960000", "120859.747500", "120900.537500", "120901.325000", "120902.112500", "120902.900000", "120903.690000", "120904.477500", "120905.265000", "120906.052500", "120906.842500", "120907.630000", "120908.417500", "120909.205000", "120909.995000", "120910.782500", "120911.570000", "120912.357500", "120913.147500", "120913.935000", "120914.722500", "120915.512500", "120916.300000", "120917.087500", "120917.875000", "120918.665000", "120919.452500", "120920.240000", "120921.027500", "120921.817500", "120922.605000", "120923.392500", "120924.180000", "120924.970000", "120925.757500", "120926.545000", "120927.332500", "120928.122500", "120928.910000", "120929.697500", "120930.485000", "120931.275000", "120932.062500", "120932.850000", "120933.640000", "120934.427500", "120935.215000", "120936.002500", "120936.792500", "120937.580000", "120938.367500", "120939.155000", "120939.945000", "120940.732500", "120941.520000", "120942.307500", "120943.097500", "120943.885000", "120944.672500", "120945.460000", "120946.250000", "120947.037500", "120947.825000", "120948.612500", "120949.402500", "120950.190000", "120950.977500", "120951.767500", "120952.555000", "120953.342500", "120954.130000", "120954.920000", "120955.707500", "120956.495000", "120957.282500", "120958.072500", "120958.860000", "120959.647500", "121000.435000", "121001.225000", "121002.012500", "121002.800000"],
      "ContentTime": ["120253.593000", "120253.593000", "120253.609000", "120253.609000", "120253.609000", "120253.609000", "120253.609000", "120253.609000", "120253.625000", "120253.625000", "120253.625000", "120253.625000", "120253.625000", "120253.625000", "120253.625000", "120253.640000", "120253.640000", "120253.640000", "120253.640000", "120253.640000", "120253.640000", "120253.640000", "120253.640000", "120253.656000", "120253.656000", "120253.656000", "120253.656000", "120253.656000", "120253.656000", "120253.656000", "120253.671000", "120253.671000", "120313.578000", "120313.578000", "120313.578000", "120313.578000", "120313.578000", "120313.593000", "120313.593000", "120313.593000", "120313.593000", "120313.593000", "120313.593000", "120313.593000", "120313.609000", "120313.609000", "120313.609000", "120313.609000", "120313.609000", "120313.609000", "120313.609000", "120313.609000", "120313.625000", "120313.625000", "120313.625000", "120313.625000", "120313.625000", "120333.578000", "120333.578000", "120333.578000", "120333.578000", "120333.578000", "120333.593000", "120333.593000", "120333.593000", "120333.593000", "120333.593000", "120333.593000", "120333.609000", "120333.609000", "120333.609000", "120333.609000", "120333.609000", "120333.609000", "120333.609000", "120333.609000", "120333.625000", "120333.625000", "120333.625000", "120333.625000", "120333.625000", "120333.625000", "120353.578000", "120353.578000", "120353.578000", "120353.578000", "120353.578000", "120353.593000", "120353.593000", "120353.593000", "120353.593000", "120353.593000", "120353.593000", "120353.593000", "120353.609000", "120353.609000", "120353.609000", "120353.609000", "120353.609000", "120353.609000", "120353.609000", "120353.609000", "120353.625000", "120353.625000", "120353.625000", "120353.625000", "120353.625000", "120353.625000", "120413.578000", "120413.578000", "120413.578000", "120413.578000", "120413.578000", "120413.593000", "120413.593000", "120413.593000", "120413.593000", "120413.593000", "120413.593000", "120413.593000", "120413.609000", "120413.609000", "120413.609000", "120413.609000", "120413.609000", "120413.609000", "120413.609000", "120413.609000", "120413.625000", "120413.625000", "120413.625000", "120413.625000", "120413.625000", "120433.578000", "120433.578000", "120433.578000", "120433.593000", "120433.593000", "120433.593000", "120433.593000", "120433.593000", "120433.593000", "120433.593000", "120433.609000", "120433.609000", "120433.609000", "120433.609000", "120433.609000", "120433.609000", "120433.609000", "120433.625000", "120433.625000", "120433.625000", "120433.625000", "120433.640000", "120433.640000", "120433.640000", "120433.640000", "120433.640000", "120453.578000", "120453.578000", "120453.578000", "120453.578000", "120453.578000", "120453.593000", "120453.593000", "120453.593000", "120453.593000", "120453.593000", "120453.593000", "120453.593000", "120453.609000", "120453.609000", "120453.609000", "120453.609000", "120453.609000", "120453.609000", "120453.609000", "120453.609000", "120453.625000", "120453.625000", "120453.625000", "120453.625000", "120453.625000", "120513.578000", "120513.578000", "120513.578000", "120513.578000", "120513.578000", "120513.593000", "120513.593000", "120513.593000", "120513.593000", "120513.593000", "120513.593000", "120513.593000", "120513.609000", "120513.609000", "120513.609000", "120513.609000", "120513.609000", "120513.609000", "120513.609000", "120513.625000", "120513.625000", "120513.625000", "120513.625000", "120513.625000", "120513.625000", "120513.625000", "120533.578000", "120533.578000", "120533.578000", "120533.578000", "120533.578000", "120533.593000", "120533.593000", "120533.593000", "120533.593000", "120533.593000", "120533.593000", "120533.593000", "120533.593000", "120533.609000", "120533.609000", "120533.609000", "120533.609000", "120533.609000", "120533.609000", "120533.609000", "120533.625000", "120533.625000", "120533.625000", "120533.625000", "120533.625000", "120553.578000", "120553.578000", "120553.578000", "120553.578000", "120553.578000", "120553.593000", "120553.593000", "120553.593000", "120553.593000", "120553.593000", "120553.593000", "120553.609000", "120553.609000", "120553.609000", "120553.609000", "120553.609000", "120553.609000", "120553.609000", "120553.609000", "120553.625000", "120553.625000", "120553.625000", "120553.625000", "120553.625000", "120553.625000", "120553.625000", "120613.578000", "120613.578000", "120613.578000", "120613.578000", "120613.593000", "120613.593000", "120613.593000", "120613.593000", "120613.593000", "120613.593000", "120613.593000", "120613.609000", "120613.609000", "120613.609000", "120613.609000", "120613.609000", "120613.609000", "120613.609000", "120613.625000", "120613.625000", "120613.625000", "120613.625000", "120613.625000", "120613.625000", "120613.640000", "120633.578000", "120633.578000", "120633.578000", "120633.578000", "120633.578000", "120633.593000", "120633.593000", "120633.593000", "120633.593000", "120633.593000", "120633.593000", "120633.593000", "120633.609000", "120633.609000", "120633.609000", "120633.609000", "120633.609000", "120633.609000", "120633.609000", "120633.609000", "120633.625000", "120633.625000", "120633.625000", "120633.625000", "120633.625000", "120633.625000", "120653.578000", "120653.578000", "120653.578000", "120653.578000", "120653.578000", "120653.593000", "120653.593000", "120653.593000", "120653.593000", "120653.593000", "120653.593000", "120653.593000", "120653.609000", "120653.609000", "120653.609000", "120653.609000", "120653.609000", "120653.609000", "120653.609000", "120653.609000", "120653.625000", "120653.625000", "120653.625000", "120653.625000", "120653.625000", "120713.578000", "120713.578000", "120713.578000", "120713.578000", "120713.578000", "120713.593000", "120713.593000", "120713.593000", "120713.593000", "120713.593000", "120713.593000", "120713.593000", "120713.593000", "120713.609000", "120713.609000", "120713.609000", "120713.609000", "120713.609000", "120713.609000", "120713.625000", "120713.625000", "120713.625000", "120713.625000", "120713.625000", "120713.625000", "120713.625000", "120733.578000", "120733.578000", "120733.578000", "120733.578000", "120733.578000", "120733.593000", "120733.593000", "120733.593000", "120733.593000", "120733.593000", "120733.593000", "120733.593000", "120733.593000", "120733.609000", "120733.609000", "120733.609000", "120733.609000", "120733.609000", "120733.625000", "120733.625000", "120733.625000", "120733.625000", "120733.625000", "120733.625000", "120733.625000", "120753.578000", "120753.578000", "120753.578000", "120753.578000", "120753.578000", "120753.593000", "120753.593000", "120753.593000", "120753.593000", "120753.593000", "120753.593000", "120753.593000", "120753.609000", "120753.609000", "120753.609000", "120753.609000", "120753.609000", "120753.609000", "120753.609000", "120753.609000", "120753.625000", "120753.625000", "120753.625000", "120753.625000", "120753.625000", "120753.625000", "120813.578000", "120813.578000", "120813.578000", "120813.578000", "120813.578000", "120813.593000", "120813.593000", "120813.593000", "120813.593000", "120813.593000", "120813.593000", "120813.593000", "120813.609000", "120813.609000", "120813.609000", "120813.609000", "120813.609000", "120813.609000", "120813.609000", "120813.625000", "120813.625000", "120813.625000", "120813.625000", "120813.625000", "120813.625000", "120833.578000", "120833.578000", "120833.578000", "120833.578000", "120833.578000", "120833.593000", "120833.593000", "120833.593000", "120833.593000", "120833.593000", "120833.593000", "120833.609000", "120833.609000", "120833.609000", "120833.609000", "120833.609000", "120833.625000", "120833.625000", "120833.625000", "120833.625000", "120833.625000", "120833.625000", "120833.625000", "120833.640000", "120833.640000", "120833.640000", "120853.578000", "120853.578000", "120853.578000", "120853.578000", "120853.578000", "120853.593000", "120853.593000", "120853.593000", "120853.593000", "120853.593000", "120853.593000", "120853.593000", "120853.609000", "120853.609000", "120853.609000", "120853.609000", "120853.609000", "120853.609000", "120853.609000", "120853.609000", "120853.625000", "120853.625000", "120853.625000", "120853.625000", "120853.625000", "120913.578000", "120913.578000", "120913.578000", "120913.578000", "120913.578000", "120913.593000", "120913.593000", "120913.593000", "120913.593000", "120913.593000", "120913.593000", "120913.593000", "120913.593000", "120913.609000", "120913.609000", "120913.609000", "120913.609000", "120913.609000", "120913.609000", "120913.609000", "120913.625000", "120913.625000", "120913.625000", "120913.625000", "120913.625000", "120913.625000", "120933.578000", "120933.578000", "120933.578000", "120933.578000", "120933.578000", "120933.593000", "120933.593000", "120933.593000", "120933.593000", "120933.593000", "120933.593000", "120933.593000", "120933.593000", "120933.609000", "120933.609000", "120933.609000", "120933.609000", "120933.609000", "120933.609000", "120933.609000", "120933.625000", "120933.625000", "120933.625000", "120933.625000", "120933.625000", "120953.578000", "120953.578000", "120953.578000", "120953.593000", "120953.593000", "120953.593000", "120953.593000", "120953.609000", "120953.609000", "120953.609000", "120953.609000", "120953.625000", "120953.625000", "120953.625000", "120953.625000", "120953.703000", "120953.718000", "120953.718000", "120953.718000", "120953.718000", "120953.718000", "120953.718000", "120953.734000", "120953.734000", "120953.734000", "120953.734000", "121004.625000", "121004.625000", "121004.625000", "121004.640000", "121004.640000", "121004.640000", "121004.640000", "121004.640000", "121004.656000", "121004.656000", "121004.656000", "121004.656000", "121004.656000", "121004.656000"],
