{
  "AcquisitionMatrixPE": 104,
  "AcquisitionNumber": 1,
  "AcquisitionTime": "15:02:40.760000",
  "BandwidthPerPixelPhaseEncode": 13.935,
  "BaseResolution": 104,
  "CoilString": "C:HEA;HEP",
  "ConversionSoftware": "dcm2niix",
  "ConversionSoftwareVersion": "v1.0.20210317",
  "DerivedVendorReportedEchoSpacing": 0.000690017,
  "DeviceSerialNumber": "35450",
  "DwellTime": 2.5e-06,
  "EchoTime": 0.0348,
  "EffectiveEchoSpacing": 0.000690017,
  "FlipAngle": 55,
  "ImageComments": "Unaliased MB8/PE3 (remote)",
  "ImageOrientationPatientDICOM": [0.999854, -0.00308923, -0.0168291, 5.91495e-08, 0.983567, -0.180545],
  "ImageType": [
    "ORIGINAL",
    "PRIMARY",
    "M",
    "MB",
    "ND",
    "MOSAIC"
],
  "ImagingFrequency": 123.234,
  "InPlanePhaseEncodingDirectionDICOM": "COL",
  "InstitutionAddress": "Univeristy Ave. 197,Newark,North East,US,07102-1814",
  "InstitutionName": "RUBIC",
  "InstitutionalDepartmentName": "Department",
  "MRAcquisitionType": "2D",
  "MagneticFieldStrength": 3,
  "Manufacturer": "Siemens",
  "ManufacturersModelName": "TrioTim",
  "Modality": "MR",
  "MultibandAccelerationFactor": 8,
  "PartialFourier": 0.875,
  "PatientPosition": "HFS",
  "PercentPhaseFOV": 100,
  "PercentSampling": 100,
  "PhaseEncodingDirection": "j-",
  "PhaseEncodingSteps": 91,
  "PhaseResolution": 1,
  "PixelBandwidth": 1923,
  "ProcedureStepDescription": "Cole^Michael",
  "ProtocolName": "cmrr_mbep2d_bold_2mm_MB8_Task_8x",
  "PulseSequenceDetails": "%CustomerSeq%\\cmrr_mbep2d_bold",
  "ReceiveCoilName": "32Ch_Head",
  "ReconMatrixPE": 104,
  "RepetitionTime": 0.785,
  "SAR": 0.116451,
  "ScanOptions": "PFP\\FS",
  "ScanningSequence": "EP",
  "SequenceName": "epfid2d1_104",
  "SequenceVariant": "SK\\SS",
  "SeriesDescription": "cmrr_mbep2d_bold_2mm_MB8_Task_8x",
  "SeriesNumber": 21,
  "ShimSetting": [2109, -351, -7327, 443, -111, -414, -39, 99],
  "SliceThickness": 2,
  "SliceTiming": [0, 0.4375, 0.0875, 0.525, 0.175, 0.6125, 0.2625, 0.7, 0.35, 0, 0.4375, 0.0875, 0.525, 0.175, 0.6125, 0.2625, 0.7, 0.35, 0, 0.4375, 0.0875, 0.525, 0.175, 0.6125, 0.2625, 0.7, 0.35, 0, 0.4375, 0.0875, 0.525, 0.175, 0.6125, 0.2625, 0.7, 0.35, 0, 0.4375, 0.0875, 0.525, 0.175, 0.6125, 0.2625, 0.7, 0.35, 0, 0.4375, 0.0875, 0.525, 0.175, 0.6125, 0.2625, 0.7, 0.35, 0, 0.4375, 0.0875, 0.525, 0.175, 0.6125, 0.2625, 0.7, 0.35, 0, 0.4375, 0.0875, 0.525, 0.175, 0.6125, 0.2625, 0.7, 0.35],
  "SoftwareVersions": "syngo MR B19",
  "SpacingBetweenSlices": 2,
  "StationName": "MRC35450",
  "TaskName": "cpro",
  "TotalReadoutTime": 0.0710717,
  "TxRefAmp": 322.319,
  "dcmmeta_affine": [
    [-1.9997072219848633, 1.1829893509229805e-07, -0.03422063589096069, 106.5240707397461],
    [0.006178467068821192, 1.967133641242981, -0.3610363006591797, -72.4842300415039],
    [-0.033658262342214584, 0.36108916997909546, 1.9668456315994263, -108.79446411132812],
    [0.0, 0.0, 0.0, 1.0]
],
  "dcmmeta_reorient_transform": [
    [0.0, -1.0, 0.0, 103.0],
    [1.0, 0.0, 0.0, 0.0],
    [0.0, 0.0, 1.0, 0.0],
    [0.0, 0.0, 0.0, 1.0]
],
  "dcmmeta_shape": [104, 104, 72, 581],
  "dcmmeta_slice_dim": 2,
  "dcmmeta_version": 0.6,
  "global": {
    "const": {
      "AcquisitionMatrix": [104, 0, 0, 104],
      "AngioFlag": "N",
      "BitsAllocated": 16,
      "BitsStored": 12,
      "Columns": 936,
      "EchoNumbers": 1,
      "EchoTime": 34.8,
      "EchoTrainLength": 1,
      "FlipAngle": 55.0,
      "HighBit": 11,
      "ImageOrientationPatient": [0.9998536077852, -0.0030892334261, -0.0168291305708, 5.9149467e-08, 0.98356680241819, -0.1805445794835],
      "ImagePositionPatient": [-938.40233722254, -945.88787226768, 92.612642220196],
      "ImageType": [
        "ORIGINAL",
        "PRIMARY",
        "M",
        "MB",
        "ND",
        "MOSAIC"
],
      "ImagedNucleus": "1H",
      "ImagingFrequency": 123.234424,
      "InPlanePhaseEncodingDirection": "COL",
      "MRAcquisitionType": "2D",
      "MagneticFieldStrength": 3.0,
      "Manufacturer": "SIEMENS",
      "ManufacturerModelName": "TrioTim",
      "Modality": "MR",
      "NumberOfAverages": 1.0,
      "NumberOfPhaseEncodingSteps": 91,
      "PercentPhaseFieldOfView": 100.0,
      "PercentSampling": 100.0,
      "PerformedProcedureStepStartTime": "132052.500000",
      "PhotometricInterpretation": "MONOCHROME2",
      "PixelBandwidth": 1923.0,
      "PixelRepresentation": 0,
      "PixelSpacing": [2.0, 2.0],
      "ProtocolName": "cmrr_mbep2d_bold_2mm_MB8_Task_8x",
      "RepetitionTime": 785.0,
      "Rows": 936,
      "SAR": 0.11645063800734,
      "SamplesPerPixel": 1,
      "ScanOptions": [
        "PFP",
        "FS"
],
      "ScanningSequence": "EP",
      "SequenceName": "epfid2d1_104",
      "SequenceVariant": [
        "SK",
        "SS"
],
      "SeriesDescription": "cmrr_mbep2d_bold_2mm_MB8_Task_8x",
      "SeriesNumber": 21,
      "SeriesTime": "150300.843000",
      "SliceLocation": -95.728904523233,
      "SliceThickness": 2.0,
      "SmallestImagePixelValue": 0,
      "SoftwareVersions": "syngo MR B19",
      "SpacingBetweenSlices": 2.0000000291049,
      "SpecificCharacterSet": "ISO_IR 100",
      "StudyID": "1",
      "StudyTime": "132052.484000",
      "TransmitCoilName": "Body",
      "VariableFlipAngleFlag": "N",
      "WindowCenterWidthExplanation": "Algo1",
      "dBdt": 0.0},
    "slices": {}
  },
  "time": {
    "samples": {
      "AcquisitionNumber": [1, 2, 3, 4, 5, 6, 7, 8, 9, 10, 11, 12, 13, 14, 15, 16, 17, 18, 19, 20, 21, 22, 23, 24, 25, 26, 27, 28, 29, 30, 31, 32, 33, 34, 35, 36, 37, 38, 39, 40, 41, 42, 43, 44, 45, 46, 47, 48, 49, 50, 51, 52, 53, 54, 55, 56, 57, 58, 59, 60, 61, 62, 63, 64, 65, 66, 67, 68, 69, 70, 71, 72, 73, 74, 75, 76, 77, 78, 79, 80, 81, 82, 83, 84, 85, 86, 87, 88, 89, 90, 91, 92, 93, 94, 95, 96, 97, 98, 99, 100, 101, 102, 103, 104, 105, 106, 107, 108, 109, 110, 111, 112, 113, 114, 115, 116, 117, 118, 119, 120, 121, 122, 123, 124, 125, 126, 127, 128, 129, 130, 131, 132, 133, 134, 135, 136, 137, 138, 139, 140, 141, 142, 143, 144, 145, 146, 147, 148, 149, 150, 151, 152, 153, 154, 155, 156, 157, 158, 159, 160, 161, 162, 163, 164, 165, 166, 167, 168, 169, 170, 171, 172, 173, 174, 175, 176, 177, 178, 179, 180, 181, 182, 183, 184, 185, 186, 187, 188, 189, 190, 191, 192, 193, 194, 195, 196, 197, 198, 199, 200, 201, 202, 203, 204, 205, 206, 207, 208, 209, 210, 211, 212, 213, 214, 215, 216, 217, 218, 219, 220, 221, 222, 223, 224, 225, 226, 227, 228, 229, 230, 231, 232, 233, 234, 235, 236, 237, 238, 239, 240, 241, 242, 243, 244, 245, 246, 247, 248, 249, 250, 251, 252, 253, 254, 255, 256, 257, 258, 259, 260, 261, 262, 263, 264, 265, 266, 267, 268, 269, 270, 271, 272, 273, 274, 275, 276, 277, 278, 279, 280, 281, 282, 283, 284, 285, 286, 287, 288, 289, 290, 291, 292, 293, 294, 295, 296, 297, 298, 299, 300, 301, 302, 303, 304, 305, 306, 307, 308, 309, 310, 311, 312, 313, 314, 315, 316, 317, 318, 319, 320, 321, 322, 323, 324, 325, 326, 327, 328, 329, 330, 331, 332, 333, 334, 335, 336, 337, 338, 339, 340, 341, 342, 343, 344, 345, 346, 347, 348, 349, 350, 351, 352, 353, 354, 355, 356, 357, 358, 359, 360, 361, 362, 363, 364, 365, 366, 367, 368, 369, 370, 371, 372, 373, 374, 375, 376, 377, 378, 379, 380, 381, 382, 383, 384, 385, 386, 387, 388, 389, 390, 391, 392, 393, 394, 395, 396, 397, 398, 399, 400, 401, 402, 403, 404, 405, 406, 407, 408, 409, 410, 411, 412, 413, 414, 415, 416, 417, 418, 419, 420, 421, 422, 423, 424, 425, 426, 427, 428, 429, 430, 431, 432, 433, 434, 435, 436, 437, 438, 439, 440, 441, 442, 443, 444, 445, 446, 447, 448, 449, 450, 451, 452, 453, 454, 455, 456, 457, 458, 459, 460, 461, 462, 463, 464, 465, 466, 467, 468, 469, 470, 471, 472, 473, 474, 475, 476, 477, 478, 479, 480, 481, 482, 483, 484, 485, 486, 487, 488, 489, 490, 491, 492, 493, 494, 495, 496, 497, 498, 499, 500, 501, 502, 503, 504, 505, 506, 507, 508, 509, 510, 511, 512, 513, 514, 515, 516, 517, 518, 519, 520, 521, 522, 523, 524, 525, 526, 527, 528, 529, 530, 531, 532, 533, 534, 535, 536, 537, 538, 539, 540, 541, 542, 543, 544, 545, 546, 547, 548, 549, 550, 551, 552, 553, 554, 555, 556, 557, 558, 559, 560, 561, 562, 563, 564, 565, 566, 567, 568, 569, 570, 571, 572, 573, 574, 575, 576, 577, 578, 579, 580, 581],
      "AcquisitionTime": ["150240.760000", "150241.547500", "150242.335000", "150243.122500", "150243.912500", "150244.700000", "150245.487500", "150246.275000", "150247.065000", "150247.852500", "150248.640000", "150249.427500", "150250.217500", "150251.005000", "150251.792500", "150252.582500", "150253.370000", "150254.157500", "150254.945000", "150255.735000", "150256.522500", "150257.310000", "150258.097500", "150258.887500", "150259.675000", "150300.462500", "150301.250000", "150302.040000", "150302.827500", "150303.615000", "150304.402500", "150305.192500", "150305.980000", "150306.767500", "150307.555000", "150308.345000", "150309.132500", "150309.920000", "150310.710000", "150311.497500", "150312.285000", "150313.072500", "150313.862500", "150314.650000", "150315.437500", "150316.225000", "150317.015000", "150317.802500", "150318.590000", "150319.377500", "150320.167500", "150320.955000", "150321.742500", "150322.530000", "150323.320000", "150324.107500", "150324.895000", "150325.682500", "150326.472500", "150327.260000", "150328.047500", "150328.837500", "150329.625000", "150330.412500", "150331.200000", "150331.990000", "150332.777500", "150333.565000", "150334.352500", "150335.142500", "150335.930000", "150336.717500", "150337.505000", "150338.295000", "150339.082500", "150339.870000", "150340.657500", "150341.447500", "150342.235000", "150343.022500", "150343.810000", "150344.600000", "150345.387500", "150346.175000", "150346.965000", "150347.752500", "150348.540000", "150349.327500", "150350.117500", "150350.905000", "150351.692500", "150352.480000", "150353.270000", "150354.057500", "150354.845000", "150355.632500", "150356.422500", "150357.210000", "150357.997500", "150358.785000", "150359.575000", "150400.362500", "150401.150000", "150401.937500", "150402.727500", "150403.515000", "150404.302500", "150405.092500", "150405.880000", "150406.667500", "150407.455000", "150408.245000", "150409.032500", "150409.820000", "150410.607500", "150411.397500", "150412.185000", "150412.972500", "150413.760000", "150414.550000", "150415.337500", "150416.125000", "150416.912500", "150417.702500", "150418.490000", "150419.277500", "150420.065000", "150420.855000", "150421.642500", "150422.430000", "150423.220000", "150424.007500", "150424.795000", "150425.582500", "150426.372500", "150427.160000", "150427.947500", "150428.735000", "150429.525000", "150430.312500", "150431.100000", "150431.887500", "150432.677500", "150433.465000", "150434.252500", "150435.040000", "150435.830000", "150436.617500", "150437.405000", "150438.195000", "150438.982500", "150439.770000", "150440.557500", "150441.347500", "150442.135000", "150442.922500", "150443.710000", "150444.500000", "150445.287500", "150446.075000", "150446.862500", "150447.652500", "150448.440000", "150449.227500", "150450.015000", "150450.805000", "150451.592500", "150452.380000", "150453.167500", "150453.957500", "150454.745000", "150455.532500", "150456.322500", "150457.110000", "150457.897500", "150458.685000", "150459.475000", "150500.262500", "150501.050000", "150501.837500", "150502.627500", "150503.415000", "150504.202500", "150504.990000", "150505.780000", "150506.567500", "150507.355000", "150508.142500", "150508.932500", "150509.720000", "150510.507500", "150511.295000", "150512.085000", "150512.872500", "150513.660000", "150514.450000", "150515.237500", "150516.025000", "150516.812500", "150517.602500", "150518.390000", "150519.177500", "150519.965000", "150520.755000", "150521.542500", "150522.330000", "150523.117500", "150523.907500", "150524.695000", "150525.482500", "150526.270000", "150527.060000", "150527.847500", "150528.635000", "150529.422500", "150530.212500", "150531.000000", "150531.787500", "150532.577500", "150533.365000", "150534.152500", "150534.940000", "150535.730000", "150536.517500", "150537.305000", "150538.092500", "150538.882500", "150539.670000", "150540.457500", "150541.245000", "150542.035000", "150542.822500", "150543.610000", "150544.397500", "150545.187500", "150545.975000", "150546.762500", "150547.550000", "150548.340000", "150549.127500", "150549.915000", "150550.705000", "150551.492500", "150552.280000", "150553.067500", "150553.857500", "150554.645000", "150555.432500", "150556.220000", "150557.010000", "150557.797500", "150558.585000", "150559.372500", "150600.162500", "150600.950000", "150601.737500", "150602.525000", "150603.315000", "150604.102500", "150604.890000", "150605.677500", "150606.467500", "150607.255000", "150608.042500", "150608.832500", "150609.620000", "150610.407500", "150611.195000", "150611.985000", "150612.772500", "150613.560000", "150614.347500", "150615.137500", "150615.925000", "150616.712500", "150617.500000", "150618.290000", "150619.077500", "150619.865000", "150620.652500", "150621.442500", "150622.230000", "150623.017500", "150623.805000", "150624.595000", "150625.382500", "150626.170000", "150626.960000", "150627.747500", "150628.535000", "150629.322500", "150630.112500", "150630.900000", "150631.687500", "150632.475000", "150633.265000", "150634.052500", "150634.840000", "150635.627500", "150636.417500", "150637.205000", "150637.992500", "150638.780000", "150639.570000", "150640.357500", "150641.145000", "150641.932500", "150642.722500", "150643.510000", "150644.297500", "150645.087500", "150645.875000", "150646.662500", "150647.450000", "150648.240000", "150649.027500", "150649.815000", "150650.602500", "150651.392500", "150652.180000", "150652.967500", "150653.755000", "150654.545000", "150655.332500", "150656.120000", "150656.907500", "150657.697500", "150658.485000", "150659.272500", "150700.060000", "150700.850000", "150701.637500", "150702.425000", "150703.215000", "150704.002500", "150704.790000", "150705.577500", "150706.367500", "150707.155000", "150707.942500", "150708.730000", "150709.520000", "150710.307500", "150711.095000", "150711.882500", "150712.672500", "150713.460000", "150714.247500", "150715.035000", "150715.825000", "150716.612500", "150717.400000", "150718.187500", "150718.977500", "150719.765000", "150720.552500", "150721.342500", "150722.130000", "150722.917500", "150723.705000", "150724.495000", "150725.282500", "150726.070000", "150726.857500", "150727.647500", "150728.435000", "150729.222500", "150730.010000", "150730.800000", "150731.587500", "150732.375000", "150733.162500", "150733.952500", "150734.740000", "150735.527500", "150736.315000", "150737.105000", "150737.892500", "150738.680000", "150739.470000", "150740.257500", "150741.045000", "150741.832500", "150742.622500", "150743.410000", "150744.197500", "150744.985000", "150745.775000", "150746.562500", "150747.350000", "150748.137500", "150748.927500", "150749.715000", "150750.502500", "150751.290000", "150752.080000", "150752.867500", "150753.655000", "150754.445000", "150755.232500", "150756.020000", "150756.807500", "150757.597500", "150758.385000", "150759.172500", "150759.960000", "150800.750000", "150801.537500", "150802.325000", "150803.112500", "150803.902500", "150804.690000", "150805.477500", "150806.265000", "150807.055000", "150807.842500", "150808.630000", "150809.417500", "150810.207500", "150810.995000", "150811.782500", "150812.572500", "150813.360000", "150814.147500", "150814.935000", "150815.725000", "150816.512500", "150817.300000", "150818.087500", "150818.877500", "150819.665000", "150820.452500", "150821.240000", "150822.030000", "150822.817500", "150823.605000", "150824.392500", "150825.182500", "150825.970000", "150826.757500", "150827.545000", "150828.335000", "150829.122500", "150829.910000", "150830.700000", "150831.487500", "150832.275000", "150833.062500", "150833.852500", "150834.640000", "150835.427500", "150836.215000", "150837.005000", "150837.792500", "150838.580000", "150839.367500", "150840.157500", "150840.945000", "150841.732500", "150842.520000", "150843.310000", "150844.097500", "150844.885000", "150845.672500", "150846.462500", "150847.250000", "150848.037500", "150848.827500", "150849.615000", "150850.402500", "150851.190000", "150851.980000", "150852.767500", "150853.555000", "150854.342500", "150855.132500", "150855.920000", "150856.707500", "150857.495000", "150858.285000", "150859.072500", "150859.860000", "150900.647500", "150901.437500", "150902.225000", "150903.012500", "150903.800000", "150904.590000", "150905.377500", "150906.165000", "150906.955000", "150907.742500", "150908.530000", "150909.317500", "150910.107500", "150910.895000", "150911.682500", "150912.470000", "150913.260000", "150914.047500", "150914.835000", "150915.622500", "150916.412500", "150917.200000", "150917.987500", "150918.775000", "150919.565000", "150920.352500", "150921.140000", "150921.927500", "150922.717500", "150923.505000", "150924.292500", "150925.082500", "150925.870000", "150926.657500", "150927.445000", "150928.235000", "150929.022500", "150929.810000", "150930.597500", "150931.387500", "150932.175000", "150932.962500", "150933.750000", "150934.540000", "150935.327500", "150936.115000", "150936.902500", "150937.692500", "150938.480000", "150939.267500", "150940.055000", "150940.845000", "150941.632500", "150942.420000", "150943.210000", "150943.997500", "150944.785000", "150945.572500", "150946.362500", "150947.150000", "150947.937500", "150948.725000", "150949.515000", "150950.302500", "150951.090000", "150951.877500", "150952.667500", "150953.455000", "150954.242500", "150955.030000", "150955.820000", "150956.607500", "150957.395000", "150958.182500", "150958.972500", "150959.760000", "151000.547500", "151001.337500", "151002.125000", "151002.912500", "151003.700000", "151004.490000", "151005.277500", "151006.065000", "151006.852500", "151007.642500", "151008.430000", "151009.217500", "151010.005000", "151010.795000", "151011.582500", "151012.370000", "151013.157500", "151013.947500", "151014.735000", "151015.522500", "151016.310000", "151017.100000", "151017.887500"],
      "ContentTime": ["150300.843000", "150300.843000", "150300.843000", "150300.843000", "150300.859000", "150300.859000", "150300.859000", "150300.859000", "150300.875000", "150300.875000", "150300.875000", "150300.875000", "150300.875000", "150300.875000", "150300.875000", "150300.890000", "150300.890000", "150300.890000", "150300.890000", "150300.890000", "150300.890000", "150300.890000", "150300.906000", "150320.828000", "150320.828000", "150320.828000", "150320.828000", "150320.828000", "150320.828000", "150320.843000", "150320.843000", "150320.843000", "150320.843000", "150320.843000", "150320.843000", "150320.843000", "150320.859000", "150320.859000", "150320.859000", "150320.859000", "150320.859000", "150320.875000", "150320.875000", "150320.875000", "150320.875000", "150320.875000", "150320.875000", "150320.875000", "150340.828000", "150340.828000", "150340.828000", "150340.828000", "150340.828000", "150340.828000", "150340.843000", "150340.843000", "150340.843000", "150340.843000", "150340.843000", "150340.843000", "150340.843000", "150340.859000", "150340.859000", "150340.859000", "150340.859000", "150340.859000", "150340.875000", "150340.875000", "150340.875000", "150340.875000", "150340.875000", "150340.875000", "150340.875000", "150340.890000", "150400.828000", "150400.828000", "150400.828000", "150400.828000", "150400.828000", "150400.828000", "150400.843000", "150400.843000", "150400.843000", "150400.843000", "150400.843000", "150400.843000", "150400.843000", "150400.859000", "150400.859000", "150400.859000", "150400.859000", "150400.859000", "150400.859000", "150400.859000", "150400.875000", "150400.875000", "150400.875000", "150400.875000", "150400.875000", "150420.828000", "150420.828000", "150420.828000", "150420.828000", "150420.828000", "150420.828000", "150420.843000", "150420.843000", "150420.843000", "150420.843000", "150420.843000", "150420.843000", "150420.843000", "150420.859000", "150420.859000", "150420.859000", "150420.859000", "150420.859000", "150420.859000", "150420.875000", "150420.875000", "150420.875000", "150420.875000", "150420.890000", "150420.890000", "150420.890000", "150440.828000", "150440.828000", "150440.828000", "150440.828000", "150440.828000", "150440.828000", "150440.843000", "150440.843000", "150440.843000", "150440.843000", "150440.843000", "150440.843000", "150440.859000", "150440.859000", "150440.859000", "150440.859000", "150440.859000", "150440.859000", "150440.859000", "150440.875000", "150440.875000", "150440.875000", "150440.875000", "150440.875000", "150440.875000", "150500.828000", "150500.828000", "150500.828000", "150500.828000", "150500.828000", "150500.828000", "150500.843000", "150500.843000", "150500.843000", "150500.843000", "150500.843000", "150500.843000", "150500.843000", "150500.859000", "150500.859000", "150500.859000", "150500.859000", "150500.859000", "150500.859000", "150500.859000", "150500.875000", "150500.875000", "150500.875000", "150500.875000", "150500.875000", "150500.875000", "150520.828000", "150520.828000", "150520.828000", "150520.828000", "150520.828000", "150520.828000", "150520.843000", "150520.843000", "150520.843000", "150520.843000", "150520.843000", "150520.843000", "150520.843000", "150520.859000", "150520.859000", "150520.859000", "150520.859000", "150520.859000", "150520.859000", "150520.859000", "150520.875000", "150520.875000", "150520.875000", "150520.875000", "150520.875000", "150540.828000", "150540.828000", "150540.828000", "150540.828000", "150540.843000", "150540.843000", "150540.843000", "150540.843000", "150540.843000", "150540.843000", "150540.859000", "150540.859000", "150540.859000", "150540.859000", "150540.859000", "150540.859000", "150540.859000", "150540.875000", "150540.875000", "150540.875000", "150540.875000", "150540.875000", "150540.875000", "150540.875000", "150540.890000", "150540.890000", "150600.828000", "150600.828000", "150600.828000", "150600.828000", "150600.828000", "150600.828000", "150600.843000", "150600.843000", "150600.843000", "150600.843000", "150600.843000", "150600.843000", "150600.843000", "150600.859000", "150600.859000", "150600.859000", "150600.859000", "150600.859000", "150600.859000", "150600.859000", "150600.875000", "150600.875000", "150600.875000", "150600.875000", "150600.875000", "150620.828000", "150620.828000", "150620.828000", "150620.828000", "150620.828000", "150620.828000", "150620.843000", "150620.843000", "150620.843000", "150620.843000", "150620.843000", "150620.843000", "150620.843000", "150620.859000", "150620.859000", "150620.859000", "150620.859000", "150620.859000", "150620.859000", "150620.859000", "150620.875000", "150620.875000", "150620.875000", "150620.875000", "150620.875000", "150620.890000", "150640.828000", "150640.828000", "150640.828000", "150640.828000", "150640.828000", "150640.828000", "150640.843000", "150640.843000", "150640.843000", "150640.843000", "150640.843000", "150640.843000", "150640.843000", "150640.859000", "150640.859000", "150640.859000", "150640.859000", "150640.859000", "150640.859000", "150640.859000", "150640.875000", "150640.875000", "150640.875000", "150640.875000", "150640.875000", "150700.828000", "150700.828000", "150700.828000", "150700.828000", "150700.828000", "150700.828000", "150700.843000", "150700.843000", "150700.843000", "150700.843000", "150700.843000", "150700.843000", "150700.843000", "150700.859000", "150700.859000", "150700.859000", "150700.859000", "150700.859000", "150700.859000", "150700.859000", "150700.875000", "150700.875000", "150700.875000", "150700.875000", "150700.875000", "150700.890000", "150720.828000", "150720.828000", "150720.828000", "150720.828000", "150720.828000", "150720.828000", "150720.843000", "150720.843000", "150720.843000", "150720.843000", "150720.843000", "150720.843000", "150720.859000", "150720.859000", "150720.859000", "150720.859000", "150720.859000", "150720.859000", "150720.875000", "150720.875000", "150720.875000", "150720.875000", "150720.875000", "150720.875000", "150720.875000", "150740.828000", "150740.828000", "150740.828000", "150740.828000", "150740.828000", "150740.828000", "150740.843000", "150740.843000", "150740.843000", "150740.843000", "150740.843000", "150740.843000", "150740.843000", "150740.859000", "150740.859000", "150740.859000", "150740.859000", "150740.859000", "150740.859000", "150740.859000", "150740.875000", "150740.875000", "150740.875000", "150740.875000", "150740.875000", "150800.828000", "150800.828000", "150800.828000", "150800.828000", "150800.828000", "150800.828000", "150800.843000", "150800.843000", "150800.843000", "150800.843000", "150800.843000", "150800.859000", "150800.859000", "150800.859000", "150800.859000", "150800.859000", "150800.859000", "150800.859000", "150800.875000", "150800.875000", "150800.875000", "150800.875000", "150800.875000", "150800.875000", "150800.875000", "150800.890000", "150820.828000", "150820.828000", "150820.828000", "150820.828000", "150820.828000", "150820.843000", "150820.843000", "150820.843000", "150820.843000", "150820.843000", "150820.843000", "150820.843000", "150820.859000", "150820.859000", "150820.859000", "150820.859000", "150820.859000", "150820.859000", "150820.859000", "150820.875000", "150820.875000", "150820.875000", "150820.875000", "150820.875000", "150820.875000", "150840.828000", "150840.828000", "150840.828000", "150840.828000", "150840.828000", "150840.828000", "150840.843000", "150840.843000", "150840.843000", "150840.843000", "150840.843000", "150840.843000", "150840.843000", "150840.859000", "150840.859000", "150840.859000", "150840.859000", "150840.859000", "150840.859000", "150840.859000", "150840.875000", "150840.875000", "150840.875000", "150840.875000", "150840.890000", "150840.890000", "150900.828000", "150900.828000", "150900.828000", "150900.828000", "150900.828000", "150900.828000", "150900.843000", "150900.843000", "150900.843000", "150900.843000", "150900.843000", "150900.843000", "150900.843000", "150900.859000", "150900.859000", "150900.859000", "150900.859000", "150900.859000", "150900.859000", "150900.875000", "150900.875000", "150900.875000", "150900.875000", "150900.875000", "150900.875000", "150920.828000", "150920.828000", "150920.828000", "150920.828000", "150920.828000", "150920.828000", "150920.843000", "150920.843000", "150920.843000", "150920.843000", "150920.843000", "150920.843000", "150920.859000", "150920.859000", "150920.859000", "150920.859000", "150920.859000", "150920.859000", "150920.859000", "150920.875000", "150920.875000", "150920.875000", "150920.875000", "150920.875000", "150920.875000", "150920.875000", "150940.828000", "150940.828000", "150940.828000", "150940.828000", "150940.828000", "150940.828000", "150940.843000", "150940.843000", "150940.843000", "150940.843000", "150940.843000", "150940.843000", "150940.843000", "150940.859000", "150940.859000", "150940.859000", "150940.859000", "150940.859000", "150940.859000", "150940.859000", "150940.875000", "150940.875000", "150940.875000", "150940.875000", "150940.875000", "151000.828000", "151000.828000", "151000.828000", "151000.828000", "151000.828000", "151000.828000", "151000.843000", "151000.843000", "151000.843000", "151000.843000", "151000.843000", "151000.843000", "151000.843000", "151000.859000", "151000.859000", "151000.859000", "151000.859000", "151000.859000", "151000.875000", "151000.875000", "151000.875000", "151000.875000", "151000.875000", "151000.875000", "151000.875000", "151000.890000", "151018.640000", "151018.656000", "151018.656000", "151018.656000", "151018.656000", "151018.656000", "151018.656000", "151018.656000", "151018.671000", "151018.671000", "151018.671000", "151018.671000", "151018.671000", "151018.671000", "151018.671000", "151018.687000", "151018.687000", "151018.687000", "151018.687000", "151018.687000", "151018.687000", "151018.687000", "151018.703000"],
      "DataSetTrailingPadding": [
        "\u0000\u0000\u0000\u0000\u0000\u0000\u0000\u0000\u0000\u0000\u0000\u0000\u0000\u0000\u0000\u0000\u0000\u0000\u0000\u0000\u0000\u0000\u0000\u0000\u0000\u0000\u0000\u0000\u0000\u0000\u0000\u0000\u0000\u0000\u0000\u0000\u0000\u0000\u0000\u0000\u0000\u0000\u0000\u0000\u0000\u0000\u0000\u0000\u0000\u0000\u0000\u0000\u0000\u0000\u0000\u0000\u0000\u0000\u0000\u0000\u0000\u0000\u0000\u0000\u0000\u0000\u0000\u0000\u0000\u0000\u0000\u0000\u0000\u0000\u0000\u0000\u0000\u0000\u0000\u0000\u0000\u0000\u0000\u0000\u0000\u0000\u0000\u0000\u0000\u0000\u0000\u0000\u0000\u0000\u0000\u0000\u0000\u0000\u0000\u0000\u0000\u0000\u0000\u0000\u0000\u0000\u0000\u0000\u0000\u0000\u0000\u0000\u0000\u0000\u0000\u0000\u0000\u0000\u0000\u0000\u0000\u0000\u0000\u0000\u0000\u0000\u0000\u0000",
        "\u0000\u0000\u0000\u0000\u0000\u0000\u0000\u0000\u0000\u0000\u0000\u0000\u0000\u0000\u0000\u0000\u0000\u0000\u0000\u0000\u0000\u0000\u0000\u0000\u0000\u0000\u0000\u0000\u0000\u0000\u0000\u0000\u0000\u0000\u0000\u0000\u0000\u0000\u0000\u0000\u0000\u0000\u0000\u0000\u0000\u0000\u0000\u0000\u0000\u0000\u0000\u0000\u0000\u0000\u0000\u0000\u0000\u0000\u0000\u0000\u0000\u0000\u0000\u0000\u0000\u0000\u0000\u0000\u0000\u0000\u0000\u0000\u0000\u0000\u0000\u0000\u0000\u0000\u0000\u0000\u0000\u0000\u0000\u0000\u0000\u0000\u0000\u0000\u0000\u0000\u0000\u0000\u0000\u0000\u0000\u0000\u0000\u0000\u0000\u0000\u0000\u0000\u0000\u0000\u0000\u0000\u0000\u0000\u0000\u0000\u0000\u0000\u0000\u0000\u0000\u0000\u0000\u0000\u0000\u0000\u0000\u0000\u0000\u0000",
