{
  "AcquisitionMatrixPE": 104,
  "AcquisitionNumber": 1,
  "AcquisitionTime": "14:29:38.675000",
  "BandwidthPerPixelPhaseEncode": 13.935,
  "BaseResolution": 104,
  "CoilString": "C:HEA;HEP",
  "ConversionSoftware": "dcm2niix",
  "ConversionSoftwareVersion": "v1.0.20210317",
  "DerivedVendorReportedEchoSpacing": 0.000690017,
  "DeviceSerialNumber": "35450",
  "DwellTime": 2.5e-06,
  "EchoTime": 0.0348,
  "EffectiveEchoSpacing": 0.000690017,
  "FlipAngle": 55,
  "ImageComments": "Unaliased MB8/PE3 (remote)",
  "ImageOrientationPatientDICOM": [0.999854, -0.00308923, -0.0168291, 5.91495e-08, 0.983567, -0.180545],
  "ImageType": [
    "ORIGINAL",
    "PRIMARY",
    "M",
    "MB",
    "ND",
    "MOSAIC"
],
  "ImagingFrequency": 123.234,
  "InPlanePhaseEncodingDirectionDICOM": "COL",
  "InstitutionAddress": "Univeristy Ave. 197,Newark,North East,US,07102-1814",
  "InstitutionName": "RUBIC",
  "InstitutionalDepartmentName": "Department",
  "MRAcquisitionType": "2D",
  "MagneticFieldStrength": 3,
  "Manufacturer": "Siemens",
  "ManufacturersModelName": "TrioTim",
  "Modality": "MR",
  "MultibandAccelerationFactor": 8,
  "PartialFourier": 0.875,
  "PatientPosition": "HFS",
  "PercentPhaseFOV": 100,
  "PercentSampling": 100,
  "PhaseEncodingDirection": "j-",
  "PhaseEncodingSteps": 91,
  "PhaseResolution": 1,
  "PixelBandwidth": 1923,
  "ProcedureStepDescription": "Cole^Michael",
  "ProtocolName": "cmrr_mbep2d_bold_2mm_MB8_Task_8x",
  "PulseSequenceDetails": "%CustomerSeq%\\cmrr_mbep2d_bold",
  "ReceiveCoilName": "32Ch_Head",
  "ReconMatrixPE": 104,
  "RepetitionTime": 0.785,
  "SAR": 0.124344,
  "ScanOptions": "PFP\\FS",
  "ScanningSequence": "EP",
  "SequenceName": "epfid2d1_104",
  "SequenceVariant": "SK\\SS",
  "SeriesDescription": "cmrr_mbep2d_bold_2mm_MB8_Task_8x",
  "SeriesNumber": 13,
  "ShimSetting": [2109, -351, -7327, 443, -111, -414, -39, 99],
  "SliceThickness": 2,
  "SliceTiming": [0, 0.4375, 0.0875, 0.525, 0.175, 0.6125, 0.2625, 0.7, 0.35, 0, 0.4375, 0.0875, 0.525, 0.175, 0.6125, 0.2625, 0.7, 0.35, 0, 0.4375, 0.0875, 0.525, 0.175, 0.6125, 0.2625, 0.7, 0.35, 0, 0.4375, 0.0875, 0.525, 0.175, 0.6125, 0.2625, 0.7, 0.35, 0, 0.4375, 0.0875, 0.525, 0.175, 0.6125, 0.2625, 0.7, 0.35, 0, 0.4375, 0.0875, 0.525, 0.175, 0.6125, 0.2625, 0.7, 0.35, 0, 0.4375, 0.0875, 0.525, 0.175, 0.6125, 0.2625, 0.7, 0.35, 0, 0.4375, 0.0875, 0.525, 0.175, 0.6125, 0.2625, 0.7, 0.35],
  "SoftwareVersions": "syngo MR B19",
  "SpacingBetweenSlices": 2,
  "StationName": "MRC35450",
  "TaskName": "cpro",
  "TotalReadoutTime": 0.0710717,
  "TxRefAmp": 322.319,
  "dcmmeta_affine": [
    [-1.9997072219848633, 1.1829893509229805e-07, -0.03422063589096069, 106.5240707397461],
    [0.006178467068821192, 1.967133641242981, -0.3610363006591797, -72.4842300415039],
    [-0.033658262342214584, 0.36108916997909546, 1.9668456315994263, -108.79446411132812],
    [0.0, 0.0, 0.0, 1.0]
],
  "dcmmeta_reorient_transform": [
    [0.0, -1.0, 0.0, 103.0],
    [1.0, 0.0, 0.0, 0.0],
    [0.0, 0.0, 1.0, 0.0],
    [0.0, 0.0, 0.0, 1.0]
],
  "dcmmeta_shape": [104, 104, 72, 581],
  "dcmmeta_slice_dim": 2,
  "dcmmeta_version": 0.6,
  "global": {
    "const": {
      "AcquisitionMatrix": [104, 0, 0, 104],
      "AngioFlag": "N",
      "BitsAllocated": 16,
      "BitsStored": 12,
      "Columns": 936,
      "EchoNumbers": 1,
      "EchoTime": 34.8,
      "EchoTrainLength": 1,
      "FlipAngle": 55.0,
      "HighBit": 11,
      "ImageOrientationPatient": [0.9998536077852, -0.0030892334261, -0.0168291305708, 5.9149467e-08, 0.98356680241819, -0.1805445794835],
      "ImagePositionPatient": [-938.40233722254, -945.88787226768, 92.612642220196],
      "ImageType": [
        "ORIGINAL",
        "PRIMARY",
        "M",
        "MB",
        "ND",
        "MOSAIC"
],
      "ImagedNucleus": "1H",
      "ImagingFrequency": 123.234424,
      "InPlanePhaseEncodingDirection": "COL",
      "MRAcquisitionType": "2D",
      "MagneticFieldStrength": 3.0,
      "Manufacturer": "SIEMENS",
      "ManufacturerModelName": "TrioTim",
      "Modality": "MR",
      "NumberOfAverages": 1.0,
      "NumberOfPhaseEncodingSteps": 91,
      "PercentPhaseFieldOfView": 100.0,
      "PercentSampling": 100.0,
      "PerformedProcedureStepStartTime": "132052.500000",
      "PhotometricInterpretation": "MONOCHROME2",
      "PixelBandwidth": 1923.0,
      "PixelRepresentation": 0,
      "PixelSpacing": [2.0, 2.0],
      "ProtocolName": "cmrr_mbep2d_bold_2mm_MB8_Task_8x",
      "RepetitionTime": 785.0,
      "Rows": 936,
      "SAR": 0.12434445645415,
      "SamplesPerPixel": 1,
      "ScanOptions": [
        "PFP",
        "FS"
],
      "ScanningSequence": "EP",
      "SequenceName": "epfid2d1_104",
      "SequenceVariant": [
        "SK",
        "SS"
],
      "SeriesDescription": "cmrr_mbep2d_bold_2mm_MB8_Task_8x",
      "SeriesNumber": 13,
      "SeriesTime": "142950.921000",
      "SliceLocation": -95.728904523233,
      "SliceThickness": 2.0,
      "SmallestImagePixelValue": 0,
      "SoftwareVersions": "syngo MR B19",
      "SpacingBetweenSlices": 2.0000000291049,
      "SpecificCharacterSet": "ISO_IR 100",
      "StudyID": "1",
      "StudyTime": "132052.484000",
      "TransmitCoilName": "Body",
      "VariableFlipAngleFlag": "N",
      "WindowCenterWidthExplanation": "Algo1",
      "dBdt": 0.0},
    "slices": {}
  },
  "time": {
    "samples": {
      "AcquisitionNumber": [1, 2, 3, 4, 5, 6, 7, 8, 9, 10, 11, 12, 13, 14, 15, 16, 17, 18, 19, 20, 21, 22, 23, 24, 25, 26, 27, 28, 29, 30, 31, 32, 33, 34, 35, 36, 37, 38, 39, 40, 41, 42, 43, 44, 45, 46, 47, 48, 49, 50, 51, 52, 53, 54, 55, 56, 57, 58, 59, 60, 61, 62, 63, 64, 65, 66, 67, 68, 69, 70, 71, 72, 73, 74, 75, 76, 77, 78, 79, 80, 81, 82, 83, 84, 85, 86, 87, 88, 89, 90, 91, 92, 93, 94, 95, 96, 97, 98, 99, 100, 101, 102, 103, 104, 105, 106, 107, 108, 109, 110, 111, 112, 113, 114, 115, 116, 117, 118, 119, 120, 121, 122, 123, 124, 125, 126, 127, 128, 129, 130, 131, 132, 133, 134, 135, 136, 137, 138, 139, 140, 141, 142, 143, 144, 145, 146, 147, 148, 149, 150, 151, 152, 153, 154, 155, 156, 157, 158, 159, 160, 161, 162, 163, 164, 165, 166, 167, 168, 169, 170, 171, 172, 173, 174, 175, 176, 177, 178, 179, 180, 181, 182, 183, 184, 185, 186, 187, 188, 189, 190, 191, 192, 193, 194, 195, 196, 197, 198, 199, 200, 201, 202, 203, 204, 205, 206, 207, 208, 209, 210, 211, 212, 213, 214, 215, 216, 217, 218, 219, 220, 221, 222, 223, 224, 225, 226, 227, 228, 229, 230, 231, 232, 233, 234, 235, 236, 237, 238, 239, 240, 241, 242, 243, 244, 245, 246, 247, 248, 249, 250, 251, 252, 253, 254, 255, 256, 257, 258, 259, 260, 261, 262, 263, 264, 265, 266, 267, 268, 269, 270, 271, 272, 273, 274, 275, 276, 277, 278, 279, 280, 281, 282, 283, 284, 285, 286, 287, 288, 289, 290, 291, 292, 293, 294, 295, 296, 297, 298, 299, 300, 301, 302, 303, 304, 305, 306, 307, 308, 309, 310, 311, 312, 313, 314, 315, 316, 317, 318, 319, 320, 321, 322, 323, 324, 325, 326, 327, 328, 329, 330, 331, 332, 333, 334, 335, 336, 337, 338, 339, 340, 341, 342, 343, 344, 345, 346, 347, 348, 349, 350, 351, 352, 353, 354, 355, 356, 357, 358, 359, 360, 361, 362, 363, 364, 365, 366, 367, 368, 369, 370, 371, 372, 373, 374, 375, 376, 377, 378, 379, 380, 381, 382, 383, 384, 385, 386, 387, 388, 389, 390, 391, 392, 393, 394, 395, 396, 397, 398, 399, 400, 401, 402, 403, 404, 405, 406, 407, 408, 409, 410, 411, 412, 413, 414, 415, 416, 417, 418, 419, 420, 421, 422, 423, 424, 425, 426, 427, 428, 429, 430, 431, 432, 433, 434, 435, 436, 437, 438, 439, 440, 441, 442, 443, 444, 445, 446, 447, 448, 449, 450, 451, 452, 453, 454, 455, 456, 457, 458, 459, 460, 461, 462, 463, 464, 465, 466, 467, 468, 469, 470, 471, 472, 473, 474, 475, 476, 477, 478, 479, 480, 481, 482, 483, 484, 485, 486, 487, 488, 489, 490, 491, 492, 493, 494, 495, 496, 497, 498, 499, 500, 501, 502, 503, 504, 505, 506, 507, 508, 509, 510, 511, 512, 513, 514, 515, 516, 517, 518, 519, 520, 521, 522, 523, 524, 525, 526, 527, 528, 529, 530, 531, 532, 533, 534, 535, 536, 537, 538, 539, 540, 541, 542, 543, 544, 545, 546, 547, 548, 549, 550, 551, 552, 553, 554, 555, 556, 557, 558, 559, 560, 561, 562, 563, 564, 565, 566, 567, 568, 569, 570, 571, 572, 573, 574, 575, 576, 577, 578, 579, 580, 581],
      "AcquisitionTime": ["142938.675000", "142939.462500", "142940.250000", "142941.040000", "142941.827500", "142942.615000", "142943.402500", "142944.192500", "142944.980000", "142945.767500", "142946.555000", "142947.345000", "142948.132500", "142948.920000", "142949.707500", "142950.497500", "142951.285000", "142952.072500", "142952.862500", "142953.650000", "142954.437500", "142955.225000", "142956.015000", "142956.802500", "142957.590000", "142958.377500", "142959.167500", "142959.955000", "143000.742500", "143001.530000", "143002.320000", "143003.107500", "143003.895000", "143004.682500", "143005.472500", "143006.260000", "143007.047500", "143007.837500", "143008.625000", "143009.412500", "143010.200000", "143010.990000", "143011.777500", "143012.565000", "143013.352500", "143014.142500", "143014.930000", "143015.717500", "143016.505000", "143017.295000", "143018.082500", "143018.870000", "143019.657500", "143020.447500", "143021.235000", "143022.022500", "143022.810000", "143023.600000", "143024.387500", "143025.175000", "143025.965000", "143026.752500", "143027.540000", "143028.327500", "143029.117500", "143029.905000", "143030.692500", "143031.480000", "143032.270000", "143033.057500", "143033.845000", "143034.632500", "143035.422500", "143036.210000", "143036.997500", "143037.785000", "143038.575000", "143039.362500", "143040.150000", "143040.937500", "143041.727500", "143042.515000", "143043.302500", "143044.092500", "143044.880000", "143045.667500", "143046.455000", "143047.245000", "143048.032500", "143048.820000", "143049.607500", "143050.397500", "143051.185000", "143051.972500", "143052.760000", "143053.550000", "143054.337500", "143055.125000", "143055.912500", "143056.702500", "143057.490000", "143058.277500", "143059.065000", "143059.855000", "143100.642500", "143101.430000", "143102.220000", "143103.007500", "143103.795000", "143104.582500", "143105.372500", "143106.160000", "143106.947500", "143107.735000", "143108.525000", "143109.312500", "143110.100000", "143110.887500", "143111.677500", "143112.465000", "143113.252500", "143114.040000", "143114.830000", "143115.617500", "143116.405000", "143117.192500", "143117.982500", "143118.770000", "143119.557500", "143120.347500", "143121.135000", "143121.922500", "143122.710000", "143123.500000", "143124.287500", "143125.075000", "143125.862500", "143126.652500", "143127.440000", "143128.227500", "143129.015000", "143129.805000", "143130.592500", "143131.380000", "143132.167500", "143132.957500", "143133.745000", "143134.532500", "143135.320000", "143136.110000", "143136.897500", "143137.685000", "143138.475000", "143139.262500", "143140.050000", "143140.837500", "143141.627500", "143142.415000", "143143.202500", "143143.990000", "143144.780000", "143145.567500", "143146.355000", "143147.142500", "143147.932500", "143148.720000", "143149.507500", "143150.295000", "143151.085000", "143151.872500", "143152.660000", "143153.447500", "143154.237500", "143155.025000", "143155.812500", "143156.602500", "143157.390000", "143158.177500", "143158.965000", "143159.755000", "143200.542500", "143201.330000", "143202.117500", "143202.907500", "143203.695000", "143204.482500", "143205.270000", "143206.060000", "143206.847500", "143207.635000", "143208.422500", "143209.212500", "143210.000000", "143210.787500", "143211.575000", "143212.365000", "143213.152500", "143213.940000", "143214.730000", "143215.517500", "143216.305000", "143217.092500", "143217.882500", "143218.670000", "143219.457500", "143220.245000", "143221.035000", "143221.822500", "143222.610000", "143223.397500", "143224.187500", "143224.975000", "143225.762500", "143226.550000", "143227.340000", "143228.127500", "143228.915000", "143229.702500", "143230.492500", "143231.280000", "143232.067500", "143232.857500", "143233.645000", "143234.432500", "143235.220000", "143236.010000", "143236.797500", "143237.585000", "143238.372500", "143239.162500", "143239.950000", "143240.737500", "143241.525000", "143242.315000", "143243.102500", "143243.890000", "143244.677500", "143245.467500", "143246.255000", "143247.042500", "143247.830000", "143248.620000", "143249.407500", "143250.195000", "143250.985000", "143251.772500", "143252.560000", "143253.347500", "143254.137500", "143254.925000", "143255.712500", "143256.500000", "143257.290000", "143258.077500", "143258.865000", "143259.652500", "143300.442500", "143301.230000", "143302.017500", "143302.805000", "143303.595000", "143304.382500", "143305.170000", "143305.957500", "143306.747500", "143307.535000", "143308.322500", "143309.112500", "143309.900000", "143310.687500", "143311.475000", "143312.265000", "143313.052500", "143313.840000", "143314.627500", "143315.417500", "143316.205000", "143316.992500", "143317.780000", "143318.570000", "143319.357500", "143320.145000", "143320.932500", "143321.722500", "143322.510000", "143323.297500", "143324.087500", "143324.875000", "143325.662500", "143326.450000", "143327.240000", "143328.027500", "143328.815000", "143329.602500", "143330.392500", "143331.180000", "143331.967500", "143332.755000", "143333.545000", "143334.332500", "143335.120000", "143335.907500", "143336.697500", "143337.485000", "143338.272500", "143339.060000", "143339.850000", "143340.637500", "143341.425000", "143342.215000", "143343.002500", "143343.790000", "143344.577500", "143345.367500", "143346.155000", "143346.942500", "143347.730000", "143348.520000", "143349.307500", "143350.095000", "143350.882500", "143351.672500", "143352.460000", "143353.247500", "143354.035000", "143354.825000", "143355.612500", "143356.400000", "143357.187500", "143357.977500", "143358.765000", "143359.552500", "143400.342500", "143401.130000", "143401.917500", "143402.705000", "143403.495000", "143404.282500", "143405.070000", "143405.857500", "143406.647500", "143407.435000", "143408.222500", "143409.010000", "143409.800000", "143410.587500", "143411.375000", "143412.162500", "143412.952500", "143413.740000", "143414.527500", "143415.315000", "143416.105000", "143416.892500", "143417.680000", "143418.470000", "143419.257500", "143420.045000", "143420.832500", "143421.622500", "143422.410000", "143423.197500", "143423.985000", "143424.775000", "143425.562500", "143426.350000", "143427.137500", "143427.927500", "143428.715000", "143429.502500", "143430.290000", "143431.080000", "143431.867500", "143432.655000", "143433.442500", "143434.232500", "143435.020000", "143435.807500", "143436.597500", "143437.385000", "143438.172500", "143438.960000", "143439.750000", "143440.537500", "143441.325000", "143442.112500", "143442.902500", "143443.690000", "143444.477500", "143445.265000", "143446.055000", "143446.842500", "143447.630000", "143448.417500", "143449.207500", "143449.995000", "143450.782500", "143451.570000", "143452.360000", "143453.147500", "143453.935000", "143454.725000", "143455.512500", "143456.300000", "143457.087500", "143457.877500", "143458.665000", "143459.452500", "143500.240000", "143501.030000", "143501.817500", "143502.605000", "143503.392500", "143504.182500", "143504.970000", "143505.757500", "143506.545000", "143507.335000", "143508.122500", "143508.910000", "143509.697500", "143510.487500", "143511.275000", "143512.062500", "143512.852500", "143513.640000", "143514.427500", "143515.215000", "143516.005000", "143516.792500", "143517.580000", "143518.367500", "143519.157500", "143519.945000", "143520.732500", "143521.520000", "143522.310000", "143523.097500", "143523.885000", "143524.672500", "143525.462500", "143526.250000", "143527.037500", "143527.825000", "143528.615000", "143529.402500", "143530.190000", "143530.980000", "143531.767500", "143532.555000", "143533.342500", "143534.132500", "143534.920000", "143535.707500", "143536.495000", "143537.285000", "143538.072500", "143538.860000", "143539.647500", "143540.437500", "143541.225000", "143542.012500", "143542.800000", "143543.590000", "143544.377500", "143545.165000", "143545.952500", "143546.742500", "143547.530000", "143548.317500", "143549.107500", "143549.895000", "143550.682500", "143551.470000", "143552.260000", "143553.047500", "143553.835000", "143554.622500", "143555.412500", "143556.200000", "143556.987500", "143557.775000", "143558.565000", "143559.352500", "143600.140000", "143600.927500", "143601.717500", "143602.505000", "143603.292500", "143604.080000", "143604.870000", "143605.657500", "143606.445000", "143607.235000", "143608.022500", "143608.810000", "143609.597500", "143610.387500", "143611.175000", "143611.962500", "143612.750000", "143613.540000", "143614.327500", "143615.115000", "143615.902500", "143616.692500", "143617.480000", "143618.267500", "143619.055000", "143619.845000", "143620.632500", "143621.420000", "143622.207500", "143622.997500", "143623.785000", "143624.572500", "143625.362500", "143626.150000", "143626.937500", "143627.725000", "143628.515000", "143629.302500", "143630.090000", "143630.877500", "143631.667500", "143632.455000", "143633.242500", "143634.030000", "143634.820000", "143635.607500", "143636.395000", "143637.182500", "143637.972500", "143638.760000", "143639.547500", "143640.337500", "143641.125000", "143641.912500", "143642.700000", "143643.490000", "143644.277500", "143645.065000", "143645.852500", "143646.642500", "143647.430000", "143648.217500", "143649.005000", "143649.795000", "143650.582500", "143651.370000", "143652.157500", "143652.947500", "143653.735000", "143654.522500", "143655.310000", "143656.100000", "143656.887500", "143657.675000", "143658.465000", "143659.252500", "143700.040000", "143700.827500", "143701.617500", "143702.405000", "143703.192500", "143703.980000", "143704.770000", "143705.557500", "143706.345000", "143707.132500", "143707.922500", "143708.710000", "143709.497500", "143710.285000", "143711.075000", "143711.862500", "143712.650000", "143713.437500", "143714.227500", "143715.015000", "143715.802500"],
      "ContentTime": ["142950.921000", "142950.937000", "142950.937000", "142950.937000", "142950.937000", "142950.937000", "142950.937000", "142950.953000", "142950.953000", "142950.953000", "142950.953000", "142950.953000", "142950.953000", "142950.953000", "143010.906000", "143010.906000", "143010.906000", "143010.906000", "143010.906000", "143010.906000", "143010.921000", "143010.921000", "143010.921000", "143010.921000", "143010.937000", "143010.937000", "143010.937000", "143010.937000", "143010.937000", "143010.953000", "143010.953000", "143010.953000", "143010.953000", "143010.953000", "143010.953000", "143010.953000", "143010.968000", "143010.968000", "143010.968000", "143030.906000", "143030.906000", "143030.906000", "143030.906000", "143030.906000", "143030.906000", "143030.921000", "143030.921000", "143030.921000", "143030.921000", "143030.921000", "143030.921000", "143030.921000", "143030.937000", "143030.937000", "143030.937000", "143030.937000", "143030.937000", "143030.937000", "143030.937000", "143030.953000", "143030.953000", "143030.953000", "143030.953000", "143030.953000", "143030.953000", "143050.906000", "143050.906000", "143050.906000", "143050.906000", "143050.906000", "143050.906000", "143050.921000", "143050.921000", "143050.921000", "143050.921000", "143050.921000", "143050.921000", "143050.921000", "143050.937000", "143050.937000", "143050.937000", "143050.937000", "143050.937000", "143050.937000", "143050.937000", "143050.953000", "143050.953000", "143050.953000", "143050.953000", "143050.953000", "143110.906000", "143110.906000", "143110.906000", "143110.906000", "143110.921000", "143110.921000", "143110.921000", "143110.921000", "143110.921000", "143110.921000", "143110.921000", "143110.937000", "143110.937000", "143110.937000", "143110.937000", "143110.937000", "143110.937000", "143110.937000", "143110.953000", "143110.953000", "143110.953000", "143110.953000", "143110.953000", "143110.953000", "143110.968000", "143130.906000", "143130.906000", "143130.906000", "143130.906000", "143130.906000", "143130.906000", "143130.921000", "143130.921000", "143130.921000", "143130.921000", "143130.921000", "143130.921000", "143130.921000", "143130.937000", "143130.937000", "143130.937000", "143130.937000", "143130.937000", "143130.937000", "143130.953000", "143130.953000", "143130.953000", "143130.953000", "143130.953000", "143130.953000", "143130.968000", "143150.906000", "143150.906000", "143150.906000", "143150.906000", "143150.906000", "143150.906000", "143150.921000", "143150.921000", "143150.921000", "143150.921000", "143150.921000", "143150.921000", "143150.921000", "143150.937000", "143150.937000", "143150.937000", "143150.937000", "143150.937000", "143150.937000", "143150.953000", "143150.953000", "143150.953000", "143150.953000", "143150.953000", "143150.953000", "143210.906000", "143210.906000", "143210.906000", "143210.906000", "143210.906000", "143210.906000", "143210.921000", "143210.921000", "143210.921000", "143210.921000", "143210.921000", "143210.921000", "143210.921000", "143210.937000", "143210.937000", "143210.937000", "143210.937000", "143210.937000", "143210.937000", "143210.937000", "143210.953000", "143210.953000", "143210.953000", "143210.953000", "143210.953000", "143210.953000", "143230.906000", "143230.906000", "143230.906000", "143230.906000", "143230.906000", "143230.906000", "143230.921000", "143230.921000", "143230.921000", "143230.921000", "143230.921000", "143230.921000", "143230.937000", "143230.937000", "143230.937000", "143230.937000", "143230.937000", "143230.937000", "143230.937000", "143230.953000", "143230.953000", "143230.953000", "143230.953000", "143230.953000", "143230.953000", "143250.906000", "143250.906000", "143250.906000", "143250.906000", "143250.921000", "143250.921000", "143250.921000", "143250.921000", "143250.921000", "143250.921000", "143250.921000", "143250.937000", "143250.937000", "143250.937000", "143250.937000", "143250.937000", "143250.937000", "143250.937000", "143250.953000", "143250.953000", "143250.953000", "143250.953000", "143250.953000", "143250.953000", "143250.953000", "143250.968000", "143310.906000", "143310.906000", "143310.906000", "143310.906000", "143310.906000", "143310.906000", "143310.921000", "143310.921000", "143310.921000", "143310.921000", "143310.921000", "143310.921000", "143310.937000", "143310.937000", "143310.937000", "143310.937000", "143310.937000", "143310.953000", "143310.953000", "143310.953000", "143310.953000", "143310.953000", "143310.953000", "143310.953000", "143310.968000", "143330.906000", "143330.906000", "143330.906000", "143330.906000", "143330.906000", "143330.906000", "143330.921000", "143330.921000", "143330.921000", "143330.921000", "143330.921000", "143330.921000", "143330.921000", "143330.937000", "143330.937000", "143330.937000", "143330.937000", "143330.937000", "143330.937000", "143330.937000", "143330.953000", "143330.953000", "143330.953000", "143330.953000", "143330.953000", "143330.953000", "143350.906000", "143350.906000", "143350.906000", "143350.906000", "143350.906000", "143350.906000", "143350.921000", "143350.921000", "143350.921000", "143350.921000", "143350.921000", "143350.921000", "143350.921000", "143350.937000", "143350.937000", "143350.937000", "143350.937000", "143350.937000", "143350.937000", "143350.937000", "143350.953000", "143350.953000", "143350.953000", "143350.953000", "143350.953000", "143410.906000", "143410.906000", "143410.906000", "143410.906000", "143410.906000", "143410.906000", "143410.921000", "143410.921000", "143410.921000", "143410.921000", "143410.921000", "143410.921000", "143410.921000", "143410.937000", "143410.937000", "143410.937000", "143410.937000", "143410.937000", "143410.937000", "143410.953000", "143410.953000", "143410.953000", "143410.953000", "143410.953000", "143410.953000", "143410.968000", "143430.906000", "143430.906000", "143430.906000", "143430.906000", "143430.906000", "143430.906000", "143430.921000", "143430.921000", "143430.921000", "143430.921000", "143430.921000", "143430.921000", "143430.921000", "143430.937000", "143430.937000", "143430.937000", "143430.937000", "143430.937000", "143430.937000", "143430.937000", "143430.953000", "143430.953000", "143430.953000", "143430.953000", "143430.953000", "143450.906000", "143450.906000", "143450.906000", "143450.906000", "143450.906000", "143450.906000", "143450.921000", "143450.921000", "143450.921000", "143450.921000", "143450.921000", "143450.921000", "143450.921000", "143450.937000", "143450.937000", "143450.937000", "143450.937000", "143450.937000", "143450.937000", "143450.937000", "143450.953000", "143450.953000", "143450.953000", "143450.953000", "143450.953000", "143450.953000", "143510.906000", "143510.906000", "143510.906000", "143510.906000", "143510.906000", "143510.906000", "143510.921000", "143510.921000", "143510.921000", "143510.921000", "143510.921000", "143510.921000", "143510.921000", "143510.937000", "143510.937000", "143510.937000", "143510.937000", "143510.937000", "143510.937000", "143510.937000", "143510.953000", "143510.953000", "143510.953000", "143510.953000", "143510.953000", "143530.906000", "143530.906000", "143530.906000", "143530.906000", "143530.906000", "143530.906000", "143530.921000", "143530.921000", "143530.921000", "143530.921000", "143530.921000", "143530.921000", "143530.921000", "143530.937000", "143530.937000", "143530.937000", "143530.937000", "143530.937000", "143530.953000", "143530.953000", "143530.953000", "143530.953000", "143530.953000", "143530.953000", "143530.953000", "143530.968000", "143550.906000", "143550.906000", "143550.906000", "143550.906000", "143550.906000", "143550.906000", "143550.921000", "143550.921000", "143550.921000", "143550.921000", "143550.921000", "143550.921000", "143550.921000", "143550.937000", "143550.937000", "143550.937000", "143550.937000", "143550.937000", "143550.937000", "143550.937000", "143550.953000", "143550.953000", "143550.953000", "143550.953000", "143550.953000", "143610.906000", "143610.906000", "143610.906000", "143610.906000", "143610.906000", "143610.906000", "143610.921000", "143610.921000", "143610.921000", "143610.921000", "143610.921000", "143610.921000", "143610.921000", "143610.937000", "143610.937000", "143610.937000", "143610.937000", "143610.937000", "143610.937000", "143610.937000", "143610.953000", "143610.953000", "143610.953000", "143610.953000", "143610.953000", "143610.953000", "143630.906000", "143630.906000", "143630.906000", "143630.906000", "143630.906000", "143630.906000", "143630.921000", "143630.921000", "143630.921000", "143630.921000", "143630.937000", "143630.937000", "143630.937000", "143630.937000", "143630.937000", "143630.937000", "143630.937000", "143630.953000", "143630.953000", "143630.953000", "143630.953000", "143630.953000", "143630.953000", "143630.953000", "143630.968000", "143650.906000", "143650.906000", "143650.906000", "143650.906000", "143650.906000", "143650.906000", "143650.921000", "143650.921000", "143650.921000", "143650.921000", "143650.921000", "143650.921000", "143650.921000", "143650.937000", "143650.937000", "143650.937000", "143650.937000", "143650.937000", "143650.937000", "143650.953000", "143650.953000", "143650.953000", "143650.953000", "143650.953000", "143650.953000", "143650.953000", "143710.906000", "143710.906000", "143710.906000", "143710.906000", "143710.906000", "143710.921000", "143710.921000", "143710.921000", "143710.921000", "143710.921000", "143710.921000", "143710.921000", "143710.937000", "143710.937000", "143710.937000", "143710.937000", "143710.937000", "143710.937000", "143710.937000", "143710.953000", "143710.953000", "143710.953000", "143710.953000", "143710.953000", "143710.953000", "143716.015000", "143716.015000", "143716.015000", "143716.015000", "143716.031000", "143716.031000", "143716.031000"],
      "DataSetTrailingPadding": [
        "\u0000\u0000\u0000\u0000\u0000\u0000\u0000\u0000\u0000\u0000\u0000\u0000\u0000\u0000\u0000\u0000\u0000\u0000\u0000\u0000\u0000\u0000\u0000\u0000\u0000\u0000\u0000\u0000\u0000\u0000\u0000\u0000\u0000\u0000\u0000\u0000\u0000\u0000\u0000\u0000\u0000\u0000\u0000\u0000\u0000\u0000\u0000\u0000\u0000\u0000\u0000\u0000\u0000\u0000\u0000\u0000\u0000\u0000\u0000\u0000\u0000\u0000\u0000\u0000\u0000\u0000\u0000\u0000\u0000\u0000\u0000\u0000\u0000\u0000\u0000\u0000\u0000\u0000\u0000\u0000\u0000\u0000\u0000\u0000\u0000\u0000\u0000\u0000\u0000\u0000\u0000\u0000\u0000\u0000\u0000\u0000\u0000\u0000\u0000\u0000\u0000\u0000\u0000\u0000\u0000\u0000\u0000\u0000\u0000\u0000\u0000\u0000\u0000\u0000\u0000\u0000\u0000\u0000\u0000\u0000\u0000\u0000\u0000\u0000\u0000\u0000",
        "\u0000\u0000\u0000\u0000\u0000\u0000\u0000\u0000\u0000\u0000\u0000\u0000\u0000\u0000\u0000\u0000\u0000\u0000\u0000\u0000\u0000\u0000\u0000\u0000\u0000\u0000\u0000\u0000\u0000\u0000\u0000\u0000\u0000\u0000\u0000\u0000\u0000\u0000\u0000\u0000\u0000\u0000\u0000\u0000\u0000\u0000\u0000\u0000\u0000\u0000\u0000\u0000\u0000\u0000\u0000\u0000\u0000\u0000\u0000\u0000\u0000\u0000\u0000\u0000\u0000\u0000\u0000\u0000\u0000\u0000\u0000\u0000\u0000\u0000\u0000\u0000\u0000\u0000\u0000\u0000\u0000\u0000\u0000\u0000\u0000\u0000\u0000\u0000\u0000\u0000\u0000\u0000\u0000\u0000\u0000\u0000\u0000\u0000\u0000\u0000\u0000\u0000\u0000\u0000\u0000\u0000\u0000\u0000\u0000\u0000\u0000\u0000\u0000\u0000\u0000\u0000\u0000\u0000\u0000\u0000\u0000\u0000\u0000\u0000\u0000\u0000",
