{
  "AcquisitionMatrixPE": 104,
  "AcquisitionNumber": 1,
  "AcquisitionTime": "14:54:28.722500",
  "BandwidthPerPixelPhaseEncode": 13.935,
  "BaseResolution": 104,
  "CoilString": "C:HEA;HEP",
  "ConversionSoftware": "dcm2niix",
  "ConversionSoftwareVersion": "v1.0.20210317",
  "DerivedVendorReportedEchoSpacing": 0.000690017,
  "DeviceSerialNumber": "35450",
  "DwellTime": 2.5e-06,
  "EchoTime": 0.0348,
  "EffectiveEchoSpacing": 0.000690017,
  "FlipAngle": 55,
  "ImageComments": "Unaliased MB8/PE3 (remote)",
  "ImageOrientationPatientDICOM": [0.999854, -0.00308923, -0.0168291, 5.91495e-08, 0.983567, -0.180545],
  "ImageType": [
    "ORIGINAL",
    "PRIMARY",
    "M",
    "MB",
    "ND",
    "MOSAIC"
],
  "ImagingFrequency": 123.234,
  "InPlanePhaseEncodingDirectionDICOM": "COL",
  "InstitutionAddress": "Univeristy Ave. 197,Newark,North East,US,07102-1814",
  "InstitutionName": "RUBIC",
  "InstitutionalDepartmentName": "Department",
  "MRAcquisitionType": "2D",
  "MagneticFieldStrength": 3,
  "Manufacturer": "Siemens",
  "ManufacturersModelName": "TrioTim",
  "Modality": "MR",
  "MultibandAccelerationFactor": 8,
  "PartialFourier": 0.875,
  "PatientPosition": "HFS",
  "PercentPhaseFOV": 100,
  "PercentSampling": 100,
  "PhaseEncodingDirection": "j-",
  "PhaseEncodingSteps": 91,
  "PhaseResolution": 1,
  "PixelBandwidth": 1923,
  "ProcedureStepDescription": "Cole^Michael",
  "ProtocolName": "cmrr_mbep2d_bold_2mm_MB8_Task_8x",
  "PulseSequenceDetails": "%CustomerSeq%\\cmrr_mbep2d_bold",
  "ReceiveCoilName": "32Ch_Head",
  "ReconMatrixPE": 104,
  "RepetitionTime": 0.785,
  "SAR": 0.116451,
  "ScanOptions": "PFP\\FS",
  "ScanningSequence": "EP",
  "SequenceName": "epfid2d1_104",
  "SequenceVariant": "SK\\SS",
  "SeriesDescription": "cmrr_mbep2d_bold_2mm_MB8_Task_8x",
  "SeriesNumber": 19,
  "ShimSetting": [2109, -351, -7327, 443, -111, -414, -39, 99],
  "SliceThickness": 2,
  "SliceTiming": [0, 0.4375, 0.0875, 0.525, 0.175, 0.6125, 0.2625, 0.7, 0.35, 0, 0.4375, 0.0875, 0.525, 0.175, 0.6125, 0.2625, 0.7, 0.35, 0, 0.4375, 0.0875, 0.525, 0.175, 0.6125, 0.2625, 0.7, 0.35, 0, 0.4375, 0.0875, 0.525, 0.175, 0.6125, 0.2625, 0.7, 0.35, 0, 0.4375, 0.0875, 0.525, 0.175, 0.6125, 0.2625, 0.7, 0.35, 0, 0.4375, 0.0875, 0.525, 0.175, 0.6125, 0.2625, 0.7, 0.35, 0, 0.4375, 0.0875, 0.525, 0.175, 0.6125, 0.2625, 0.7, 0.35, 0, 0.4375, 0.0875, 0.525, 0.175, 0.6125, 0.2625, 0.7, 0.35],
  "SoftwareVersions": "syngo MR B19",
  "SpacingBetweenSlices": 2,
  "StationName": "MRC35450",
  "TaskName": "cpro",
  "TotalReadoutTime": 0.0710717,
  "TxRefAmp": 322.319,
  "dcmmeta_affine": [
    [-1.9997072219848633, 1.1829893509229805e-07, -0.03422063589096069, 106.5240707397461],
    [0.006178467068821192, 1.967133641242981, -0.3610363006591797, -72.4842300415039],
    [-0.033658262342214584, 0.36108916997909546, 1.9668456315994263, -108.79446411132812],
    [0.0, 0.0, 0.0, 1.0]
],
  "dcmmeta_reorient_transform": [
    [0.0, -1.0, 0.0, 103.0],
    [1.0, 0.0, 0.0, 0.0],
    [0.0, 0.0, 1.0, 0.0],
    [0.0, 0.0, 0.0, 1.0]
],
  "dcmmeta_shape": [104, 104, 72, 581],
  "dcmmeta_slice_dim": 2,
  "dcmmeta_version": 0.6,
  "global": {
    "const": {
      "AcquisitionMatrix": [104, 0, 0, 104],
      "AngioFlag": "N",
      "BitsAllocated": 16,
      "BitsStored": 12,
      "Columns": 936,
      "EchoNumbers": 1,
      "EchoTime": 34.8,
      "EchoTrainLength": 1,
      "FlipAngle": 55.0,
      "HighBit": 11,
      "ImageOrientationPatient": [0.9998536077852, -0.0030892334261, -0.0168291305708, 5.9149467e-08, 0.98356680241819, -0.1805445794835],
      "ImagePositionPatient": [-938.40233722254, -945.88787226768, 92.612642220196],
      "ImageType": [
        "ORIGINAL",
        "PRIMARY",
        "M",
        "MB",
        "ND",
        "MOSAIC"
],
      "ImagedNucleus": "1H",
      "ImagingFrequency": 123.234424,
      "InPlanePhaseEncodingDirection": "COL",
      "MRAcquisitionType": "2D",
      "MagneticFieldStrength": 3.0,
      "Manufacturer": "SIEMENS",
      "ManufacturerModelName": "TrioTim",
      "Modality": "MR",
      "NumberOfAverages": 1.0,
      "NumberOfPhaseEncodingSteps": 91,
      "PercentPhaseFieldOfView": 100.0,
      "PercentSampling": 100.0,
      "PerformedProcedureStepStartTime": "132052.500000",
      "PhotometricInterpretation": "MONOCHROME2",
      "PixelBandwidth": 1923.0,
      "PixelRepresentation": 0,
      "PixelSpacing": [2.0, 2.0],
      "ProtocolName": "cmrr_mbep2d_bold_2mm_MB8_Task_8x",
      "RepetitionTime": 785.0,
      "Rows": 936,
      "SAR": 0.11645063800734,
      "SamplesPerPixel": 1,
      "ScanOptions": [
        "PFP",
        "FS"
],
      "ScanningSequence": "EP",
      "SequenceName": "epfid2d1_104",
      "SequenceVariant": [
        "SK",
        "SS"
],
      "SeriesDescription": "cmrr_mbep2d_bold_2mm_MB8_Task_8x",
      "SeriesNumber": 19,
      "SeriesTime": "145450.921000",
      "SliceLocation": -95.728904523233,
      "SliceThickness": 2.0,
      "SmallestImagePixelValue": 0,
      "SoftwareVersions": "syngo MR B19",
      "SpacingBetweenSlices": 2.0000000291049,
      "SpecificCharacterSet": "ISO_IR 100",
      "StudyID": "1",
      "StudyTime": "132052.484000",
      "TransmitCoilName": "Body",
      "VariableFlipAngleFlag": "N",
      "WindowCenterWidthExplanation": "Algo1",
      "dBdt": 0.0},
    "slices": {}
  },
  "time": {
    "samples": {
      "AcquisitionNumber": [1, 2, 3, 4, 5, 6, 7, 8, 9, 10, 11, 12, 13, 14, 15, 16, 17, 18, 19, 20, 21, 22, 23, 24, 25, 26, 27, 28, 29, 30, 31, 32, 33, 34, 35, 36, 37, 38, 39, 40, 41, 42, 43, 44, 45, 46, 47, 48, 49, 50, 51, 52, 53, 54, 55, 56, 57, 58, 59, 60, 61, 62, 63, 64, 65, 66, 67, 68, 69, 70, 71, 72, 73, 74, 75, 76, 77, 78, 79, 80, 81, 82, 83, 84, 85, 86, 87, 88, 89, 90, 91, 92, 93, 94, 95, 96, 97, 98, 99, 100, 101, 102, 103, 104, 105, 106, 107, 108, 109, 110, 111, 112, 113, 114, 115, 116, 117, 118, 119, 120, 121, 122, 123, 124, 125, 126, 127, 128, 129, 130, 131, 132, 133, 134, 135, 136, 137, 138, 139, 140, 141, 142, 143, 144, 145, 146, 147, 148, 149, 150, 151, 152, 153, 154, 155, 156, 157, 158, 159, 160, 161, 162, 163, 164, 165, 166, 167, 168, 169, 170, 171, 172, 173, 174, 175, 176, 177, 178, 179, 180, 181, 182, 183, 184, 185, 186, 187, 188, 189, 190, 191, 192, 193, 194, 195, 196, 197, 198, 199, 200, 201, 202, 203, 204, 205, 206, 207, 208, 209, 210, 211, 212, 213, 214, 215, 216, 217, 218, 219, 220, 221, 222, 223, 224, 225, 226, 227, 228, 229, 230, 231, 232, 233, 234, 235, 236, 237, 238, 239, 240, 241, 242, 243, 244, 245, 246, 247, 248, 249, 250, 251, 252, 253, 254, 255, 256, 257, 258, 259, 260, 261, 262, 263, 264, 265, 266, 267, 268, 269, 270, 271, 272, 273, 274, 275, 276, 277, 278, 279, 280, 281, 282, 283, 284, 285, 286, 287, 288, 289, 290, 291, 292, 293, 294, 295, 296, 297, 298, 299, 300, 301, 302, 303, 304, 305, 306, 307, 308, 309, 310, 311, 312, 313, 314, 315, 316, 317, 318, 319, 320, 321, 322, 323, 324, 325, 326, 327, 328, 329, 330, 331, 332, 333, 334, 335, 336, 337, 338, 339, 340, 341, 342, 343, 344, 345, 346, 347, 348, 349, 350, 351, 352, 353, 354, 355, 356, 357, 358, 359, 360, 361, 362, 363, 364, 365, 366, 367, 368, 369, 370, 371, 372, 373, 374, 375, 376, 377, 378, 379, 380, 381, 382, 383, 384, 385, 386, 387, 388, 389, 390, 391, 392, 393, 394, 395, 396, 397, 398, 399, 400, 401, 402, 403, 404, 405, 406, 407, 408, 409, 410, 411, 412, 413, 414, 415, 416, 417, 418, 419, 420, 421, 422, 423, 424, 425, 426, 427, 428, 429, 430, 431, 432, 433, 434, 435, 436, 437, 438, 439, 440, 441, 442, 443, 444, 445, 446, 447, 448, 449, 450, 451, 452, 453, 454, 455, 456, 457, 458, 459, 460, 461, 462, 463, 464, 465, 466, 467, 468, 469, 470, 471, 472, 473, 474, 475, 476, 477, 478, 479, 480, 481, 482, 483, 484, 485, 486, 487, 488, 489, 490, 491, 492, 493, 494, 495, 496, 497, 498, 499, 500, 501, 502, 503, 504, 505, 506, 507, 508, 509, 510, 511, 512, 513, 514, 515, 516, 517, 518, 519, 520, 521, 522, 523, 524, 525, 526, 527, 528, 529, 530, 531, 532, 533, 534, 535, 536, 537, 538, 539, 540, 541, 542, 543, 544, 545, 546, 547, 548, 549, 550, 551, 552, 553, 554, 555, 556, 557, 558, 559, 560, 561, 562, 563, 564, 565, 566, 567, 568, 569, 570, 571, 572, 573, 574, 575, 576, 577, 578, 579, 580, 581],
      "AcquisitionTime": ["145428.722500", "145429.512500", "145430.300000", "145431.087500", "145431.875000", "145432.665000", "145433.452500", "145434.240000", "145435.027500", "145435.817500", "145436.605000", "145437.392500", "145438.180000", "145438.970000", "145439.757500", "145440.545000", "145441.332500", "145442.122500", "145442.910000", "145443.697500", "145444.487500", "145445.275000", "145446.062500", "145446.850000", "145447.640000", "145448.427500", "145449.215000", "145450.002500", "145450.792500", "145451.580000", "145452.367500", "145453.155000", "145453.945000", "145454.732500", "145455.520000", "145456.307500", "145457.097500", "145457.885000", "145458.672500", "145459.460000", "145500.250000", "145501.037500", "145501.825000", "145502.615000", "145503.402500", "145504.190000", "145504.977500", "145505.767500", "145506.555000", "145507.342500", "145508.130000", "145508.920000", "145509.707500", "145510.495000", "145511.282500", "145512.072500", "145512.860000", "145513.647500", "145514.435000", "145515.225000", "145516.012500", "145516.800000", "145517.587500", "145518.377500", "145519.165000", "145519.952500", "145520.742500", "145521.530000", "145522.317500", "145523.105000", "145523.895000", "145524.682500", "145525.470000", "145526.257500", "145527.047500", "145527.835000", "145528.622500", "145529.410000", "145530.200000", "145530.987500", "145531.775000", "145532.562500", "145533.352500", "145534.140000", "145534.927500", "145535.717500", "145536.505000", "145537.292500", "145538.080000", "145538.870000", "145539.657500", "145540.445000", "145541.232500", "145542.022500", "145542.810000", "145543.597500", "145544.385000", "145545.175000", "145545.962500", "145546.750000", "145547.537500", "145548.327500", "145549.115000", "145549.902500", "145550.690000", "145551.480000", "145552.267500", "145553.055000", "145553.845000", "145554.632500", "145555.420000", "145556.207500", "145556.997500", "145557.785000", "145558.572500", "145559.360000", "145600.150000", "145600.937500", "145601.725000", "145602.512500", "145603.302500", "145604.090000", "145604.877500", "145605.665000", "145606.455000", "145607.242500", "145608.030000", "145608.817500", "145609.607500", "145610.395000", "145611.182500", "145611.972500", "145612.760000", "145613.547500", "145614.335000", "145615.125000", "145615.912500", "145616.700000", "145617.487500", "145618.277500", "145619.065000", "145619.852500", "145620.640000", "145621.430000", "145622.217500", "145623.005000", "145623.792500", "145624.582500", "145625.370000", "145626.157500", "145626.945000", "145627.735000", "145628.522500", "145629.310000", "145630.100000", "145630.887500", "145631.675000", "145632.462500", "145633.252500", "145634.040000", "145634.827500", "145635.615000", "145636.405000", "145637.192500", "145637.980000", "145638.767500", "145639.557500", "145640.345000", "145641.132500", "145641.920000", "145642.710000", "145643.497500", "145644.285000", "145645.072500", "145645.862500", "145646.650000", "145647.437500", "145648.227500", "145649.015000", "145649.802500", "145650.590000", "145651.380000", "145652.167500", "145652.955000", "145653.742500", "145654.532500", "145655.320000", "145656.107500", "145656.895000", "145657.685000", "145658.472500", "145659.260000", "145700.047500", "145700.837500", "145701.625000", "145702.412500", "145703.200000", "145703.990000", "145704.777500", "145705.565000", "145706.355000", "145707.142500", "145707.930000", "145708.717500", "145709.507500", "145710.295000", "145711.082500", "145711.870000", "145712.660000", "145713.447500", "145714.235000", "145715.022500", "145715.812500", "145716.600000", "145717.387500", "145718.175000", "145718.965000", "145719.752500", "145720.540000", "145721.327500", "145722.117500", "145722.905000", "145723.692500", "145724.482500", "145725.270000", "145726.057500", "145726.845000", "145727.635000", "145728.422500", "145729.210000", "145729.997500", "145730.787500", "145731.575000", "145732.362500", "145733.150000", "145733.940000", "145734.727500", "145735.515000", "145736.302500", "145737.092500", "145737.880000", "145738.667500", "145739.455000", "145740.245000", "145741.032500", "145741.820000", "145742.610000", "145743.397500", "145744.185000", "145744.972500", "145745.762500", "145746.550000", "145747.337500", "145748.125000", "145748.915000", "145749.702500", "145750.490000", "145751.277500", "145752.067500", "145752.855000", "145753.642500", "145754.430000", "145755.220000", "145756.007500", "145756.795000", "145757.582500", "145758.372500", "145759.160000", "145759.947500", "145800.737500", "145801.525000", "145802.312500", "145803.100000", "145803.890000", "145804.677500", "145805.465000", "145806.252500", "145807.042500", "145807.830000", "145808.617500", "145809.405000", "145810.195000", "145810.982500", "145811.770000", "145812.557500", "145813.347500", "145814.135000", "145814.922500", "145815.710000", "145816.500000", "145817.287500", "145818.075000", "145818.865000", "145819.652500", "145820.440000", "145821.227500", "145822.017500", "145822.805000", "145823.592500", "145824.380000", "145825.170000", "145825.957500", "145826.745000", "145827.532500", "145828.322500", "145829.110000", "145829.897500", "145830.685000", "145831.475000", "145832.262500", "145833.050000", "145833.837500", "145834.627500", "145835.415000", "145836.202500", "145836.992500", "145837.780000", "145838.567500", "145839.355000", "145840.145000", "145840.932500", "145841.720000", "145842.507500", "145843.297500", "145844.085000", "145844.872500", "145845.660000", "145846.450000", "145847.237500", "145848.025000", "145848.812500", "145849.602500", "145850.390000", "145851.177500", "145851.967500", "145852.755000", "145853.542500", "145854.330000", "145855.120000", "145855.907500", "145856.695000", "145857.482500", "145858.272500", "145859.060000", "145859.847500", "145900.635000", "145901.425000", "145902.212500", "145903.000000", "145903.787500", "145904.577500", "145905.365000", "145906.152500", "145906.940000", "145907.730000", "145908.517500", "145909.305000", "145910.095000", "145910.882500", "145911.670000", "145912.457500", "145913.247500", "145914.035000", "145914.822500", "145915.610000", "145916.400000", "145917.187500", "145917.975000", "145918.762500", "145919.552500", "145920.340000", "145921.127500", "145921.915000", "145922.705000", "145923.492500", "145924.280000", "145925.067500", "145925.857500", "145926.645000", "145927.432500", "145928.222500", "145929.010000", "145929.797500", "145930.585000", "145931.375000", "145932.162500", "145932.950000", "145933.737500", "145934.527500", "145935.315000", "145936.102500", "145936.890000", "145937.680000", "145938.467500", "145939.255000", "145940.042500", "145940.832500", "145941.620000", "145942.407500", "145943.195000", "145943.985000", "145944.772500", "145945.560000", "145946.350000", "145947.137500", "145947.925000", "145948.712500", "145949.502500", "145950.290000", "145951.077500", "145951.865000", "145952.655000", "145953.442500", "145954.230000", "145955.017500", "145955.807500", "145956.595000", "145957.382500", "145958.170000", "145958.960000", "145959.747500", "150000.535000", "150001.322500", "150002.112500", "150002.900000", "150003.687500", "150004.477500", "150005.265000", "150006.052500", "150006.840000", "150007.630000", "150008.417500", "150009.205000", "150009.992500", "150010.782500", "150011.570000", "150012.357500", "150013.145000", "150013.935000", "150014.722500", "150015.510000", "150016.297500", "150017.087500", "150017.875000", "150018.662500", "150019.450000", "150020.240000", "150021.027500", "150021.815000", "150022.605000", "150023.392500", "150024.180000", "150024.967500", "150025.757500", "150026.545000", "150027.332500", "150028.120000", "150028.910000", "150029.697500", "150030.485000", "150031.272500", "150032.062500", "150032.850000", "150033.637500", "150034.425000", "150035.215000", "150036.002500", "150036.790000", "150037.577500", "150038.367500", "150039.155000", "150039.942500", "150040.732500", "150041.520000", "150042.307500", "150043.095000", "150043.885000", "150044.672500", "150045.460000", "150046.247500", "150047.037500", "150047.825000", "150048.612500", "150049.400000", "150050.190000", "150050.977500", "150051.765000", "150052.552500", "150053.342500", "150054.130000", "150054.917500", "150055.705000", "150056.495000", "150057.282500", "150058.070000", "150058.860000", "150059.647500", "150100.435000", "150101.222500", "150102.012500", "150102.800000", "150103.587500", "150104.375000", "150105.165000", "150105.952500", "150106.740000", "150107.527500", "150108.317500", "150109.105000", "150109.892500", "150110.680000", "150111.470000", "150112.257500", "150113.045000", "150113.832500", "150114.622500", "150115.410000", "150116.197500", "150116.987500", "150117.775000", "150118.562500", "150119.350000", "150120.140000", "150120.927500", "150121.715000", "150122.502500", "150123.292500", "150124.080000", "150124.867500", "150125.655000", "150126.445000", "150127.232500", "150128.020000", "150128.807500", "150129.597500", "150130.385000", "150131.172500", "150131.960000", "150132.750000", "150133.537500", "150134.325000", "150135.115000", "150135.902500", "150136.690000", "150137.477500", "150138.267500", "150139.055000", "150139.842500", "150140.630000", "150141.420000", "150142.207500", "150142.995000", "150143.782500", "150144.572500", "150145.360000", "150146.147500", "150146.935000", "150147.725000", "150148.512500", "150149.300000", "150150.087500", "150150.877500", "150151.665000", "150152.452500", "150153.242500", "150154.030000", "150154.817500", "150155.605000", "150156.395000", "150157.182500", "150157.970000", "150158.757500", "150159.547500", "150200.335000", "150201.122500", "150201.910000", "150202.700000", "150203.487500", "150204.275000", "150205.062500", "150205.852500"],
      "ContentTime": ["145450.921000", "145450.921000", "145450.921000", "145450.921000", "145450.937000", "145450.937000", "145450.937000", "145450.937000", "145450.937000", "145450.937000", "145450.953000", "145450.953000", "145450.953000", "145450.953000", "145450.953000", "145450.953000", "145450.953000", "145450.968000", "145450.968000", "145450.968000", "145450.968000", "145450.968000", "145450.968000", "145450.984000", "145450.984000", "145510.906000", "145510.906000", "145510.906000", "145510.906000", "145510.906000", "145510.906000", "145510.921000", "145510.921000", "145510.921000", "145510.921000", "145510.921000", "145510.921000", "145510.921000", "145510.937000", "145510.937000", "145510.937000", "145510.937000", "145510.937000", "145510.937000", "145510.937000", "145510.953000", "145510.953000", "145510.953000", "145510.953000", "145510.953000", "145510.953000", "145530.906000", "145530.906000", "145530.906000", "145530.906000", "145530.906000", "145530.906000", "145530.921000", "145530.921000", "145530.921000", "145530.921000", "145530.921000", "145530.921000", "145530.937000", "145530.937000", "145530.937000", "145530.937000", "145530.937000", "145530.937000", "145530.937000", "145530.953000", "145530.953000", "145530.953000", "145530.953000", "145530.953000", "145530.953000", "145550.906000", "145550.906000", "145550.906000", "145550.906000", "145550.906000", "145550.906000", "145550.921000", "145550.921000", "145550.921000", "145550.921000", "145550.921000", "145550.921000", "145550.921000", "145550.937000", "145550.937000", "145550.937000", "145550.937000", "145550.937000", "145550.937000", "145550.953000", "145550.953000", "145550.953000", "145550.953000", "145550.953000", "145550.953000", "145550.953000", "145610.906000", "145610.906000", "145610.906000", "145610.906000", "145610.906000", "145610.906000", "145610.921000", "145610.921000", "145610.921000", "145610.921000", "145610.921000", "145610.921000", "145610.921000", "145610.937000", "145610.937000", "145610.937000", "145610.937000", "145610.937000", "145610.937000", "145610.953000", "145610.953000", "145610.953000", "145610.953000", "145610.953000", "145610.953000", "145630.906000", "145630.906000", "145630.906000", "145630.906000", "145630.906000", "145630.906000", "145630.921000", "145630.921000", "145630.921000", "145630.921000", "145630.921000", "145630.921000", "145630.921000", "145630.937000", "145630.937000", "145630.937000", "145630.937000", "145630.937000", "145630.937000", "145630.953000", "145630.953000", "145630.953000", "145630.953000", "145630.953000", "145630.953000", "145630.953000", "145650.906000", "145650.906000", "145650.906000", "145650.906000", "145650.906000", "145650.906000", "145650.921000", "145650.921000", "145650.921000", "145650.921000", "145650.921000", "145650.921000", "145650.921000", "145650.937000", "145650.937000", "145650.937000", "145650.937000", "145650.937000", "145650.937000", "145650.937000", "145650.953000", "145650.953000", "145650.953000", "145650.953000", "145650.953000", "145710.906000", "145710.906000", "145710.906000", "145710.906000", "145710.921000", "145710.921000", "145710.921000", "145710.921000", "145710.921000", "145710.921000", "145710.937000", "145710.937000", "145710.937000", "145710.937000", "145710.937000", "145710.937000", "145710.953000", "145710.953000", "145710.953000", "145710.953000", "145710.953000", "145710.953000", "145710.953000", "145710.968000", "145710.968000", "145730.906000", "145730.906000", "145730.906000", "145730.906000", "145730.906000", "145730.906000", "145730.921000", "145730.921000", "145730.921000", "145730.921000", "145730.921000", "145730.921000", "145730.921000", "145730.937000", "145730.937000", "145730.937000", "145730.937000", "145730.937000", "145730.937000", "145730.937000", "145730.953000", "145730.953000", "145730.953000", "145730.953000", "145730.953000", "145730.953000", "145750.906000", "145750.906000", "145750.906000", "145750.906000", "145750.906000", "145750.921000", "145750.921000", "145750.921000", "145750.921000", "145750.921000", "145750.937000", "145750.937000", "145750.937000", "145750.937000", "145750.937000", "145750.937000", "145750.953000", "145750.953000", "145750.953000", "145750.953000", "145750.953000", "145750.953000", "145750.953000", "145750.968000", "145750.968000", "145810.906000", "145810.906000", "145810.906000", "145810.906000", "145810.906000", "145810.906000", "145810.921000", "145810.921000", "145810.921000", "145810.921000", "145810.921000", "145810.921000", "145810.921000", "145810.937000", "145810.937000", "145810.937000", "145810.937000", "145810.937000", "145810.937000", "145810.937000", "145810.953000", "145810.953000", "145810.953000", "145810.953000", "145810.968000", "145810.968000", "145830.906000", "145830.906000", "145830.906000", "145830.906000", "145830.906000", "145830.921000", "145830.921000", "145830.921000", "145830.921000", "145830.921000", "145830.921000", "145830.937000", "145830.937000", "145830.937000", "145830.937000", "145830.953000", "145830.953000", "145830.953000", "145830.953000", "145830.953000", "145830.953000", "145830.968000", "145830.968000", "145830.968000", "145830.968000", "145850.906000", "145850.906000", "145850.906000", "145850.906000", "145850.906000", "145850.906000", "145850.921000", "145850.921000", "145850.921000", "145850.921000", "145850.921000", "145850.921000", "145850.921000", "145850.937000", "145850.937000", "145850.937000", "145850.937000", "145850.937000", "145850.937000", "145850.953000", "145850.953000", "145850.953000", "145850.953000", "145850.953000", "145850.953000", "145850.968000", "145910.906000", "145910.906000", "145910.906000", "145910.906000", "145910.906000", "145910.906000", "145910.921000", "145910.921000", "145910.921000", "145910.921000", "145910.921000", "145910.921000", "145910.921000", "145910.937000", "145910.937000", "145910.937000", "145910.937000", "145910.937000", "145910.953000", "145910.953000", "145910.953000", "145910.953000", "145910.968000", "145910.968000", "145910.968000", "145930.906000", "145930.906000", "145930.906000", "145930.906000", "145930.921000", "145930.921000", "145930.921000", "145930.921000", "145930.921000", "145930.921000", "145930.921000", "145930.937000", "145930.937000", "145930.937000", "145930.937000", "145930.937000", "145930.953000", "145930.953000", "145930.953000", "145930.953000", "145930.953000", "145930.953000", "145930.953000", "145930.968000", "145930.968000", "145930.968000", "145950.906000", "145950.906000", "145950.906000", "145950.906000", "145950.906000", "145950.906000", "145950.921000", "145950.921000", "145950.921000", "145950.921000", "145950.921000", "145950.921000", "145950.921000", "145950.937000", "145950.937000", "145950.937000", "145950.937000", "145950.937000", "145950.937000", "145950.953000", "145950.953000", "145950.953000", "145950.953000", "145950.953000", "145950.953000", "150010.906000", "150010.906000", "150010.906000", "150010.906000", "150010.906000", "150010.906000", "150010.921000", "150010.921000", "150010.921000", "150010.921000", "150010.921000", "150010.921000", "150010.921000", "150010.937000", "150010.937000", "150010.937000", "150010.937000", "150010.937000", "150010.937000", "150010.937000", "150010.953000", "150010.953000", "150010.953000", "150010.953000", "150010.953000", "150010.953000", "150030.906000", "150030.906000", "150030.906000", "150030.906000", "150030.906000", "150030.906000", "150030.921000", "150030.921000", "150030.921000", "150030.921000", "150030.921000", "150030.921000", "150030.921000", "150030.937000", "150030.937000", "150030.937000", "150030.937000", "150030.953000", "150030.953000", "150030.953000", "150030.953000", "150030.968000", "150030.968000", "150030.968000", "150030.968000", "150050.906000", "150050.906000", "150050.906000", "150050.906000", "150050.906000", "150050.921000", "150050.921000", "150050.921000", "150050.921000", "150050.937000", "150050.937000", "150050.937000", "150050.937000", "150050.937000", "150050.937000", "150050.937000", "150050.953000", "150050.953000", "150050.953000", "150050.953000", "150050.953000", "150050.953000", "150050.953000", "150050.968000", "150050.968000", "150050.968000", "150110.906000", "150110.906000", "150110.906000", "150110.906000", "150110.906000", "150110.906000", "150110.921000", "150110.921000", "150110.921000", "150110.921000", "150110.921000", "150110.921000", "150110.921000", "150110.937000", "150110.937000", "150110.937000", "150110.937000", "150110.937000", "150110.953000", "150110.953000", "150110.953000", "150110.953000", "150110.953000", "150110.953000", "150110.968000", "150130.906000", "150130.906000", "150130.906000", "150130.906000", "150130.906000", "150130.906000", "150130.921000", "150130.921000", "150130.921000", "150130.921000", "150130.921000", "150130.921000", "150130.921000", "150130.937000", "150130.937000", "150130.937000", "150130.937000", "150130.937000", "150130.937000", "150130.953000", "150130.953000", "150130.953000", "150130.953000", "150130.953000", "150130.968000", "150130.968000", "150150.906000", "150150.906000", "150150.906000", "150150.906000", "150150.906000", "150150.906000", "150150.921000", "150150.921000", "150150.921000", "150150.921000", "150150.921000", "150150.921000", "150150.921000", "150150.937000", "150150.937000", "150150.937000", "150150.937000", "150150.937000", "150150.937000", "150150.953000", "150150.953000", "150150.953000", "150150.953000", "150150.953000", "150150.953000", "150206.937000", "150206.937000", "150206.937000", "150206.937000", "150206.953000", "150206.953000", "150206.953000", "150206.953000", "150206.953000", "150206.953000", "150206.953000", "150206.968000", "150206.968000", "150206.968000", "150206.968000", "150206.968000", "150206.968000", "150206.968000", "150206.984000", "150206.984000", "150206.984000"],
      "DataSetTrailingPadding": [
        "\u0000\u0000\u0000\u0000\u0000\u0000\u0000\u0000\u0000\u0000\u0000\u0000\u0000\u0000\u0000\u0000\u0000\u0000\u0000\u0000\u0000\u0000\u0000\u0000\u0000\u0000\u0000\u0000\u0000\u0000\u0000\u0000\u0000\u0000\u0000\u0000\u0000\u0000\u0000\u0000\u0000\u0000\u0000\u0000\u0000\u0000\u0000\u0000\u0000\u0000\u0000\u0000\u0000\u0000\u0000\u0000\u0000\u0000\u0000\u0000\u0000\u0000\u0000\u0000\u0000\u0000\u0000\u0000\u0000\u0000\u0000\u0000\u0000\u0000\u0000\u0000\u0000\u0000\u0000\u0000\u0000\u0000\u0000\u0000\u0000\u0000\u0000\u0000\u0000\u0000\u0000\u0000\u0000\u0000\u0000\u0000\u0000\u0000\u0000\u0000\u0000\u0000\u0000\u0000\u0000\u0000\u0000\u0000\u0000\u0000\u0000\u0000\u0000\u0000\u0000\u0000\u0000\u0000\u0000\u0000\u0000\u0000\u0000\u0000\u0000\u0000",
        "\u0000\u0000\u0000\u0000\u0000\u0000\u0000\u0000\u0000\u0000\u0000\u0000\u0000\u0000\u0000\u0000\u0000\u0000\u0000\u0000\u0000\u0000\u0000\u0000\u0000\u0000\u0000\u0000\u0000\u0000\u0000\u0000\u0000\u0000\u0000\u0000\u0000\u0000\u0000\u0000\u0000\u0000\u0000\u0000\u0000\u0000\u0000\u0000\u0000\u0000\u0000\u0000\u0000\u0000\u0000\u0000\u0000\u0000\u0000\u0000\u0000\u0000\u0000\u0000\u0000\u0000\u0000\u0000\u0000\u0000\u0000\u0000\u0000\u0000\u0000\u0000\u0000\u0000\u0000\u0000\u0000\u0000\u0000\u0000\u0000\u0000\u0000\u0000\u0000\u0000\u0000\u0000\u0000\u0000\u0000\u0000\u0000\u0000\u0000\u0000\u0000\u0000\u0000\u0000\u0000\u0000\u0000\u0000\u0000\u0000\u0000\u0000\u0000\u0000\u0000\u0000\u0000\u0000\u0000\u0000\u0000\u0000\u0000\u0000\u0000\u0000",
