{
  "AcquisitionMatrixPE": 104,
  "AcquisitionNumber": 1,
  "AcquisitionTime": "15:27:49.740000",
  "BandwidthPerPixelPhaseEncode": 13.935,
  "BaseResolution": 104,
  "CoilString": "C:HEA;HEP",
  "ConversionSoftware": "dcm2niix",
  "ConversionSoftwareVersion": "v1.0.20210317",
  "DerivedVendorReportedEchoSpacing": 0.000690017,
  "DeviceSerialNumber": "35450",
  "DwellTime": 2.5e-06,
  "EchoTime": 0.0348,
  "EffectiveEchoSpacing": 0.000690017,
  "FlipAngle": 55,
  "ImageComments": "Unaliased MB8/PE3 (remote)",
  "ImageOrientationPatientDICOM": [0.999854, -0.00308923, -0.0168291, 5.91495e-08, 0.983567, -0.180545],
  "ImageType": [
    "ORIGINAL",
    "PRIMARY",
    "M",
    "MB",
    "ND",
    "MOSAIC"
],
  "ImagingFrequency": 123.234,
  "InPlanePhaseEncodingDirectionDICOM": "COL",
  "InstitutionAddress": "Univeristy Ave. 197,Newark,North East,US,07102-1814",
  "InstitutionName": "RUBIC",
  "InstitutionalDepartmentName": "Department",
  "MRAcquisitionType": "2D",
  "MagneticFieldStrength": 3,
  "Manufacturer": "Siemens",
  "ManufacturersModelName": "TrioTim",
  "Modality": "MR",
  "MultibandAccelerationFactor": 8,
  "PartialFourier": 0.875,
  "PatientPosition": "HFS",
  "PercentPhaseFOV": 100,
  "PercentSampling": 100,
  "PhaseEncodingDirection": "j-",
  "PhaseEncodingSteps": 91,
  "PhaseResolution": 1,
  "PixelBandwidth": 1923,
  "ProcedureStepDescription": "Cole^Michael",
  "ProtocolName": "cmrr_mbep2d_bold_2mm_MB8_Task_8x",
  "PulseSequenceDetails": "%CustomerSeq%\\cmrr_mbep2d_bold",
  "ReceiveCoilName": "32Ch_Head",
  "ReconMatrixPE": 104,
  "RepetitionTime": 0.785,
  "SAR": 0.116451,
  "ScanOptions": "PFP\\FS",
  "ScanningSequence": "EP",
  "SequenceName": "epfid2d1_104",
  "SequenceVariant": "SK\\SS",
  "SeriesDescription": "cmrr_mbep2d_bold_2mm_MB8_Task_8x",
  "SeriesNumber": 27,
  "ShimSetting": [2109, -351, -7327, 443, -111, -414, -39, 99],
  "SliceThickness": 2,
  "SliceTiming": [0, 0.44, 0.0875, 0.5275, 0.1775, 0.615, 0.265, 0.7025, 0.3525, 0, 0.44, 0.0875, 0.5275, 0.1775, 0.615, 0.265, 0.7025, 0.3525, 0, 0.44, 0.0875, 0.5275, 0.1775, 0.615, 0.265, 0.7025, 0.3525, 0, 0.44, 0.0875, 0.5275, 0.1775, 0.615, 0.265, 0.7025, 0.3525, 0, 0.44, 0.0875, 0.5275, 0.1775, 0.615, 0.265, 0.7025, 0.3525, 0, 0.44, 0.0875, 0.5275, 0.1775, 0.615, 0.265, 0.7025, 0.3525, 0, 0.44, 0.0875, 0.5275, 0.1775, 0.615, 0.265, 0.7025, 0.3525, 0, 0.44, 0.0875, 0.5275, 0.1775, 0.615, 0.265, 0.7025, 0.3525],
  "SoftwareVersions": "syngo MR B19",
  "SpacingBetweenSlices": 2,
  "StationName": "MRC35450",
  "TaskName": "cpro",
  "TotalReadoutTime": 0.0710717,
  "TxRefAmp": 322.319,
  "dcmmeta_affine": [
    [-1.9997072219848633, 1.1829893509229805e-07, -0.03422063589096069, 106.5240707397461],
    [0.006178467068821192, 1.967133641242981, -0.3610363006591797, -72.4842300415039],
    [-0.033658262342214584, 0.36108916997909546, 1.9668456315994263, -108.79446411132812],
    [0.0, 0.0, 0.0, 1.0]
],
  "dcmmeta_reorient_transform": [
    [0.0, -1.0, 0.0, 103.0],
    [1.0, 0.0, 0.0, 0.0],
    [0.0, 0.0, 1.0, 0.0],
    [0.0, 0.0, 0.0, 1.0]
],
  "dcmmeta_shape": [104, 104, 72, 581],
  "dcmmeta_slice_dim": 2,
  "dcmmeta_version": 0.6,
  "global": {
    "const": {
      "AcquisitionMatrix": [104, 0, 0, 104],
      "AngioFlag": "N",
      "BitsAllocated": 16,
      "BitsStored": 12,
      "Columns": 936,
      "EchoNumbers": 1,
      "EchoTime": 34.8,
      "EchoTrainLength": 1,
      "FlipAngle": 55.0,
      "HighBit": 11,
      "ImageOrientationPatient": [0.9998536077852, -0.0030892334261, -0.0168291305708, 5.9149467e-08, 0.98356680241819, -0.1805445794835],
      "ImagePositionPatient": [-938.40233722254, -945.88787226768, 92.612642220196],
      "ImageType": [
        "ORIGINAL",
        "PRIMARY",
        "M",
        "MB",
        "ND",
        "MOSAIC"
],
      "ImagedNucleus": "1H",
      "ImagingFrequency": 123.234424,
      "InPlanePhaseEncodingDirection": "COL",
      "MRAcquisitionType": "2D",
      "MagneticFieldStrength": 3.0,
      "Manufacturer": "SIEMENS",
      "ManufacturerModelName": "TrioTim",
      "Modality": "MR",
      "NumberOfAverages": 1.0,
      "NumberOfPhaseEncodingSteps": 91,
      "PercentPhaseFieldOfView": 100.0,
      "PercentSampling": 100.0,
      "PerformedProcedureStepStartTime": "132052.500000",
      "PhotometricInterpretation": "MONOCHROME2",
      "PixelBandwidth": 1923.0,
      "PixelRepresentation": 0,
      "PixelSpacing": [2.0, 2.0],
      "ProtocolName": "cmrr_mbep2d_bold_2mm_MB8_Task_8x",
      "RepetitionTime": 785.0,
      "Rows": 936,
      "SAR": 0.11645063800734,
      "SamplesPerPixel": 1,
      "ScanOptions": [
        "PFP",
        "FS"
],
      "ScanningSequence": "EP",
      "SequenceName": "epfid2d1_104",
      "SequenceVariant": [
        "SK",
        "SS"
],
      "SeriesDescription": "cmrr_mbep2d_bold_2mm_MB8_Task_8x",
      "SeriesNumber": 27,
      "SeriesTime": "152820.843000",
      "SliceLocation": -95.728904523233,
      "SliceThickness": 2.0,
      "SmallestImagePixelValue": 0,
      "SoftwareVersions": "syngo MR B19",
      "SpacingBetweenSlices": 2.0000000291049,
      "SpecificCharacterSet": "ISO_IR 100",
      "StudyID": "1",
      "StudyTime": "132052.484000",
      "TransmitCoilName": "Body",
      "VariableFlipAngleFlag": "N",
      "WindowCenterWidthExplanation": "Algo1",
      "dBdt": 0.0},
    "slices": {}
  },
  "time": {
    "samples": {
      "AcquisitionNumber": [1, 2, 3, 4, 5, 6, 7, 8, 9, 10, 11, 12, 13, 14, 15, 16, 17, 18, 19, 20, 21, 22, 23, 24, 25, 26, 27, 28, 29, 30, 31, 32, 33, 34, 35, 36, 37, 38, 39, 40, 41, 42, 43, 44, 45, 46, 47, 48, 49, 50, 51, 52, 53, 54, 55, 56, 57, 58, 59, 60, 61, 62, 63, 64, 65, 66, 67, 68, 69, 70, 71, 72, 73, 74, 75, 76, 77, 78, 79, 80, 81, 82, 83, 84, 85, 86, 87, 88, 89, 90, 91, 92, 93, 94, 95, 96, 97, 98, 99, 100, 101, 102, 103, 104, 105, 106, 107, 108, 109, 110, 111, 112, 113, 114, 115, 116, 117, 118, 119, 120, 121, 122, 123, 124, 125, 126, 127, 128, 129, 130, 131, 132, 133, 134, 135, 136, 137, 138, 139, 140, 141, 142, 143, 144, 145, 146, 147, 148, 149, 150, 151, 152, 153, 154, 155, 156, 157, 158, 159, 160, 161, 162, 163, 164, 165, 166, 167, 168, 169, 170, 171, 172, 173, 174, 175, 176, 177, 178, 179, 180, 181, 182, 183, 184, 185, 186, 187, 188, 189, 190, 191, 192, 193, 194, 195, 196, 197, 198, 199, 200, 201, 202, 203, 204, 205, 206, 207, 208, 209, 210, 211, 212, 213, 214, 215, 216, 217, 218, 219, 220, 221, 222, 223, 224, 225, 226, 227, 228, 229, 230, 231, 232, 233, 234, 235, 236, 237, 238, 239, 240, 241, 242, 243, 244, 245, 246, 247, 248, 249, 250, 251, 252, 253, 254, 255, 256, 257, 258, 259, 260, 261, 262, 263, 264, 265, 266, 267, 268, 269, 270, 271, 272, 273, 274, 275, 276, 277, 278, 279, 280, 281, 282, 283, 284, 285, 286, 287, 288, 289, 290, 291, 292, 293, 294, 295, 296, 297, 298, 299, 300, 301, 302, 303, 304, 305, 306, 307, 308, 309, 310, 311, 312, 313, 314, 315, 316, 317, 318, 319, 320, 321, 322, 323, 324, 325, 326, 327, 328, 329, 330, 331, 332, 333, 334, 335, 336, 337, 338, 339, 340, 341, 342, 343, 344, 345, 346, 347, 348, 349, 350, 351, 352, 353, 354, 355, 356, 357, 358, 359, 360, 361, 362, 363, 364, 365, 366, 367, 368, 369, 370, 371, 372, 373, 374, 375, 376, 377, 378, 379, 380, 381, 382, 383, 384, 385, 386, 387, 388, 389, 390, 391, 392, 393, 394, 395, 396, 397, 398, 399, 400, 401, 402, 403, 404, 405, 406, 407, 408, 409, 410, 411, 412, 413, 414, 415, 416, 417, 418, 419, 420, 421, 422, 423, 424, 425, 426, 427, 428, 429, 430, 431, 432, 433, 434, 435, 436, 437, 438, 439, 440, 441, 442, 443, 444, 445, 446, 447, 448, 449, 450, 451, 452, 453, 454, 455, 456, 457, 458, 459, 460, 461, 462, 463, 464, 465, 466, 467, 468, 469, 470, 471, 472, 473, 474, 475, 476, 477, 478, 479, 480, 481, 482, 483, 484, 485, 486, 487, 488, 489, 490, 491, 492, 493, 494, 495, 496, 497, 498, 499, 500, 501, 502, 503, 504, 505, 506, 507, 508, 509, 510, 511, 512, 513, 514, 515, 516, 517, 518, 519, 520, 521, 522, 523, 524, 525, 526, 527, 528, 529, 530, 531, 532, 533, 534, 535, 536, 537, 538, 539, 540, 541, 542, 543, 544, 545, 546, 547, 548, 549, 550, 551, 552, 553, 554, 555, 556, 557, 558, 559, 560, 561, 562, 563, 564, 565, 566, 567, 568, 569, 570, 571, 572, 573, 574, 575, 576, 577, 578, 579, 580, 581],
      "AcquisitionTime": ["152749.740000", "152750.530000", "152751.317500", "152752.105000", "152752.895000", "152753.682500", "152754.470000", "152755.257500", "152756.047500", "152756.835000", "152757.622500", "152758.410000", "152759.200000", "152759.987500", "152800.775000", "152801.562500", "152802.352500", "152803.140000", "152803.927500", "152804.715000", "152805.505000", "152806.292500", "152807.080000", "152807.867500", "152808.657500", "152809.445000", "152810.232500", "152811.022500", "152811.810000", "152812.597500", "152813.385000", "152814.175000", "152814.962500", "152815.750000", "152816.537500", "152817.327500", "152818.115000", "152818.902500", "152819.690000", "152820.480000", "152821.267500", "152822.055000", "152822.842500", "152823.632500", "152824.420000", "152825.207500", "152825.995000", "152826.785000", "152827.572500", "152828.360000", "152829.150000", "152829.937500", "152830.725000", "152831.512500", "152832.302500", "152833.090000", "152833.877500", "152834.665000", "152835.455000", "152836.242500", "152837.030000", "152837.817500", "152838.607500", "152839.395000", "152840.182500", "152840.970000", "152841.760000", "152842.547500", "152843.335000", "152844.122500", "152844.912500", "152845.700000", "152846.487500", "152847.277500", "152848.065000", "152848.852500", "152849.640000", "152850.430000", "152851.217500", "152852.005000", "152852.792500", "152853.582500", "152854.370000", "152855.157500", "152855.945000", "152856.735000", "152857.522500", "152858.310000", "152859.097500", "152859.887500", "152900.675000", "152901.462500", "152902.250000", "152903.040000", "152903.827500", "152904.615000", "152905.405000", "152906.192500", "152906.980000", "152907.767500", "152908.557500", "152909.345000", "152910.132500", "152910.920000", "152911.710000", "152912.497500", "152913.285000", "152914.072500", "152914.862500", "152915.650000", "152916.437500", "152917.225000", "152918.015000", "152918.802500", "152919.590000", "152920.380000", "152921.167500", "152921.955000", "152922.742500", "152923.532500", "152924.320000", "152925.107500", "152925.895000", "152926.685000", "152927.472500", "152928.260000", "152929.047500", "152929.837500", "152930.625000", "152931.412500", "152932.200000", "152932.990000", "152933.777500", "152934.565000", "152935.352500", "152936.142500", "152936.930000", "152937.717500", "152938.507500", "152939.295000", "152940.082500", "152940.870000", "152941.660000", "152942.447500", "152943.235000", "152944.022500", "152944.812500", "152945.600000", "152946.387500", "152947.175000", "152947.965000", "152948.752500", "152949.540000", "152950.327500", "152951.117500", "152951.905000", "152952.692500", "152953.480000", "152954.270000", "152955.057500", "152955.845000", "152956.635000", "152957.422500", "152958.210000", "152958.997500", "152959.787500", "153000.575000", "153001.362500", "153002.150000", "153002.940000", "153003.727500", "153004.515000", "153005.302500", "153006.092500", "153006.880000", "153007.667500", "153008.455000", "153009.245000", "153010.032500", "153010.820000", "153011.607500", "153012.397500", "153013.185000", "153013.972500", "153014.762500", "153015.550000", "153016.337500", "153017.125000", "153017.915000", "153018.702500", "153019.490000", "153020.277500", "153021.067500", "153021.855000", "153022.642500", "153023.430000", "153024.220000", "153025.007500", "153025.795000", "153026.582500", "153027.372500", "153028.160000", "153028.947500", "153029.735000", "153030.525000", "153031.312500", "153032.100000", "153032.890000", "153033.677500", "153034.465000", "153035.252500", "153036.042500", "153036.830000", "153037.617500", "153038.405000", "153039.195000", "153039.982500", "153040.770000", "153041.557500", "153042.347500", "153043.135000", "153043.922500", "153044.710000", "153045.500000", "153046.287500", "153047.075000", "153047.862500", "153048.652500", "153049.440000", "153050.227500", "153051.017500", "153051.805000", "153052.592500", "153053.380000", "153054.170000", "153054.957500", "153055.745000", "153056.532500", "153057.322500", "153058.110000", "153058.897500", "153059.685000", "153100.475000", "153101.262500", "153102.050000", "153102.837500", "153103.627500", "153104.415000", "153105.202500", "153105.990000", "153106.780000", "153107.567500", "153108.355000", "153109.145000", "153109.932500", "153110.720000", "153111.507500", "153112.297500", "153113.085000", "153113.872500", "153114.660000", "153115.450000", "153116.237500", "153117.025000", "153117.812500", "153118.602500", "153119.390000", "153120.177500", "153120.965000", "153121.755000", "153122.542500", "153123.330000", "153124.117500", "153124.907500", "153125.695000", "153126.482500", "153127.272500", "153128.060000", "153128.847500", "153129.635000", "153130.425000", "153131.212500", "153132.000000", "153132.787500", "153133.577500", "153134.365000", "153135.152500", "153135.940000", "153136.730000", "153137.517500", "153138.305000", "153139.092500", "153139.882500", "153140.670000", "153141.457500", "153142.245000", "153143.035000", "153143.822500", "153144.610000", "153145.400000", "153146.187500", "153146.975000", "153147.762500", "153148.552500", "153149.340000", "153150.127500", "153150.915000", "153151.705000", "153152.492500", "153153.280000", "153154.067500", "153154.857500", "153155.645000", "153156.432500", "153157.220000", "153158.010000", "153158.797500", "153159.585000", "153200.372500", "153201.162500", "153201.950000", "153202.737500", "153203.527500", "153204.315000", "153205.102500", "153205.890000", "153206.680000", "153207.467500", "153208.255000", "153209.042500", "153209.832500", "153210.620000", "153211.407500", "153212.195000", "153212.985000", "153213.772500", "153214.560000", "153215.347500", "153216.137500", "153216.925000", "153217.712500", "153218.500000", "153219.290000", "153220.077500", "153220.865000", "153221.655000", "153222.442500", "153223.230000", "153224.017500", "153224.807500", "153225.595000", "153226.382500", "153227.170000", "153227.960000", "153228.747500", "153229.535000", "153230.322500", "153231.112500", "153231.900000", "153232.687500", "153233.475000", "153234.265000", "153235.052500", "153235.840000", "153236.630000", "153237.417500", "153238.205000", "153238.992500", "153239.782500", "153240.570000", "153241.357500", "153242.145000", "153242.935000", "153243.722500", "153244.510000", "153245.297500", "153246.087500", "153246.875000", "153247.662500", "153248.450000", "153249.240000", "153250.027500", "153250.815000", "153251.602500", "153252.392500", "153253.180000", "153253.967500", "153254.757500", "153255.545000", "153256.332500", "153257.120000", "153257.910000", "153258.697500", "153259.485000", "153300.272500", "153301.062500", "153301.850000", "153302.637500", "153303.425000", "153304.215000", "153305.002500", "153305.790000", "153306.577500", "153307.367500", "153308.155000", "153308.942500", "153309.730000", "153310.520000", "153311.307500", "153312.095000", "153312.885000", "153313.672500", "153314.460000", "153315.247500", "153316.037500", "153316.825000", "153317.612500", "153318.400000", "153319.190000", "153319.977500", "153320.765000", "153321.552500", "153322.342500", "153323.130000", "153323.917500", "153324.705000", "153325.495000", "153326.282500", "153327.070000", "153327.857500", "153328.647500", "153329.435000", "153330.222500", "153331.012500", "153331.800000", "153332.587500", "153333.375000", "153334.165000", "153334.952500", "153335.740000", "153336.527500", "153337.317500", "153338.105000", "153338.892500", "153339.680000", "153340.470000", "153341.257500", "153342.045000", "153342.832500", "153343.622500", "153344.410000", "153345.197500", "153345.985000", "153346.775000", "153347.562500", "153348.350000", "153349.140000", "153349.927500", "153350.715000", "153351.502500", "153352.292500", "153353.080000", "153353.867500", "153354.655000", "153355.445000", "153356.232500", "153357.020000", "153357.807500", "153358.597500", "153359.385000", "153400.172500", "153400.960000", "153401.750000", "153402.537500", "153403.325000", "153404.112500", "153404.902500", "153405.690000", "153406.477500", "153407.267500", "153408.055000", "153408.842500", "153409.630000", "153410.420000", "153411.207500", "153411.995000", "153412.782500", "153413.572500", "153414.360000", "153415.147500", "153415.935000", "153416.725000", "153417.512500", "153418.300000", "153419.087500", "153419.877500", "153420.665000", "153421.452500", "153422.240000", "153423.030000", "153423.817500", "153424.605000", "153425.395000", "153426.182500", "153426.970000", "153427.757500", "153428.547500", "153429.335000", "153430.122500", "153430.910000", "153431.700000", "153432.487500", "153433.275000", "153434.062500", "153434.852500", "153435.640000", "153436.427500", "153437.215000", "153438.005000", "153438.792500", "153439.580000", "153440.367500", "153441.157500", "153441.945000", "153442.732500", "153443.522500", "153444.310000", "153445.097500", "153445.885000", "153446.675000", "153447.462500", "153448.250000", "153449.037500", "153449.827500", "153450.615000", "153451.402500", "153452.190000", "153452.980000", "153453.767500", "153454.555000", "153455.342500", "153456.132500", "153456.920000", "153457.707500", "153458.495000", "153459.285000", "153500.072500", "153500.860000", "153501.650000", "153502.437500", "153503.225000", "153504.012500", "153504.802500", "153505.590000", "153506.377500", "153507.165000", "153507.955000", "153508.742500", "153509.530000", "153510.317500", "153511.107500", "153511.895000", "153512.682500", "153513.470000", "153514.260000", "153515.047500", "153515.835000", "153516.622500", "153517.412500", "153518.200000", "153518.987500", "153519.777500", "153520.565000", "153521.352500", "153522.140000", "153522.930000", "153523.717500", "153524.505000", "153525.292500", "153526.082500", "153526.870000"],
      "ContentTime": ["152820.843000", "152820.859000", "152820.859000", "152820.859000", "152820.859000", "152820.859000", "152820.859000", "152820.859000", "152820.875000", "152820.875000", "152820.875000", "152820.875000", "152820.875000", "152820.875000", "152820.875000", "152820.890000", "152820.890000", "152820.890000", "152820.890000", "152820.890000", "152820.906000", "152820.906000", "152820.906000", "152820.906000", "152820.906000", "152820.906000", "152820.906000", "152820.921000", "152820.921000", "152820.921000", "152820.921000", "152820.921000", "152820.921000", "152820.921000", "152820.937000", "152820.937000", "152840.828000", "152840.828000", "152840.828000", "152840.828000", "152840.828000", "152840.828000", "152840.843000", "152840.843000", "152840.843000", "152840.843000", "152840.843000", "152840.843000", "152840.843000", "152840.859000", "152840.859000", "152840.859000", "152840.859000", "152840.859000", "152840.875000", "152840.875000", "152840.875000", "152840.875000", "152840.875000", "152840.875000", "152840.875000", "152900.828000", "152900.828000", "152900.828000", "152900.828000", "152900.828000", "152900.843000", "152900.843000", "152900.843000", "152900.843000", "152900.843000", "152900.843000", "152900.859000", "152900.859000", "152900.859000", "152900.859000", "152900.875000", "152900.875000", "152900.875000", "152900.875000", "152900.875000", "152900.875000", "152900.875000", "152900.890000", "152900.890000", "152900.890000", "152900.890000", "152920.828000", "152920.828000", "152920.828000", "152920.828000", "152920.828000", "152920.828000", "152920.843000", "152920.843000", "152920.843000", "152920.843000", "152920.843000", "152920.843000", "152920.843000", "152920.859000", "152920.859000", "152920.859000", "152920.859000", "152920.859000", "152920.859000", "152920.859000", "152920.875000", "152920.875000", "152920.875000", "152920.875000", "152920.875000", "152940.828000", "152940.828000", "152940.828000", "152940.828000", "152940.828000", "152940.828000", "152940.843000", "152940.843000", "152940.843000", "152940.843000", "152940.843000", "152940.843000", "152940.843000", "152940.859000", "152940.859000", "152940.859000", "152940.859000", "152940.859000", "152940.859000", "152940.859000", "152940.875000", "152940.875000", "152940.875000", "152940.875000", "152940.875000", "152940.890000", "153000.828000", "153000.828000", "153000.828000", "153000.828000", "153000.828000", "153000.828000", "153000.843000", "153000.843000", "153000.843000", "153000.843000", "153000.843000", "153000.843000", "153000.843000", "153000.859000", "153000.859000", "153000.859000", "153000.859000", "153000.859000", "153000.859000", "153000.859000", "153000.875000", "153000.875000", "153000.875000", "153000.875000", "153000.875000", "153020.828000", "153020.828000", "153020.828000", "153020.828000", "153020.828000", "153020.828000", "153020.843000", "153020.843000", "153020.843000", "153020.843000", "153020.843000", "153020.843000", "153020.843000", "153020.859000", "153020.859000", "153020.859000", "153020.859000", "153020.859000", "153020.859000", "153020.859000", "153020.875000", "153020.875000", "153020.875000", "153020.875000", "153020.875000", "153020.875000", "153040.828000", "153040.828000", "153040.828000", "153040.828000", "153040.828000", "153040.828000", "153040.843000", "153040.843000", "153040.843000", "153040.843000", "153040.843000", "153040.843000", "153040.843000", "153040.859000", "153040.859000", "153040.859000", "153040.859000", "153040.859000", "153040.859000", "153040.859000", "153040.875000", "153040.875000", "153040.875000", "153040.875000", "153040.875000", "153100.828000", "153100.828000", "153100.828000", "153100.828000", "153100.828000", "153100.828000", "153100.843000", "153100.843000", "153100.843000", "153100.843000", "153100.843000", "153100.843000", "153100.843000", "153100.859000", "153100.859000", "153100.859000", "153100.859000", "153100.859000", "153100.859000", "153100.859000", "153100.875000", "153100.875000", "153100.875000", "153100.875000", "153100.875000", "153100.875000", "153120.828000", "153120.828000", "153120.828000", "153120.828000", "153120.828000", "153120.828000", "153120.843000", "153120.843000", "153120.843000", "153120.843000", "153120.843000", "153120.843000", "153120.859000", "153120.859000", "153120.859000", "153120.859000", "153120.859000", "153120.875000", "153120.875000", "153120.875000", "153120.875000", "153120.875000", "153120.875000", "153120.875000", "153120.890000", "153140.828000", "153140.828000", "153140.828000", "153140.828000", "153140.828000", "153140.828000", "153140.843000", "153140.843000", "153140.843000", "153140.843000", "153140.843000", "153140.843000", "153140.843000", "153140.859000", "153140.859000", "153140.859000", "153140.859000", "153140.859000", "153140.859000", "153140.859000", "153140.875000", "153140.875000", "153140.875000", "153140.875000", "153140.875000", "153140.875000", "153200.828000", "153200.828000", "153200.828000", "153200.828000", "153200.828000", "153200.828000", "153200.843000", "153200.843000", "153200.843000", "153200.843000", "153200.843000", "153200.843000", "153200.843000", "153200.859000", "153200.859000", "153200.859000", "153200.859000", "153200.859000", "153200.859000", "153200.859000", "153200.875000", "153200.875000", "153200.875000", "153200.875000", "153200.875000", "153220.828000", "153220.828000", "153220.828000", "153220.828000", "153220.828000", "153220.843000", "153220.843000", "153220.843000", "153220.843000", "153220.843000", "153220.843000", "153220.843000", "153220.859000", "153220.859000", "153220.859000", "153220.859000", "153220.859000", "153220.859000", "153220.875000", "153220.875000", "153220.875000", "153220.875000", "153220.875000", "153220.875000", "153220.875000", "153240.828000", "153240.828000", "153240.828000", "153240.828000", "153240.828000", "153240.828000", "153240.843000", "153240.843000", "153240.843000", "153240.843000", "153240.843000", "153240.859000", "153240.859000", "153240.859000", "153240.859000", "153240.859000", "153240.859000", "153240.859000", "153240.875000", "153240.875000", "153240.875000", "153240.875000", "153240.875000", "153240.875000", "153240.890000", "153240.890000", "153300.828000", "153300.828000", "153300.828000", "153300.828000", "153300.828000", "153300.828000", "153300.843000", "153300.843000", "153300.843000", "153300.843000", "153300.843000", "153300.843000", "153300.843000", "153300.859000", "153300.859000", "153300.859000", "153300.859000", "153300.859000", "153300.859000", "153300.859000", "153300.875000", "153300.875000", "153300.875000", "153300.875000", "153300.875000", "153300.875000", "153320.828000", "153320.828000", "153320.828000", "153320.828000", "153320.828000", "153320.828000", "153320.843000", "153320.843000", "153320.843000", "153320.843000", "153320.843000", "153320.843000", "153320.843000", "153320.859000", "153320.859000", "153320.859000", "153320.859000", "153320.859000", "153320.859000", "153320.859000", "153320.875000", "153320.875000", "153320.875000", "153320.875000", "153320.875000", "153340.828000", "153340.828000", "153340.828000", "153340.828000", "153340.828000", "153340.843000", "153340.843000", "153340.843000", "153340.843000", "153340.843000", "153340.843000", "153340.843000", "153340.859000", "153340.859000", "153340.859000", "153340.859000", "153340.859000", "153340.875000", "153340.875000", "153340.875000", "153340.875000", "153340.875000", "153340.875000", "153340.875000", "153340.890000", "153400.828000", "153400.828000", "153400.828000", "153400.828000", "153400.828000", "153400.828000", "153400.843000", "153400.843000", "153400.843000", "153400.843000", "153400.843000", "153400.843000", "153400.843000", "153400.859000", "153400.859000", "153400.859000", "153400.859000", "153400.859000", "153400.875000", "153400.875000", "153400.875000", "153400.875000", "153400.875000", "153400.875000", "153400.875000", "153400.890000", "153420.828000", "153420.828000", "153420.828000", "153420.828000", "153420.828000", "153420.843000", "153420.843000", "153420.843000", "153420.843000", "153420.843000", "153420.843000", "153420.859000", "153420.859000", "153420.859000", "153420.859000", "153420.859000", "153420.859000", "153420.859000", "153420.875000", "153420.875000", "153420.875000", "153420.875000", "153420.875000", "153420.875000", "153420.890000", "153440.828000", "153440.828000", "153440.828000", "153440.828000", "153440.828000", "153440.828000", "153440.843000", "153440.843000", "153440.843000", "153440.843000", "153440.843000", "153440.843000", "153440.843000", "153440.859000", "153440.859000", "153440.859000", "153440.859000", "153440.859000", "153440.859000", "153440.859000", "153440.875000", "153440.875000", "153440.875000", "153440.875000", "153440.875000", "153440.875000", "153500.828000", "153500.828000", "153500.828000", "153500.828000", "153500.828000", "153500.828000", "153500.843000", "153500.843000", "153500.843000", "153500.843000", "153500.843000", "153500.843000", "153500.843000", "153500.859000", "153500.859000", "153500.859000", "153500.859000", "153500.859000", "153500.859000", "153500.875000", "153500.875000", "153500.875000", "153500.875000", "153500.875000", "153500.875000", "153520.828000", "153520.828000", "153520.828000", "153520.828000", "153520.828000", "153520.828000", "153520.843000", "153520.843000", "153520.843000", "153520.843000", "153520.843000", "153520.843000", "153520.843000", "153520.859000", "153520.859000", "153520.859000", "153520.859000", "153520.859000", "153520.859000", "153520.859000", "153520.875000", "153520.875000", "153520.875000", "153520.875000", "153520.875000", "153520.875000", "153528.468000", "153528.468000", "153528.468000", "153528.468000", "153528.468000", "153528.484000", "153528.484000", "153528.484000", "153528.484000", "153528.484000"],
      "DataSetTrailingPadding": [
        "\u0000\u0000\u0000\u0000\u0000\u0000\u0000\u0000\u0000\u0000\u0000\u0000\u0000\u0000\u0000\u0000\u0000\u0000\u0000\u0000\u0000\u0000\u0000\u0000\u0000\u0000\u0000\u0000\u0000\u0000\u0000\u0000\u0000\u0000\u0000\u0000\u0000\u0000\u0000\u0000\u0000\u0000\u0000\u0000\u0000\u0000\u0000\u0000\u0000\u0000\u0000\u0000\u0000\u0000\u0000\u0000\u0000\u0000\u0000\u0000\u0000\u0000\u0000\u0000\u0000\u0000\u0000\u0000\u0000\u0000\u0000\u0000\u0000\u0000\u0000\u0000\u0000\u0000\u0000\u0000\u0000\u0000\u0000\u0000\u0000\u0000\u0000\u0000\u0000\u0000\u0000\u0000\u0000\u0000\u0000\u0000\u0000\u0000\u0000\u0000\u0000\u0000\u0000\u0000\u0000\u0000\u0000\u0000\u0000\u0000\u0000\u0000\u0000\u0000\u0000\u0000\u0000\u0000\u0000\u0000\u0000\u0000\u0000\u0000\u0000\u0000",
        "\u0000\u0000\u0000\u0000\u0000\u0000\u0000\u0000\u0000\u0000\u0000\u0000\u0000\u0000\u0000\u0000\u0000\u0000\u0000\u0000\u0000\u0000\u0000\u0000\u0000\u0000\u0000\u0000\u0000\u0000\u0000\u0000\u0000\u0000\u0000\u0000\u0000\u0000\u0000\u0000\u0000\u0000\u0000\u0000\u0000\u0000\u0000\u0000\u0000\u0000\u0000\u0000\u0000\u0000\u0000\u0000\u0000\u0000\u0000\u0000\u0000\u0000\u0000\u0000\u0000\u0000\u0000\u0000\u0000\u0000\u0000\u0000\u0000\u0000\u0000\u0000\u0000\u0000\u0000\u0000\u0000\u0000\u0000\u0000\u0000\u0000\u0000\u0000\u0000\u0000\u0000\u0000\u0000\u0000\u0000\u0000\u0000\u0000\u0000\u0000\u0000\u0000\u0000\u0000\u0000\u0000\u0000\u0000\u0000\u0000\u0000\u0000\u0000\u0000\u0000\u0000\u0000\u0000\u0000\u0000\u0000\u0000\u0000\u0000",
