{
  "AcquisitionMatrixPE": 104,
  "AcquisitionNumber": 1,
  "AcquisitionTime": "14:06:18.172500",
  "BandwidthPerPixelPhaseEncode": 13.935,
  "BaseResolution": 104,
  "CoilString": "C:HEA;HEP",
  "ConversionSoftware": "dcm2niix",
  "ConversionSoftwareVersion": "v1.0.20210317",
  "DerivedVendorReportedEchoSpacing": 0.000690017,
  "DeviceSerialNumber": "35450",
  "DwellTime": 2.5e-06,
  "EchoTime": 0.0348,
  "EffectiveEchoSpacing": 0.000690017,
  "FlipAngle": 55,
  "ImageComments": "Unaliased MB8/PE3 (remote)",
  "ImageOrientationPatientDICOM": [0.999854, -0.00308923, -0.0168291, 5.91495e-08, 0.983567, -0.180545],
  "ImageType": [
    "ORIGINAL",
    "PRIMARY",
    "M",
    "MB",
    "ND",
    "MOSAIC"
],
  "ImagingFrequency": 123.234,
  "InPlanePhaseEncodingDirectionDICOM": "COL",
  "InstitutionAddress": "Univeristy Ave. 197,Newark,North East,US,07102-1814",
  "InstitutionName": "RUBIC",
  "InstitutionalDepartmentName": "Department",
  "MRAcquisitionType": "2D",
  "MagneticFieldStrength": 3,
  "Manufacturer": "Siemens",
  "ManufacturersModelName": "TrioTim",
  "Modality": "MR",
  "MultibandAccelerationFactor": 8,
  "PartialFourier": 0.875,
  "PatientPosition": "HFS",
  "PercentPhaseFOV": 100,
  "PercentSampling": 100,
  "PhaseEncodingDirection": "j-",
  "PhaseEncodingSteps": 91,
  "PhaseResolution": 1,
  "PixelBandwidth": 1923,
  "ProcedureStepDescription": "Cole^Michael",
  "ProtocolName": "cmrr_mbep2d_bold_2mm_MB8_Rest",
  "PulseSequenceDetails": "%CustomerSeq%\\cmrr_mbep2d_bold",
  "ReceiveCoilName": "32Ch_Head",
  "ReconMatrixPE": 104,
  "RepetitionTime": 0.785,
  "SAR": 0.11878,
  "ScanOptions": "PFP\\FS",
  "ScanningSequence": "EP",
  "SequenceName": "epfid2d1_104",
  "SequenceVariant": "SK\\SS",
  "SeriesDescription": "cmrr_mbep2d_bold_2mm_MB8_Rest",
  "SeriesNumber": 9,
  "ShimSetting": [2109, -351, -7327, 443, -111, -414, -39, 99],
  "SliceThickness": 2,
  "SliceTiming": [0, 0.4375, 0.0875, 0.525, 0.175, 0.6125, 0.2625, 0.7, 0.35, 0, 0.4375, 0.0875, 0.525, 0.175, 0.6125, 0.2625, 0.7, 0.35, 0, 0.4375, 0.0875, 0.525, 0.175, 0.6125, 0.2625, 0.7, 0.35, 0, 0.4375, 0.0875, 0.525, 0.175, 0.6125, 0.2625, 0.7, 0.35, 0, 0.4375, 0.0875, 0.525, 0.175, 0.6125, 0.2625, 0.7, 0.35, 0, 0.4375, 0.0875, 0.525, 0.175, 0.6125, 0.2625, 0.7, 0.35, 0, 0.4375, 0.0875, 0.525, 0.175, 0.6125, 0.2625, 0.7, 0.35, 0, 0.4375, 0.0875, 0.525, 0.175, 0.6125, 0.2625, 0.7, 0.35],
  "SoftwareVersions": "syngo MR B19",
  "SpacingBetweenSlices": 2,
  "StationName": "MRC35450",
  "TaskName": "rest",
  "TotalReadoutTime": 0.0710717,
  "TxRefAmp": 322.319,
  "dcmmeta_affine": [
    [-1.9997072219848633, 1.1829893509229805e-07, -0.03422063589096069, 106.5240707397461],
    [0.006178467068821192, 1.967133641242981, -0.3610363006591797, -72.4842300415039],
    [-0.033658262342214584, 0.36108916997909546, 1.9668456315994263, -108.79446411132812],
    [0.0, 0.0, 0.0, 1.0]
],
  "dcmmeta_reorient_transform": [
    [0.0, -1.0, 0.0, 103.0],
    [1.0, 0.0, 0.0, 0.0],
    [0.0, 0.0, 1.0, 0.0],
    [0.0, 0.0, 0.0, 1.0]
],
  "dcmmeta_shape": [104, 104, 72, 1070],
  "dcmmeta_slice_dim": 2,
  "dcmmeta_version": 0.6,
  "global": {
    "const": {
      "AcquisitionMatrix": [104, 0, 0, 104],
      "AngioFlag": "N",
      "BitsAllocated": 16,
      "BitsStored": 12,
      "Columns": 936,
      "EchoNumbers": 1,
      "EchoTime": 34.8,
      "EchoTrainLength": 1,
      "FlipAngle": 55.0,
      "HighBit": 11,
      "ImageOrientationPatient": [0.9998536077852, -0.0030892334261, -0.0168291305708, 5.9149467e-08, 0.98356680241819, -0.1805445794835],
      "ImagePositionPatient": [-938.40233722254, -945.88787226768, 92.612642220196],
      "ImageType": [
        "ORIGINAL",
        "PRIMARY",
        "M",
        "MB",
        "ND",
        "MOSAIC"
],
      "ImagedNucleus": "1H",
      "ImagingFrequency": 123.234358,
      "InPlanePhaseEncodingDirection": "COL",
      "MRAcquisitionType": "2D",
      "MagneticFieldStrength": 3.0,
      "Manufacturer": "SIEMENS",
      "ManufacturerModelName": "TrioTim",
      "Modality": "MR",
      "NumberOfAverages": 1.0,
      "NumberOfPhaseEncodingSteps": 91,
      "PercentPhaseFieldOfView": 100.0,
      "PercentSampling": 100.0,
      "PerformedProcedureStepStartTime": "132052.500000",
      "PhotometricInterpretation": "MONOCHROME2",
      "PixelBandwidth": 1923.0,
      "PixelRepresentation": 0,
      "PixelSpacing": [2.0, 2.0],
      "ProtocolName": "cmrr_mbep2d_bold_2mm_MB8_Rest",
      "RepetitionTime": 785.0,
      "Rows": 936,
      "SAR": 0.1187795404171,
      "SamplesPerPixel": 1,
      "ScanOptions": [
        "PFP",
        "FS"
],
      "ScanningSequence": "EP",
      "SequenceName": "epfid2d1_104",
      "SequenceVariant": [
        "SK",
        "SS"
],
      "SeriesDescription": "cmrr_mbep2d_bold_2mm_MB8_Rest",
      "SeriesNumber": 9,
      "SeriesTime": "140640.843000",
      "SliceLocation": -95.728904523233,
      "SliceThickness": 2.0,
      "SmallestImagePixelValue": 0,
      "SoftwareVersions": "syngo MR B19",
      "SpacingBetweenSlices": 2.0000000291049,
      "SpecificCharacterSet": "ISO_IR 100",
      "StudyID": "1",
      "StudyTime": "132052.484000",
      "TransmitCoilName": "Body",
      "VariableFlipAngleFlag": "N",
      "WindowCenterWidthExplanation": "Algo1",
      "dBdt": 0.0},
    "slices": {}
  },
  "time": {
    "samples": {
      "AcquisitionNumber": [1, 2, 3, 4, 5, 6, 7, 8, 9, 10, 11, 12, 13, 14, 15, 16, 17, 18, 19, 20, 21, 22, 23, 24, 25, 26, 27, 28, 29, 30, 31, 32, 33, 34, 35, 36, 37, 38, 39, 40, 41, 42, 43, 44, 45, 46, 47, 48, 49, 50, 51, 52, 53, 54, 55, 56, 57, 58, 59, 60, 61, 62, 63, 64, 65, 66, 67, 68, 69, 70, 71, 72, 73, 74, 75, 76, 77, 78, 79, 80, 81, 82, 83, 84, 85, 86, 87, 88, 89, 90, 91, 92, 93, 94, 95, 96, 97, 98, 99, 100, 101, 102, 103, 104, 105, 106, 107, 108, 109, 110, 111, 112, 113, 114, 115, 116, 117, 118, 119, 120, 121, 122, 123, 124, 125, 126, 127, 128, 129, 130, 131, 132, 133, 134, 135, 136, 137, 138, 139, 140, 141, 142, 143, 144, 145, 146, 147, 148, 149, 150, 151, 152, 153, 154, 155, 156, 157, 158, 159, 160, 161, 162, 163, 164, 165, 166, 167, 168, 169, 170, 171, 172, 173, 174, 175, 176, 177, 178, 179, 180, 181, 182, 183, 184, 185, 186, 187, 188, 189, 190, 191, 192, 193, 194, 195, 196, 197, 198, 199, 200, 201, 202, 203, 204, 205, 206, 207, 208, 209, 210, 211, 212, 213, 214, 215, 216, 217, 218, 219, 220, 221, 222, 223, 224, 225, 226, 227, 228, 229, 230, 231, 232, 233, 234, 235, 236, 237, 238, 239, 240, 241, 242, 243, 244, 245, 246, 247, 248, 249, 250, 251, 252, 253, 254, 255, 256, 257, 258, 259, 260, 261, 262, 263, 264, 265, 266, 267, 268, 269, 270, 271, 272, 273, 274, 275, 276, 277, 278, 279, 280, 281, 282, 283, 284, 285, 286, 287, 288, 289, 290, 291, 292, 293, 294, 295, 296, 297, 298, 299, 300, 301, 302, 303, 304, 305, 306, 307, 308, 309, 310, 311, 312, 313, 314, 315, 316, 317, 318, 319, 320, 321, 322, 323, 324, 325, 326, 327, 328, 329, 330, 331, 332, 333, 334, 335, 336, 337, 338, 339, 340, 341, 342, 343, 344, 345, 346, 347, 348, 349, 350, 351, 352, 353, 354, 355, 356, 357, 358, 359, 360, 361, 362, 363, 364, 365, 366, 367, 368, 369, 370, 371, 372, 373, 374, 375, 376, 377, 378, 379, 380, 381, 382, 383, 384, 385, 386, 387, 388, 389, 390, 391, 392, 393, 394, 395, 396, 397, 398, 399, 400, 401, 402, 403, 404, 405, 406, 407, 408, 409, 410, 411, 412, 413, 414, 415, 416, 417, 418, 419, 420, 421, 422, 423, 424, 425, 426, 427, 428, 429, 430, 431, 432, 433, 434, 435, 436, 437, 438, 439, 440, 441, 442, 443, 444, 445, 446, 447, 448, 449, 450, 451, 452, 453, 454, 455, 456, 457, 458, 459, 460, 461, 462, 463, 464, 465, 466, 467, 468, 469, 470, 471, 472, 473, 474, 475, 476, 477, 478, 479, 480, 481, 482, 483, 484, 485, 486, 487, 488, 489, 490, 491, 492, 493, 494, 495, 496, 497, 498, 499, 500, 501, 502, 503, 504, 505, 506, 507, 508, 509, 510, 511, 512, 513, 514, 515, 516, 517, 518, 519, 520, 521, 522, 523, 524, 525, 526, 527, 528, 529, 530, 531, 532, 533, 534, 535, 536, 537, 538, 539, 540, 541, 542, 543, 544, 545, 546, 547, 548, 549, 550, 551, 552, 553, 554, 555, 556, 557, 558, 559, 560, 561, 562, 563, 564, 565, 566, 567, 568, 569, 570, 571, 572, 573, 574, 575, 576, 577, 578, 579, 580, 581, 582, 583, 584, 585, 586, 587, 588, 589, 590, 591, 592, 593, 594, 595, 596, 597, 598, 599, 600, 601, 602, 603, 604, 605, 606, 607, 608, 609, 610, 611, 612, 613, 614, 615, 616, 617, 618, 619, 620, 621, 622, 623, 624, 625, 626, 627, 628, 629, 630, 631, 632, 633, 634, 635, 636, 637, 638, 639, 640, 641, 642, 643, 644, 645, 646, 647, 648, 649, 650, 651, 652, 653, 654, 655, 656, 657, 658, 659, 660, 661, 662, 663, 664, 665, 666, 667, 668, 669, 670, 671, 672, 673, 674, 675, 676, 677, 678, 679, 680, 681, 682, 683, 684, 685, 686, 687, 688, 689, 690, 691, 692, 693, 694, 695, 696, 697, 698, 699, 700, 701, 702, 703, 704, 705, 706, 707, 708, 709, 710, 711, 712, 713, 714, 715, 716, 717, 718, 719, 720, 721, 722, 723, 724, 725, 726, 727, 728, 729, 730, 731, 732, 733, 734, 735, 736, 737, 738, 739, 740, 741, 742, 743, 744, 745, 746, 747, 748, 749, 750, 751, 752, 753, 754, 755, 756, 757, 758, 759, 760, 761, 762, 763, 764, 765, 766, 767, 768, 769, 770, 771, 772, 773, 774, 775, 776, 777, 778, 779, 780, 781, 782, 783, 784, 785, 786, 787, 788, 789, 790, 791, 792, 793, 794, 795, 796, 797, 798, 799, 800, 801, 802, 803, 804, 805, 806, 807, 808, 809, 810, 811, 812, 813, 814, 815, 816, 817, 818, 819, 820, 821, 822, 823, 824, 825, 826, 827, 828, 829, 830, 831, 832, 833, 834, 835, 836, 837, 838, 839, 840, 841, 842, 843, 844, 845, 846, 847, 848, 849, 850, 851, 852, 853, 854, 855, 856, 857, 858, 859, 860, 861, 862, 863, 864, 865, 866, 867, 868, 869, 870, 871, 872, 873, 874, 875, 876, 877, 878, 879, 880, 881, 882, 883, 884, 885, 886, 887, 888, 889, 890, 891, 892, 893, 894, 895, 896, 897, 898, 899, 900, 901, 902, 903, 904, 905, 906, 907, 908, 909, 910, 911, 912, 913, 914, 915, 916, 917, 918, 919, 920, 921, 922, 923, 924, 925, 926, 927, 928, 929, 930, 931, 932, 933, 934, 935, 936, 937, 938, 939, 940, 941, 942, 943, 944, 945, 946, 947, 948, 949, 950, 951, 952, 953, 954, 955, 956, 957, 958, 959, 960, 961, 962, 963, 964, 965, 966, 967, 968, 969, 970, 971, 972, 973, 974, 975, 976, 977, 978, 979, 980, 981, 982, 983, 984, 985, 986, 987, 988, 989, 990, 991, 992, 993, 994, 995, 996, 997, 998, 999, 1000, 1001, 1002, 1003, 1004, 1005, 1006, 1007, 1008, 1009, 1010, 1011, 1012, 1013, 1014, 1015, 1016, 1017, 1018, 1019, 1020, 1021, 1022, 1023, 1024, 1025, 1026, 1027, 1028, 1029, 1030, 1031, 1032, 1033, 1034, 1035, 1036, 1037, 1038, 1039, 1040, 1041, 1042, 1043, 1044, 1045, 1046, 1047, 1048, 1049, 1050, 1051, 1052, 1053, 1054, 1055, 1056, 1057, 1058, 1059, 1060, 1061, 1062, 1063, 1064, 1065, 1066, 1067, 1068, 1069, 1070],
      "AcquisitionTime": ["140618.172500", "140618.962500", "140619.750000", "140620.537500", "140621.325000", "140622.115000", "140622.902500", "140623.690000", "140624.477500", "140625.267500", "140626.055000", "140626.842500", "140627.632500", "140628.420000", "140629.207500", "140629.995000", "140630.785000", "140631.572500", "140632.360000", "140633.147500", "140633.937500", "140634.725000", "140635.512500", "140636.300000", "140637.090000", "140637.877500", "140638.665000", "140639.452500", "140640.242500", "140641.030000", "140641.817500", "140642.605000", "140643.395000", "140644.182500", "140644.970000", "140645.760000", "140646.547500", "140647.335000", "140648.122500", "140648.912500", "140649.700000", "140650.487500", "140651.275000", "140652.065000", "140652.852500", "140653.640000", "140654.427500", "140655.217500", "140656.005000", "140656.792500", "140657.580000", "140658.370000", "140659.157500", "140659.945000", "140700.732500", "140701.522500", "140702.310000", "140703.097500", "140703.887500", "140704.675000", "140705.462500", "140706.250000", "140707.040000", "140707.827500", "140708.615000", "140709.402500", "140710.192500", "140710.980000", "140711.767500", "140712.555000", "140713.345000", "140714.132500", "140714.920000", "140715.707500", "140716.497500", "140717.285000", "140718.072500", "140718.860000", "140719.650000", "140720.437500", "140721.225000", "140722.015000", "140722.802500", "140723.590000", "140724.377500", "140725.167500", "140725.955000", "140726.742500", "140727.530000", "140728.320000", "140729.107500", "140729.895000", "140730.682500", "140731.472500", "140732.260000", "140733.047500", "140733.835000", "140734.625000", "140735.412500", "140736.200000", "140736.987500", "140737.777500", "140738.565000", "140739.352500", "140740.142500", "140740.930000", "140741.717500", "140742.505000", "140743.295000", "140744.082500", "140744.870000", "140745.657500", "140746.447500", "140747.235000", "140748.022500", "140748.810000", "140749.600000", "140750.387500", "140751.175000", "140751.962500", "140752.752500", "140753.540000", "140754.327500", "140755.115000", "140755.905000", "140756.692500", "140757.480000", "140758.270000", "140759.057500", "140759.845000", "140800.632500", "140801.422500", "140802.210000", "140802.997500", "140803.785000", "140804.575000", "140805.362500", "140806.150000", "140806.937500", "140807.727500", "140808.515000", "140809.302500", "140810.090000", "140810.880000", "140811.667500", "140812.455000", "140813.242500", "140814.032500", "140814.820000", "140815.607500", "140816.397500", "140817.185000", "140817.972500", "140818.760000", "140819.550000", "140820.337500", "140821.125000", "140821.912500", "140822.702500", "140823.490000", "140824.277500", "140825.065000", "140825.855000", "140826.642500", "140827.430000", "140828.217500", "140829.007500", "140829.795000", "140830.582500", "140831.370000", "140832.160000", "140832.947500", "140833.735000", "140834.525000", "140835.312500", "140836.100000", "140836.887500", "140837.677500", "140838.465000", "140839.252500", "140840.040000", "140840.830000", "140841.617500", "140842.405000", "140843.192500", "140843.982500", "140844.770000", "140845.557500", "140846.345000", "140847.135000", "140847.922500", "140848.710000", "140849.497500", "140850.287500", "140851.075000", "140851.862500", "140852.652500", "140853.440000", "140854.227500", "140855.015000", "140855.805000", "140856.592500", "140857.380000", "140858.167500", "140858.957500", "140859.745000", "140900.532500", "140901.320000", "140902.110000", "140902.897500", "140903.685000", "140904.472500", "140905.262500", "140906.050000", "140906.837500", "140907.625000", "140908.415000", "140909.202500", "140909.990000", "140910.780000", "140911.567500", "140912.355000", "140913.142500", "140913.932500", "140914.720000", "140915.507500", "140916.295000", "140917.085000", "140917.872500", "140918.660000", "140919.447500", "140920.237500", "140921.025000", "140921.812500", "140922.600000", "140923.390000", "140924.177500", "140924.965000", "140925.755000", "140926.542500", "140927.330000", "140928.117500", "140928.907500", "140929.695000", "140930.482500", "140931.270000", "140932.060000", "140932.847500", "140933.635000", "140934.422500", "140935.212500", "140936.000000", "140936.787500", "140937.575000", "140938.365000", "140939.152500", "140939.940000", "140940.727500", "140941.517500", "140942.305000", "140943.092500", "140943.882500", "140944.670000", "140945.457500", "140946.245000", "140947.035000", "140947.822500", "140948.610000", "140949.397500", "140950.187500", "140950.975000", "140951.762500", "140952.550000", "140953.340000", "140954.127500", "140954.915000", "140955.702500", "140956.492500", "140957.280000", "140958.067500", "140958.855000", "140959.645000", "141000.432500", "141001.220000", "141002.010000", "141002.797500", "141003.585000", "141004.372500", "141005.162500", "141005.950000", "141006.737500", "141007.525000", "141008.315000", "141009.102500", "141009.890000", "141010.677500", "141011.467500", "141012.255000", "141013.042500", "141013.830000", "141014.620000", "141015.407500", "141016.195000", "141016.982500", "141017.772500", "141018.560000", "141019.347500", "141020.137500", "141020.925000", "141021.712500", "141022.500000", "141023.290000", "141024.077500", "141024.865000", "141025.652500", "141026.442500", "141027.230000", "141028.017500", "141028.805000", "141029.595000", "141030.382500", "141031.170000", "141031.957500", "141032.747500", "141033.535000", "141034.322500", "141035.110000", "141035.900000", "141036.687500", "141037.475000", "141038.265000", "141039.052500", "141039.840000", "141040.627500", "141041.417500", "141042.205000", "141042.992500", "141043.780000", "141044.570000", "141045.357500", "141046.145000", "141046.932500", "141047.722500", "141048.510000", "141049.297500", "141050.085000", "141050.875000", "141051.662500", "141052.450000", "141053.237500", "141054.027500", "141054.815000", "141055.602500", "141056.392500", "141057.180000", "141057.967500", "141058.755000", "141059.545000", "141100.332500", "141101.120000", "141101.907500", "141102.697500", "141103.485000", "141104.272500", "141105.060000", "141105.850000", "141106.637500", "141107.425000", "141108.212500", "141109.002500", "141109.790000", "141110.577500", "141111.365000", "141112.155000", "141112.942500", "141113.730000", "141114.520000", "141115.307500", "141116.095000", "141116.882500", "141117.672500", "141118.460000", "141119.247500", "141120.035000", "141120.825000", "141121.612500", "141122.400000", "141123.187500", "141123.977500", "141124.765000", "141125.552500", "141126.340000", "141127.130000", "141127.917500", "141128.705000", "141129.492500", "141130.282500", "141131.070000", "141131.857500", "141132.647500", "141133.435000", "141134.222500", "141135.010000", "141135.800000", "141136.587500", "141137.375000", "141138.162500", "141138.952500", "141139.740000", "141140.527500", "141141.315000", "141142.105000", "141142.892500", "141143.680000", "141144.467500", "141145.257500", "141146.045000", "141146.832500", "141147.620000", "141148.410000", "141149.197500", "141149.985000", "141150.775000", "141151.562500", "141152.350000", "141153.137500", "141153.927500", "141154.715000", "141155.502500", "141156.290000", "141157.080000", "141157.867500", "141158.655000", "141159.442500", "141200.232500", "141201.020000", "141201.807500", "141202.595000", "141203.385000", "141204.172500", "141204.960000", "141205.747500", "141206.537500", "141207.325000", "141208.112500", "141208.902500", "141209.690000", "141210.477500", "141211.265000", "141212.055000", "141212.842500", "141213.630000", "141214.417500", "141215.207500", "141215.995000", "141216.782500", "141217.570000", "141218.360000", "141219.147500", "141219.935000", "141220.722500", "141221.512500", "141222.300000", "141223.087500", "141223.875000", "141224.665000", "141225.452500", "141226.240000", "141227.030000", "141227.817500", "141228.605000", "141229.392500", "141230.182500", "141230.970000", "141231.757500", "141232.545000", "141233.335000", "141234.122500", "141234.910000", "141235.697500", "141236.487500", "141237.275000", "141238.062500", "141238.850000", "141239.640000", "141240.427500", "141241.215000", "141242.005000", "141242.792500", "141243.580000", "141244.367500", "141245.157500", "141245.945000", "141246.732500", "141247.520000", "141248.310000", "141249.097500", "141249.885000", "141250.672500", "141251.462500", "141252.250000", "141253.037500", "141253.825000", "141254.615000", "141255.402500", "141256.190000", "141256.977500", "141257.767500", "141258.555000", "141259.342500", "141300.132500", "141300.920000", "141301.707500", "141302.495000", "141303.285000", "141304.072500", "141304.860000", "141305.647500", "141306.437500", "141307.225000", "141308.012500", "141308.800000", "141309.590000", "141310.377500", "141311.165000", "141311.952500", "141312.742500", "141313.530000", "141314.317500", "141315.105000", "141315.895000", "141316.682500", "141317.470000", "141318.260000", "141319.047500", "141319.835000", "141320.622500", "141321.412500", "141322.200000", "141322.987500", "141323.775000", "141324.565000", "141325.352500", "141326.140000", "141326.927500", "141327.717500", "141328.505000", "141329.292500", "141330.080000", "141330.870000", "141331.657500", "141332.445000", "141333.232500", "141334.022500", "141334.810000", "141335.597500", "141336.387500", "141337.175000", "141337.962500", "141338.750000", "141339.540000", "141340.327500", "141341.115000", "141341.902500", "141342.692500", "141343.480000", "141344.267500", "141345.055000", "141345.845000", "141346.632500", "141347.420000", "141348.207500", "141348.997500", "141349.785000", "141350.572500", "141351.360000", "141352.150000", "141352.937500", "141353.725000", "141354.515000", "141355.302500", "141356.090000", "141356.877500", "141357.667500", "141358.455000", "141359.242500", "141400.030000", "141400.820000", "141401.607500", "141402.395000", "141403.182500", "141403.972500", "141404.760000", "141405.547500", "141406.335000", "141407.125000", "141407.912500", "141408.700000", "141409.487500", "141410.277500", "141411.065000", "141411.852500", "141412.642500", "141413.430000", "141414.217500", "141415.005000", "141415.795000", "141416.582500", "141417.370000", "141418.157500", "141418.947500", "141419.735000", "141420.522500", "141421.310000", "141422.100000", "141422.887500", "141423.675000", "141424.462500", "141425.252500", "141426.040000", "141426.827500", "141427.615000", "141428.405000", "141429.192500", "141429.980000", "141430.770000", "141431.557500", "141432.345000", "141433.132500", "141433.922500", "141434.710000", "141435.497500", "141436.285000", "141437.075000", "141437.862500", "141438.650000", "141439.437500", "141440.227500", "141441.015000", "141441.802500", "141442.590000", "141443.380000", "141444.167500", "141444.955000", "141445.742500", "141446.532500", "141447.320000", "141448.107500", "141448.897500", "141449.685000", "141450.472500", "141451.260000", "141452.050000", "141452.837500", "141453.625000", "141454.412500", "141455.202500", "141455.990000", "141456.777500", "141457.565000", "141458.355000", "141459.142500", "141459.930000", "141500.717500", "141501.507500", "141502.295000", "141503.082500", "141503.870000", "141504.660000", "141505.447500", "141506.235000", "141507.025000", "141507.812500", "141508.600000", "141509.387500", "141510.177500", "141510.965000", "141511.752500", "141512.540000", "141513.330000", "141514.117500", "141514.905000", "141515.692500", "141516.482500", "141517.270000", "141518.057500", "141518.845000", "141519.635000", "141520.422500", "141521.210000", "141521.997500", "141522.787500", "141523.575000", "141524.362500", "141525.152500", "141525.940000", "141526.727500", "141527.515000", "141528.305000", "141529.092500", "141529.880000", "141530.667500", "141531.457500", "141532.245000", "141533.032500", "141533.820000", "141534.610000", "141535.397500", "141536.185000", "141536.972500", "141537.762500", "141538.550000", "141539.337500", "141540.125000", "141540.915000", "141541.702500", "141542.490000", "141543.280000", "141544.067500", "141544.855000", "141545.642500", "141546.432500", "141547.220000", "141548.007500", "141548.795000", "141549.585000", "141550.372500", "141551.160000", "141551.947500", "141552.737500", "141553.525000", "141554.312500", "141555.100000", "141555.890000", "141556.677500", "141557.465000", "141558.255000", "141559.042500", "141559.830000", "141600.617500", "141601.407500", "141602.195000", "141602.982500", "141603.770000", "141604.560000", "141605.347500", "141606.135000", "141606.922500", "141607.712500", "141608.500000", "141609.287500", "141610.075000", "141610.865000", "141611.652500", "141612.440000", "141613.227500", "141614.017500", "141614.805000", "141615.592500", "141616.382500", "141617.170000", "141617.957500", "141618.745000", "141619.535000", "141620.322500", "141621.110000", "141621.897500", "141622.687500", "141623.475000", "141624.262500", "141625.050000", "141625.840000", "141626.627500", "141627.415000", "141628.202500", "141628.992500", "141629.780000", "141630.567500", "141631.355000", "141632.145000", "141632.932500", "141633.720000", "141634.510000", "141635.297500", "141636.085000", "141636.872500", "141637.662500", "141638.450000", "141639.237500", "141640.025000", "141640.815000", "141641.602500", "141642.390000", "141643.177500", "141643.967500", "141644.755000", "141645.542500", "141646.330000", "141647.120000", "141647.907500", "141648.695000", "141649.482500", "141650.272500", "141651.060000", "141651.847500", "141652.637500", "141653.425000", "141654.212500", "141655.000000", "141655.790000", "141656.577500", "141657.365000", "141658.152500", "141658.942500", "141659.730000", "141700.517500", "141701.305000", "141702.095000", "141702.882500", "141703.670000", "141704.457500", "141705.247500", "141706.035000", "141706.822500", "141707.610000", "141708.400000", "141709.187500", "141709.975000", "141710.765000", "141711.552500", "141712.340000", "141713.127500", "141713.917500", "141714.705000", "141715.492500", "141716.280000", "141717.070000", "141717.857500", "141718.645000", "141719.432500", "141720.222500", "141721.010000", "141721.797500", "141722.585000", "141723.375000", "141724.162500", "141724.950000", "141725.737500", "141726.527500", "141727.315000", "141728.102500", "141728.892500", "141729.680000", "141730.467500", "141731.255000", "141732.045000", "141732.832500", "141733.620000", "141734.407500", "141735.197500", "141735.985000", "141736.772500", "141737.560000", "141738.350000", "141739.137500", "141739.925000", "141740.712500", "141741.502500", "141742.290000", "141743.077500", "141743.865000", "141744.655000", "141745.442500", "141746.230000", "141747.020000", "141747.807500", "141748.595000", "141749.382500", "141750.172500", "141750.960000", "141751.747500", "141752.535000", "141753.325000", "141754.112500", "141754.900000", "141755.687500", "141756.477500", "141757.265000", "141758.052500", "141758.840000", "141759.630000", "141800.417500", "141801.205000", "141801.992500", "141802.782500", "141803.570000", "141804.357500", "141805.147500", "141805.935000", "141806.722500", "141807.510000", "141808.300000", "141809.087500", "141809.875000", "141810.662500", "141811.452500", "141812.240000", "141813.027500", "141813.815000", "141814.605000", "141815.392500", "141816.180000", "141816.967500", "141817.757500", "141818.545000", "141819.332500", "141820.120000", "141820.910000", "141821.697500", "141822.485000", "141823.275000", "141824.062500", "141824.850000", "141825.637500", "141826.427500", "141827.215000", "141828.002500", "141828.790000", "141829.580000", "141830.367500", "141831.155000", "141831.942500", "141832.732500", "141833.520000", "141834.307500", "141835.095000", "141835.885000", "141836.672500", "141837.460000", "141838.247500", "141839.037500", "141839.825000", "141840.612500", "141841.402500", "141842.190000", "141842.977500", "141843.765000", "141844.555000", "141845.342500", "141846.130000", "141846.917500", "141847.707500", "141848.495000", "141849.282500", "141850.070000", "141850.860000", "141851.647500", "141852.435000", "141853.222500", "141854.012500", "141854.800000", "141855.587500", "141856.375000", "141857.165000", "141857.952500", "141858.740000", "141859.530000", "141900.317500", "141901.105000", "141901.892500", "141902.682500", "141903.470000", "141904.257500", "141905.045000", "141905.835000", "141906.622500", "141907.410000", "141908.197500", "141908.987500", "141909.775000", "141910.562500", "141911.350000", "141912.140000", "141912.927500", "141913.715000", "141914.505000", "141915.292500", "141916.080000", "141916.867500", "141917.657500", "141918.445000", "141919.232500", "141920.020000", "141920.810000", "141921.597500", "141922.385000", "141923.172500", "141923.962500", "141924.750000", "141925.537500", "141926.325000", "141927.115000", "141927.902500", "141928.690000", "141929.477500", "141930.267500", "141931.055000", "141931.842500", "141932.632500", "141933.420000", "141934.207500", "141934.995000", "141935.785000", "141936.572500", "141937.360000", "141938.147500", "141938.937500", "141939.725000", "141940.512500", "141941.300000", "141942.090000", "141942.877500", "141943.665000", "141944.452500", "141945.242500", "141946.030000", "141946.817500", "141947.605000", "141948.395000", "141949.182500", "141949.970000", "141950.760000", "141951.547500", "141952.335000", "141953.122500", "141953.912500", "141954.700000", "141955.487500", "141956.275000", "141957.065000", "141957.852500", "141958.640000", "141959.427500", "142000.217500", "142001.005000", "142001.792500", "142002.580000", "142003.370000", "142004.157500", "142004.945000", "142005.732500", "142006.522500", "142007.310000", "142008.097500", "142008.887500", "142009.675000", "142010.462500", "142011.250000", "142012.040000", "142012.827500", "142013.615000", "142014.402500", "142015.192500", "142015.980000", "142016.767500", "142017.555000", "142018.345000", "142019.132500", "142019.920000", "142020.707500"],
