{
  "AcquisitionMatrixPE": 104,
  "AcquisitionNumber": 1,
  "AcquisitionTime": "15:11:14.692500",
  "BandwidthPerPixelPhaseEncode": 13.935,
  "BaseResolution": 104,
  "CoilString": "C:HEA;HEP",
  "ConversionSoftware": "dcm2niix",
  "ConversionSoftwareVersion": "v1.0.20210317",
  "DerivedVendorReportedEchoSpacing": 0.000690017,
  "DeviceSerialNumber": "35450",
  "DwellTime": 2.5e-06,
  "EchoTime": 0.0348,
  "EffectiveEchoSpacing": 0.000690017,
  "FlipAngle": 55,
  "ImageComments": "Unaliased MB8/PE3 (remote)",
  "ImageOrientationPatientDICOM": [1, 0, 0, 0, 0.979223, -0.202787],
  "ImageType": [
    "ORIGINAL",
    "PRIMARY",
    "M",
    "MB",
    "ND",
    "MOSAIC"
],
  "ImagingFrequency": 123.234,
  "InPlanePhaseEncodingDirectionDICOM": "COL",
  "InstitutionAddress": "Univeristy Ave. 197,Newark,North East,US,07102-1814",
  "InstitutionName": "RUBIC",
  "InstitutionalDepartmentName": "Department",
  "MRAcquisitionType": "2D",
  "MagneticFieldStrength": 3,
  "Manufacturer": "Siemens",
  "ManufacturersModelName": "TrioTim",
  "Modality": "MR",
  "MultibandAccelerationFactor": 8,
  "PartialFourier": 0.875,
  "PatientPosition": "HFS",
  "PercentPhaseFOV": 100,
  "PercentSampling": 100,
  "PhaseEncodingDirection": "j-",
  "PhaseEncodingSteps": 91,
  "PhaseResolution": 1,
  "PixelBandwidth": 1923,
  "ProcedureStepDescription": "Cole^Michael",
  "ProtocolName": "cmrr_mbep2d_bold_2mm_MB8_Task_8x",
  "PulseSequenceDetails": "%CustomerSeq%\\cmrr_mbep2d_bold",
  "ReceiveCoilName": "32Ch_Head",
  "ReconMatrixPE": 104,
  "RepetitionTime": 0.785,
  "SAR": 0.121652,
  "ScanOptions": "PFP\\FS",
  "ScanningSequence": "EP",
  "SequenceName": "epfid2d1_104",
  "SequenceVariant": "SK\\SS",
  "SeriesDescription": "cmrr_mbep2d_bold_2mm_MB8_Task_8x",
  "SeriesNumber": 19,
  "ShimSetting": [2087, -324, -7176, 334, 97, -254, -66, -31],
  "SliceThickness": 2,
  "SliceTiming": [0, 0.4375, 0.0875, 0.525, 0.175, 0.6125, 0.2625, 0.7, 0.35, 0, 0.4375, 0.0875, 0.525, 0.175, 0.6125, 0.2625, 0.7, 0.35, 0, 0.4375, 0.0875, 0.525, 0.175, 0.6125, 0.2625, 0.7, 0.35, 0, 0.4375, 0.0875, 0.525, 0.175, 0.6125, 0.2625, 0.7, 0.35, 0, 0.4375, 0.0875, 0.525, 0.175, 0.6125, 0.2625, 0.7, 0.35, 0, 0.4375, 0.0875, 0.525, 0.175, 0.6125, 0.2625, 0.7, 0.35, 0, 0.4375, 0.0875, 0.525, 0.175, 0.6125, 0.2625, 0.7, 0.35, 0, 0.4375, 0.0875, 0.525, 0.175, 0.6125, 0.2625, 0.7, 0.35],
  "SoftwareVersions": "syngo MR B19",
  "SpacingBetweenSlices": 2,
  "StationName": "MRC35450",
  "TaskName": "cpro",
  "TotalReadoutTime": 0.0710717,
  "TxRefAmp": 328.352,
  "dcmmeta_affine": [
    [-2.0, 0.0, 0.0, 104.67796325683594],
    [0.0, 1.95844566822052, -0.4055745601654053, -74.50532531738281],
    [0.0, 0.4055745601654053, 1.95844566822052, -111.32870483398438],
    [0.0, 0.0, 0.0, 1.0]
],
  "dcmmeta_reorient_transform": [
    [0.0, -1.0, 0.0, 103.0],
    [1.0, 0.0, 0.0, 0.0],
    [0.0, 0.0, 1.0, 0.0],
    [0.0, 0.0, 0.0, 1.0]
],
  "dcmmeta_shape": [104, 104, 72, 581],
  "dcmmeta_slice_dim": 2,
  "dcmmeta_version": 0.6,
  "global": {
    "const": {
      "AcquisitionMatrix": [104, 0, 0, 104],
      "AngioFlag": "N",
      "BitsAllocated": 16,
      "BitsStored": 12,
      "Columns": 936,
      "EchoNumbers": 1,
      "EchoTime": 34.8,
      "EchoTrainLength": 1,
      "FlipAngle": 55.0,
      "HighBit": 11,
      "ImageOrientationPatient": [1.0, 0.0, 0.0, 0.0, 0.97922281297031, -0.2027872840158],
      "ImagePositionPatient": [-936.67796611786, -941.92795729812, 99.164496288505],
      "ImageType": [
        "ORIGINAL",
        "PRIMARY",
        "M",
        "MB",
        "ND",
        "MOSAIC"
],
      "ImagedNucleus": "1H",
      "ImagingFrequency": 123.234473,
      "InPlanePhaseEncodingDirection": "COL",
      "MRAcquisitionType": "2D",
      "MagneticFieldStrength": 3.0,
      "Manufacturer": "SIEMENS",
      "ManufacturerModelName": "TrioTim",
      "Modality": "MR",
      "NumberOfAverages": 1.0,
      "NumberOfPhaseEncodingSteps": 91,
      "PercentPhaseFieldOfView": 100.0,
      "PercentSampling": 100.0,
      "PerformedProcedureStepStartTime": "133754.000000",
      "PhotometricInterpretation": "MONOCHROME2",
      "PixelBandwidth": 1923.0,
      "PixelRepresentation": 0,
      "PixelSpacing": [2.0, 2.0],
      "ProtocolName": "cmrr_mbep2d_bold_2mm_MB8_Task_8x",
      "RepetitionTime": 785.0,
      "Rows": 936,
      "SAR": 0.1216519987062,
      "SamplesPerPixel": 1,
      "ScanOptions": [
        "PFP",
        "FS"
],
      "ScanningSequence": "EP",
      "SequenceName": "epfid2d1_104",
      "SequenceVariant": [
        "SK",
        "SS"
],
      "SeriesDescription": "cmrr_mbep2d_bold_2mm_MB8_Task_8x",
      "SeriesNumber": 19,
      "SeriesTime": "151133.203000",
      "SliceLocation": -93.906875196632,
      "SliceThickness": 2.0,
      "SmallestImagePixelValue": 0,
      "SoftwareVersions": "syngo MR B19",
      "SpacingBetweenSlices": 2.000000023316,
      "SpecificCharacterSet": "ISO_IR 100",
      "StudyID": "1",
      "StudyTime": "133753.953000",
      "TransmitCoilName": "Body",
      "VariableFlipAngleFlag": "N",
      "WindowCenterWidthExplanation": "Algo1",
      "dBdt": 0.0},
    "slices": {}
  },
  "time": {
    "samples": {
      "AcquisitionNumber": [1, 2, 3, 4, 5, 6, 7, 8, 9, 10, 11, 12, 13, 14, 15, 16, 17, 18, 19, 20, 21, 22, 23, 24, 25, 26, 27, 28, 29, 30, 31, 32, 33, 34, 35, 36, 37, 38, 39, 40, 41, 42, 43, 44, 45, 46, 47, 48, 49, 50, 51, 52, 53, 54, 55, 56, 57, 58, 59, 60, 61, 62, 63, 64, 65, 66, 67, 68, 69, 70, 71, 72, 73, 74, 75, 76, 77, 78, 79, 80, 81, 82, 83, 84, 85, 86, 87, 88, 89, 90, 91, 92, 93, 94, 95, 96, 97, 98, 99, 100, 101, 102, 103, 104, 105, 106, 107, 108, 109, 110, 111, 112, 113, 114, 115, 116, 117, 118, 119, 120, 121, 122, 123, 124, 125, 126, 127, 128, 129, 130, 131, 132, 133, 134, 135, 136, 137, 138, 139, 140, 141, 142, 143, 144, 145, 146, 147, 148, 149, 150, 151, 152, 153, 154, 155, 156, 157, 158, 159, 160, 161, 162, 163, 164, 165, 166, 167, 168, 169, 170, 171, 172, 173, 174, 175, 176, 177, 178, 179, 180, 181, 182, 183, 184, 185, 186, 187, 188, 189, 190, 191, 192, 193, 194, 195, 196, 197, 198, 199, 200, 201, 202, 203, 204, 205, 206, 207, 208, 209, 210, 211, 212, 213, 214, 215, 216, 217, 218, 219, 220, 221, 222, 223, 224, 225, 226, 227, 228, 229, 230, 231, 232, 233, 234, 235, 236, 237, 238, 239, 240, 241, 242, 243, 244, 245, 246, 247, 248, 249, 250, 251, 252, 253, 254, 255, 256, 257, 258, 259, 260, 261, 262, 263, 264, 265, 266, 267, 268, 269, 270, 271, 272, 273, 274, 275, 276, 277, 278, 279, 280, 281, 282, 283, 284, 285, 286, 287, 288, 289, 290, 291, 292, 293, 294, 295, 296, 297, 298, 299, 300, 301, 302, 303, 304, 305, 306, 307, 308, 309, 310, 311, 312, 313, 314, 315, 316, 317, 318, 319, 320, 321, 322, 323, 324, 325, 326, 327, 328, 329, 330, 331, 332, 333, 334, 335, 336, 337, 338, 339, 340, 341, 342, 343, 344, 345, 346, 347, 348, 349, 350, 351, 352, 353, 354, 355, 356, 357, 358, 359, 360, 361, 362, 363, 364, 365, 366, 367, 368, 369, 370, 371, 372, 373, 374, 375, 376, 377, 378, 379, 380, 381, 382, 383, 384, 385, 386, 387, 388, 389, 390, 391, 392, 393, 394, 395, 396, 397, 398, 399, 400, 401, 402, 403, 404, 405, 406, 407, 408, 409, 410, 411, 412, 413, 414, 415, 416, 417, 418, 419, 420, 421, 422, 423, 424, 425, 426, 427, 428, 429, 430, 431, 432, 433, 434, 435, 436, 437, 438, 439, 440, 441, 442, 443, 444, 445, 446, 447, 448, 449, 450, 451, 452, 453, 454, 455, 456, 457, 458, 459, 460, 461, 462, 463, 464, 465, 466, 467, 468, 469, 470, 471, 472, 473, 474, 475, 476, 477, 478, 479, 480, 481, 482, 483, 484, 485, 486, 487, 488, 489, 490, 491, 492, 493, 494, 495, 496, 497, 498, 499, 500, 501, 502, 503, 504, 505, 506, 507, 508, 509, 510, 511, 512, 513, 514, 515, 516, 517, 518, 519, 520, 521, 522, 523, 524, 525, 526, 527, 528, 529, 530, 531, 532, 533, 534, 535, 536, 537, 538, 539, 540, 541, 542, 543, 544, 545, 546, 547, 548, 549, 550, 551, 552, 553, 554, 555, 556, 557, 558, 559, 560, 561, 562, 563, 564, 565, 566, 567, 568, 569, 570, 571, 572, 573, 574, 575, 576, 577, 578, 579, 580, 581],
      "AcquisitionTime": ["151114.692500", "151115.480000", "151116.267500", "151117.057500", "151117.845000", "151118.632500", "151119.420000", "151120.210000", "151120.997500", "151121.785000", "151122.572500", "151123.362500", "151124.150000", "151124.937500", "151125.725000", "151126.515000", "151127.302500", "151128.090000", "151128.880000", "151129.667500", "151130.455000", "151131.242500", "151132.032500", "151132.820000", "151133.607500", "151134.395000", "151135.185000", "151135.972500", "151136.760000", "151137.547500", "151138.337500", "151139.125000", "151139.912500", "151140.700000", "151141.490000", "151142.277500", "151143.065000", "151143.852500", "151144.642500", "151145.430000", "151146.217500", "151147.007500", "151147.795000", "151148.582500", "151149.370000", "151150.160000", "151150.947500", "151151.735000", "151152.522500", "151153.312500", "151154.100000", "151154.887500", "151155.675000", "151156.465000", "151157.252500", "151158.040000", "151158.827500", "151159.617500", "151200.405000", "151201.192500", "151201.980000", "151202.770000", "151203.557500", "151204.345000", "151205.135000", "151205.922500", "151206.710000", "151207.497500", "151208.287500", "151209.075000", "151209.862500", "151210.650000", "151211.440000", "151212.227500", "151213.015000", "151213.802500", "151214.592500", "151215.380000", "151216.167500", "151216.955000", "151217.745000", "151218.532500", "151219.320000", "151220.107500", "151220.897500", "151221.685000", "151222.472500", "151223.262500", "151224.050000", "151224.837500", "151225.625000", "151226.415000", "151227.202500", "151227.990000", "151228.777500", "151229.567500", "151230.355000", "151231.142500", "151231.930000", "151232.720000", "151233.507500", "151234.295000", "151235.082500", "151235.872500", "151236.660000", "151237.447500", "151238.235000", "151239.025000", "151239.812500", "151240.600000", "151241.390000", "151242.177500", "151242.965000", "151243.752500", "151244.542500", "151245.330000", "151246.117500", "151246.905000", "151247.695000", "151248.482500", "151249.270000", "151250.057500", "151250.847500", "151251.635000", "151252.422500", "151253.210000", "151254.000000", "151254.787500", "151255.575000", "151256.365000", "151257.152500", "151257.940000", "151258.727500", "151259.517500", "151300.305000", "151301.092500", "151301.880000", "151302.670000", "151303.457500", "151304.245000", "151305.032500", "151305.822500", "151306.610000", "151307.397500", "151308.185000", "151308.975000", "151309.762500", "151310.550000", "151311.337500", "151312.127500", "151312.915000", "151313.702500", "151314.492500", "151315.280000", "151316.067500", "151316.855000", "151317.645000", "151318.432500", "151319.220000", "151320.007500", "151320.797500", "151321.585000", "151322.372500", "151323.160000", "151323.950000", "151324.737500", "151325.525000", "151326.312500", "151327.102500", "151327.890000", "151328.677500", "151329.465000", "151330.255000", "151331.042500", "151331.830000", "151332.620000", "151333.407500", "151334.195000", "151334.982500", "151335.772500", "151336.560000", "151337.347500", "151338.135000", "151338.925000", "151339.712500", "151340.500000", "151341.287500", "151342.077500", "151342.865000", "151343.652500", "151344.440000", "151345.230000", "151346.017500", "151346.805000", "151347.592500", "151348.382500", "151349.170000", "151349.957500", "151350.747500", "151351.535000", "151352.322500", "151353.110000", "151353.900000", "151354.687500", "151355.475000", "151356.262500", "151357.052500", "151357.840000", "151358.627500", "151359.415000", "151400.205000", "151400.992500", "151401.780000", "151402.567500", "151403.357500", "151404.145000", "151404.932500", "151405.720000", "151406.510000", "151407.297500", "151408.085000", "151408.875000", "151409.662500", "151410.450000", "151411.237500", "151412.027500", "151412.815000", "151413.602500", "151414.390000", "151415.180000", "151415.967500", "151416.755000", "151417.542500", "151418.332500", "151419.120000", "151419.907500", "151420.695000", "151421.485000", "151422.272500", "151423.060000", "151423.847500", "151424.637500", "151425.425000", "151426.212500", "151427.002500", "151427.790000", "151428.577500", "151429.365000", "151430.155000", "151430.942500", "151431.730000", "151432.517500", "151433.307500", "151434.095000", "151434.882500", "151435.670000", "151436.460000", "151437.247500", "151438.035000", "151438.822500", "151439.612500", "151440.400000", "151441.187500", "151441.975000", "151442.765000", "151443.552500", "151444.340000", "151445.130000", "151445.917500", "151446.705000", "151447.492500", "151448.282500", "151449.070000", "151449.857500", "151450.645000", "151451.435000", "151452.222500", "151453.010000", "151453.797500", "151454.587500", "151455.375000", "151456.162500", "151456.950000", "151457.740000", "151458.527500", "151459.315000", "151500.102500", "151500.892500", "151501.680000", "151502.467500", "151503.257500", "151504.045000", "151504.832500", "151505.620000", "151506.410000", "151507.197500", "151507.985000", "151508.772500", "151509.562500", "151510.350000", "151511.137500", "151511.925000", "151512.715000", "151513.502500", "151514.290000", "151515.077500", "151515.867500", "151516.655000", "151517.442500", "151518.230000", "151519.020000", "151519.807500", "151520.595000", "151521.385000", "151522.172500", "151522.960000", "151523.747500", "151524.537500", "151525.325000", "151526.112500", "151526.900000", "151527.690000", "151528.477500", "151529.265000", "151530.052500", "151530.842500", "151531.630000", "151532.417500", "151533.205000", "151533.995000", "151534.782500", "151535.570000", "151536.357500", "151537.147500", "151537.935000", "151538.722500", "151539.512500", "151540.300000", "151541.087500", "151541.875000", "151542.665000", "151543.452500", "151544.240000", "151545.027500", "151545.817500", "151546.605000", "151547.392500", "151548.180000", "151548.970000", "151549.757500", "151550.545000", "151551.332500", "151552.122500", "151552.910000", "151553.697500", "151554.485000", "151555.275000", "151556.062500", "151556.850000", "151557.640000", "151558.427500", "151559.215000", "151600.002500", "151600.792500", "151601.580000", "151602.367500", "151603.155000", "151603.945000", "151604.732500", "151605.520000", "151606.307500", "151607.097500", "151607.885000", "151608.672500", "151609.460000", "151610.250000", "151611.037500", "151611.825000", "151612.615000", "151613.402500", "151614.190000", "151614.977500", "151615.767500", "151616.555000", "151617.342500", "151618.130000", "151618.920000", "151619.707500", "151620.495000", "151621.282500", "151622.072500", "151622.860000", "151623.647500", "151624.435000", "151625.225000", "151626.012500", "151626.800000", "151627.587500", "151628.377500", "151629.165000", "151629.952500", "151630.742500", "151631.530000", "151632.317500", "151633.105000", "151633.895000", "151634.682500", "151635.470000", "151636.257500", "151637.047500", "151637.835000", "151638.622500", "151639.410000", "151640.200000", "151640.987500", "151641.775000", "151642.562500", "151643.352500", "151644.140000", "151644.927500", "151645.715000", "151646.505000", "151647.292500", "151648.080000", "151648.870000", "151649.657500", "151650.445000", "151651.232500", "151652.022500", "151652.810000", "151653.597500", "151654.385000", "151655.175000", "151655.962500", "151656.750000", "151657.537500", "151658.327500", "151659.115000", "151659.902500", "151700.690000", "151701.480000", "151702.267500", "151703.055000", "151703.842500", "151704.632500", "151705.420000", "151706.207500", "151706.997500", "151707.785000", "151708.572500", "151709.360000", "151710.150000", "151710.937500", "151711.725000", "151712.512500", "151713.302500", "151714.090000", "151714.877500", "151715.665000", "151716.455000", "151717.242500", "151718.030000", "151718.817500", "151719.607500", "151720.395000", "151721.182500", "151721.970000", "151722.760000", "151723.547500", "151724.335000", "151725.125000", "151725.912500", "151726.700000", "151727.487500", "151728.277500", "151729.065000", "151729.852500", "151730.640000", "151731.430000", "151732.217500", "151733.005000", "151733.792500", "151734.582500", "151735.370000", "151736.157500", "151736.945000", "151737.735000", "151738.522500", "151739.310000", "151740.097500", "151740.887500", "151741.675000", "151742.462500", "151743.252500", "151744.040000", "151744.827500", "151745.615000", "151746.405000", "151747.192500", "151747.980000", "151748.767500", "151749.557500", "151750.345000", "151751.132500", "151751.920000", "151752.710000", "151753.497500", "151754.285000", "151755.072500", "151755.862500", "151756.650000", "151757.437500", "151758.225000", "151759.015000", "151759.802500", "151800.590000", "151801.380000", "151802.167500", "151802.955000", "151803.742500", "151804.532500", "151805.320000", "151806.107500", "151806.895000", "151807.685000", "151808.472500", "151809.260000", "151810.047500", "151810.837500", "151811.625000", "151812.412500", "151813.200000", "151813.990000", "151814.777500", "151815.565000", "151816.352500", "151817.142500", "151817.930000", "151818.717500", "151819.507500", "151820.295000", "151821.082500", "151821.870000", "151822.660000", "151823.447500", "151824.235000", "151825.022500", "151825.812500", "151826.600000", "151827.387500", "151828.175000", "151828.965000", "151829.752500", "151830.540000", "151831.327500", "151832.117500", "151832.905000", "151833.692500", "151834.480000", "151835.270000", "151836.057500", "151836.845000", "151837.635000", "151838.422500", "151839.210000", "151839.997500", "151840.787500", "151841.575000", "151842.362500", "151843.150000", "151843.940000", "151844.727500", "151845.515000", "151846.302500", "151847.092500", "151847.880000", "151848.667500", "151849.455000", "151850.245000", "151851.032500", "151851.820000"],
      "ContentTime": ["151133.203000", "151133.218000", "151133.218000", "151133.218000", "151133.218000", "151133.218000", "151133.218000", "151133.234000", "151133.234000", "151133.234000", "151133.234000", "151133.234000", "151133.234000", "151133.250000", "151133.250000", "151133.250000", "151133.250000", "151133.250000", "151133.250000", "151133.265000", "151133.265000", "151153.187000", "151153.187000", "151153.187000", "151153.187000", "151153.187000", "151153.203000", "151153.203000", "151153.203000", "151153.203000", "151153.203000", "151153.203000", "151153.203000", "151153.218000", "151153.218000", "151153.218000", "151153.218000", "151153.218000", "151153.218000", "151153.234000", "151153.234000", "151153.234000", "151153.234000", "151153.234000", "151153.234000", "151153.234000", "151213.187000", "151213.187000", "151213.187000", "151213.187000", "151213.187000", "151213.203000", "151213.203000", "151213.203000", "151213.203000", "151213.203000", "151213.203000", "151213.203000", "151213.218000", "151213.218000", "151213.218000", "151213.218000", "151213.218000", "151213.218000", "151213.218000", "151213.234000", "151213.234000", "151213.234000", "151213.234000", "151213.234000", "151213.234000", "151213.234000", "151233.187000", "151233.187000", "151233.187000", "151233.187000", "151233.187000", "151233.203000", "151233.203000", "151233.203000", "151233.203000", "151233.203000", "151233.203000", "151233.203000", "151233.218000", "151233.218000", "151233.218000", "151233.218000", "151233.218000", "151233.218000", "151233.218000", "151233.234000", "151233.234000", "151233.234000", "151233.234000", "151233.250000", "151233.250000", "151253.187000", "151253.187000", "151253.187000", "151253.203000", "151253.203000", "151253.203000", "151253.203000", "151253.203000", "151253.203000", "151253.203000", "151253.218000", "151253.218000", "151253.218000", "151253.218000", "151253.218000", "151253.218000", "151253.234000", "151253.234000", "151253.234000", "151253.234000", "151253.234000", "151253.234000", "151253.234000", "151253.250000", "151253.250000", "151253.250000", "151313.187000", "151313.187000", "151313.187000", "151313.187000", "151313.187000", "151313.203000", "151313.203000", "151313.203000", "151313.203000", "151313.203000", "151313.203000", "151313.203000", "151313.218000", "151313.218000", "151313.218000", "151313.218000", "151313.218000", "151313.218000", "151313.218000", "151313.234000", "151313.234000", "151313.234000", "151313.234000", "151313.234000", "151313.234000", "151333.187000", "151333.187000", "151333.187000", "151333.187000", "151333.187000", "151333.203000", "151333.203000", "151333.203000", "151333.203000", "151333.203000", "151333.203000", "151333.203000", "151333.218000", "151333.218000", "151333.218000", "151333.218000", "151333.218000", "151333.218000", "151333.234000", "151333.234000", "151333.234000", "151333.234000", "151333.234000", "151333.234000", "151333.250000", "151353.187000", "151353.187000", "151353.187000", "151353.203000", "151353.203000", "151353.203000", "151353.203000", "151353.203000", "151353.203000", "151353.203000", "151353.218000", "151353.218000", "151353.218000", "151353.218000", "151353.218000", "151353.218000", "151353.218000", "151353.234000", "151353.234000", "151353.234000", "151353.234000", "151353.234000", "151353.234000", "151353.250000", "151353.250000", "151353.250000", "151413.187000", "151413.187000", "151413.187000", "151413.187000", "151413.187000", "151413.203000", "151413.203000", "151413.203000", "151413.203000", "151413.203000", "151413.203000", "151413.203000", "151413.218000", "151413.218000", "151413.218000", "151413.218000", "151413.218000", "151413.218000", "151413.234000", "151413.234000", "151413.234000", "151413.234000", "151413.234000", "151413.250000", "151413.250000", "151433.187000", "151433.187000", "151433.187000", "151433.187000", "151433.187000", "151433.203000", "151433.203000", "151433.203000", "151433.203000", "151433.203000", "151433.203000", "151433.203000", "151433.218000", "151433.218000", "151433.218000", "151433.218000", "151433.218000", "151433.218000", "151433.218000", "151433.234000", "151433.234000", "151433.234000", "151433.234000", "151433.234000", "151433.234000", "151433.250000", "151453.187000", "151453.187000", "151453.187000", "151453.187000", "151453.203000", "151453.203000", "151453.203000", "151453.203000", "151453.203000", "151453.203000", "151453.203000", "151453.218000", "151453.218000", "151453.218000", "151453.218000", "151453.218000", "151453.218000", "151453.234000", "151453.234000", "151453.234000", "151453.234000", "151453.234000", "151453.234000", "151453.250000", "151453.250000", "151513.187000", "151513.187000", "151513.187000", "151513.187000", "151513.187000", "151513.203000", "151513.203000", "151513.203000", "151513.203000", "151513.203000", "151513.203000", "151513.203000", "151513.218000", "151513.218000", "151513.218000", "151513.218000", "151513.218000", "151513.218000", "151513.234000", "151513.234000", "151513.234000", "151513.234000", "151513.234000", "151513.234000", "151513.250000", "151513.250000", "151533.187000", "151533.187000", "151533.187000", "151533.187000", "151533.187000", "151533.203000", "151533.203000", "151533.203000", "151533.203000", "151533.203000", "151533.203000", "151533.203000", "151533.218000", "151533.218000", "151533.218000", "151533.218000", "151533.218000", "151533.218000", "151533.234000", "151533.234000", "151533.234000", "151533.234000", "151533.234000", "151533.234000", "151533.250000", "151553.187000", "151553.187000", "151553.187000", "151553.187000", "151553.187000", "151553.203000", "151553.203000", "151553.203000", "151553.203000", "151553.203000", "151553.203000", "151553.203000", "151553.218000", "151553.218000", "151553.218000", "151553.218000", "151553.218000", "151553.218000", "151553.218000", "151553.234000", "151553.234000", "151553.234000", "151553.234000", "151553.234000", "151553.234000", "151553.250000", "151613.187000", "151613.187000", "151613.187000", "151613.187000", "151613.187000", "151613.203000", "151613.203000", "151613.203000", "151613.203000", "151613.203000", "151613.203000", "151613.203000", "151613.218000", "151613.218000", "151613.218000", "151613.218000", "151613.218000", "151613.218000", "151613.218000", "151613.234000", "151613.234000", "151613.234000", "151613.234000", "151613.234000", "151613.234000", "151633.187000", "151633.187000", "151633.187000", "151633.187000", "151633.187000", "151633.203000", "151633.203000", "151633.203000", "151633.203000", "151633.203000", "151633.203000", "151633.203000", "151633.218000", "151633.218000", "151633.218000", "151633.218000", "151633.218000", "151633.218000", "151633.218000", "151633.234000", "151633.234000", "151633.234000", "151633.234000", "151633.234000", "151633.234000", "151633.234000", "151653.187000", "151653.187000", "151653.187000", "151653.187000", "151653.187000", "151653.203000", "151653.203000", "151653.203000", "151653.203000", "151653.203000", "151653.203000", "151653.203000", "151653.218000", "151653.218000", "151653.218000", "151653.218000", "151653.218000", "151653.218000", "151653.218000", "151653.234000", "151653.234000", "151653.234000", "151653.234000", "151653.234000", "151653.234000", "151713.187000", "151713.187000", "151713.187000", "151713.187000", "151713.187000", "151713.203000", "151713.203000", "151713.203000", "151713.203000", "151713.203000", "151713.203000", "151713.203000", "151713.218000", "151713.218000", "151713.218000", "151713.218000", "151713.218000", "151713.218000", "151713.234000", "151713.234000", "151713.234000", "151713.234000", "151713.234000", "151713.234000", "151713.250000", "151713.250000", "151733.187000", "151733.187000", "151733.187000", "151733.187000", "151733.187000", "151733.203000", "151733.203000", "151733.203000", "151733.203000", "151733.203000", "151733.203000", "151733.203000", "151733.218000", "151733.218000", "151733.218000", "151733.218000", "151733.218000", "151733.218000", "151733.218000", "151733.234000", "151733.234000", "151733.234000", "151733.234000", "151733.234000", "151733.234000", "151753.187000", "151753.187000", "151753.187000", "151753.187000", "151753.187000", "151753.203000", "151753.203000", "151753.203000", "151753.203000", "151753.203000", "151753.203000", "151753.203000", "151753.218000", "151753.218000", "151753.218000", "151753.218000", "151753.218000", "151753.218000", "151753.218000", "151753.234000", "151753.234000", "151753.234000", "151753.234000", "151753.234000", "151753.234000", "151753.234000", "151813.187000", "151813.187000", "151813.187000", "151813.187000", "151813.187000", "151813.203000", "151813.203000", "151813.203000", "151813.203000", "151813.203000", "151813.203000", "151813.203000", "151813.218000", "151813.218000", "151813.218000", "151813.218000", "151813.218000", "151813.218000", "151813.218000", "151813.234000", "151813.234000", "151813.234000", "151813.234000", "151813.234000", "151813.234000", "151833.187000", "151833.187000", "151833.187000", "151833.187000", "151833.203000", "151833.203000", "151833.203000", "151833.203000", "151833.203000", "151833.203000", "151833.218000", "151833.218000", "151833.218000", "151833.218000", "151833.218000", "151833.218000", "151833.218000", "151833.234000", "151833.234000", "151833.234000", "151833.234000", "151833.234000", "151833.234000", "151833.250000", "151833.250000", "151833.250000", "151852.750000", "151852.750000", "151852.750000", "151852.750000", "151852.750000", "151852.750000", "151852.765000", "151852.765000", "151852.765000", "151852.765000", "151852.765000", "151852.765000", "151852.781000", "151852.781000", "151852.781000", "151852.781000", "151852.781000", "151852.781000", "151852.796000", "151852.796000", "151852.796000", "151852.796000", "151852.796000", "151852.796000", "151852.796000"],
