{
  "AcquisitionMatrixPE": 104,
  "AcquisitionNumber": 1,
  "AcquisitionTime": "15:03:7.752500",
  "BandwidthPerPixelPhaseEncode": 13.935,
  "BaseResolution": 104,
  "CoilString": "C:HEA;HEP",
  "ConversionSoftware": "dcm2niix",
  "ConversionSoftwareVersion": "v1.0.20210317",
  "DerivedVendorReportedEchoSpacing": 0.000690017,
  "DeviceSerialNumber": "35450",
  "DwellTime": 2.5e-06,
  "EchoTime": 0.0348,
  "EffectiveEchoSpacing": 0.000690017,
  "FlipAngle": 55,
  "ImageComments": "Unaliased MB8/PE3 (remote)",
  "ImageOrientationPatientDICOM": [1, 0, 0, 0, 0.979223, -0.202787],
  "ImageType": [
    "ORIGINAL",
    "PRIMARY",
    "M",
    "MB",
    "ND",
    "MOSAIC"
],
  "ImagingFrequency": 123.234,
  "InPlanePhaseEncodingDirectionDICOM": "COL",
  "InstitutionAddress": "Univeristy Ave. 197,Newark,North East,US,07102-1814",
  "InstitutionName": "RUBIC",
  "InstitutionalDepartmentName": "Department",
  "MRAcquisitionType": "2D",
  "MagneticFieldStrength": 3,
  "Manufacturer": "Siemens",
  "ManufacturersModelName": "TrioTim",
  "Modality": "MR",
  "MultibandAccelerationFactor": 8,
  "PartialFourier": 0.875,
  "PatientPosition": "HFS",
  "PercentPhaseFOV": 100,
  "PercentSampling": 100,
  "PhaseEncodingDirection": "j-",
  "PhaseEncodingSteps": 91,
  "PhaseResolution": 1,
  "PixelBandwidth": 1923,
  "ProcedureStepDescription": "Cole^Michael",
  "ProtocolName": "cmrr_mbep2d_bold_2mm_MB8_Task_8x",
  "PulseSequenceDetails": "%CustomerSeq%\\cmrr_mbep2d_bold",
  "ReceiveCoilName": "32Ch_Head",
  "ReconMatrixPE": 104,
  "RepetitionTime": 0.785,
  "SAR": 0.121652,
  "ScanOptions": "PFP\\FS",
  "ScanningSequence": "EP",
  "SequenceName": "epfid2d1_104",
  "SequenceVariant": "SK\\SS",
  "SeriesDescription": "cmrr_mbep2d_bold_2mm_MB8_Task_8x",
  "SeriesNumber": 17,
  "ShimSetting": [2087, -324, -7176, 334, 97, -254, -66, -31],
  "SliceThickness": 2,
  "SliceTiming": [0, 0.4375, 0.0875, 0.525, 0.175, 0.6125, 0.2625, 0.7, 0.35, 0, 0.4375, 0.0875, 0.525, 0.175, 0.6125, 0.2625, 0.7, 0.35, 0, 0.4375, 0.0875, 0.525, 0.175, 0.6125, 0.2625, 0.7, 0.35, 0, 0.4375, 0.0875, 0.525, 0.175, 0.6125, 0.2625, 0.7, 0.35, 0, 0.4375, 0.0875, 0.525, 0.175, 0.6125, 0.2625, 0.7, 0.35, 0, 0.4375, 0.0875, 0.525, 0.175, 0.6125, 0.2625, 0.7, 0.35, 0, 0.4375, 0.0875, 0.525, 0.175, 0.6125, 0.2625, 0.7, 0.35, 0, 0.4375, 0.0875, 0.525, 0.175, 0.6125, 0.2625, 0.7, 0.35],
  "SoftwareVersions": "syngo MR B19",
  "SpacingBetweenSlices": 2,
  "StationName": "MRC35450",
  "TaskName": "cpro",
  "TotalReadoutTime": 0.0710717,
  "TxRefAmp": 328.352,
  "dcmmeta_affine": [
    [-2.0, 0.0, 0.0, 104.67796325683594],
    [0.0, 1.95844566822052, -0.4055745601654053, -74.50532531738281],
    [0.0, 0.4055745601654053, 1.95844566822052, -111.32870483398438],
    [0.0, 0.0, 0.0, 1.0]
],
  "dcmmeta_reorient_transform": [
    [0.0, -1.0, 0.0, 103.0],
    [1.0, 0.0, 0.0, 0.0],
    [0.0, 0.0, 1.0, 0.0],
    [0.0, 0.0, 0.0, 1.0]
],
  "dcmmeta_shape": [104, 104, 72, 581],
  "dcmmeta_slice_dim": 2,
  "dcmmeta_version": 0.6,
  "global": {
    "const": {
      "AcquisitionMatrix": [104, 0, 0, 104],
      "AngioFlag": "N",
      "BitsAllocated": 16,
      "BitsStored": 12,
      "Columns": 936,
      "EchoNumbers": 1,
      "EchoTime": 34.8,
      "EchoTrainLength": 1,
      "FlipAngle": 55.0,
      "HighBit": 11,
      "ImageOrientationPatient": [1.0, 0.0, 0.0, 0.0, 0.97922281297031, -0.2027872840158],
      "ImagePositionPatient": [-936.67796611786, -941.92795729812, 99.164496288505],
      "ImageType": [
        "ORIGINAL",
        "PRIMARY",
        "M",
        "MB",
        "ND",
        "MOSAIC"
],
      "ImagedNucleus": "1H",
      "ImagingFrequency": 123.234473,
      "InPlanePhaseEncodingDirection": "COL",
      "MRAcquisitionType": "2D",
      "MagneticFieldStrength": 3.0,
      "Manufacturer": "SIEMENS",
      "ManufacturerModelName": "TrioTim",
      "Modality": "MR",
      "NumberOfAverages": 1.0,
      "NumberOfPhaseEncodingSteps": 91,
      "PercentPhaseFieldOfView": 100.0,
      "PercentSampling": 100.0,
      "PerformedProcedureStepStartTime": "133754.000000",
      "PhotometricInterpretation": "MONOCHROME2",
      "PixelBandwidth": 1923.0,
      "PixelRepresentation": 0,
      "PixelSpacing": [2.0, 2.0],
      "ProtocolName": "cmrr_mbep2d_bold_2mm_MB8_Task_8x",
      "RepetitionTime": 785.0,
      "Rows": 936,
      "SAR": 0.1216519987062,
      "SamplesPerPixel": 1,
      "ScanOptions": [
        "PFP",
        "FS"
],
      "ScanningSequence": "EP",
      "SequenceName": "epfid2d1_104",
      "SequenceVariant": [
        "SK",
        "SS"
],
      "SeriesDescription": "cmrr_mbep2d_bold_2mm_MB8_Task_8x",
      "SeriesNumber": 17,
      "SeriesTime": "150329.921000",
      "SliceLocation": -93.906875196632,
      "SliceThickness": 2.0,
      "SmallestImagePixelValue": 0,
      "SoftwareVersions": "syngo MR B19",
      "SpacingBetweenSlices": 2.000000023316,
      "SpecificCharacterSet": "ISO_IR 100",
      "StudyID": "1",
      "StudyTime": "133753.953000",
      "TransmitCoilName": "Body",
      "VariableFlipAngleFlag": "N",
      "WindowCenterWidthExplanation": "Algo1",
      "dBdt": 0.0},
    "slices": {}
  },
  "time": {
    "samples": {
      "AcquisitionNumber": [1, 2, 3, 4, 5, 6, 7, 8, 9, 10, 11, 12, 13, 14, 15, 16, 17, 18, 19, 20, 21, 22, 23, 24, 25, 26, 27, 28, 29, 30, 31, 32, 33, 34, 35, 36, 37, 38, 39, 40, 41, 42, 43, 44, 45, 46, 47, 48, 49, 50, 51, 52, 53, 54, 55, 56, 57, 58, 59, 60, 61, 62, 63, 64, 65, 66, 67, 68, 69, 70, 71, 72, 73, 74, 75, 76, 77, 78, 79, 80, 81, 82, 83, 84, 85, 86, 87, 88, 89, 90, 91, 92, 93, 94, 95, 96, 97, 98, 99, 100, 101, 102, 103, 104, 105, 106, 107, 108, 109, 110, 111, 112, 113, 114, 115, 116, 117, 118, 119, 120, 121, 122, 123, 124, 125, 126, 127, 128, 129, 130, 131, 132, 133, 134, 135, 136, 137, 138, 139, 140, 141, 142, 143, 144, 145, 146, 147, 148, 149, 150, 151, 152, 153, 154, 155, 156, 157, 158, 159, 160, 161, 162, 163, 164, 165, 166, 167, 168, 169, 170, 171, 172, 173, 174, 175, 176, 177, 178, 179, 180, 181, 182, 183, 184, 185, 186, 187, 188, 189, 190, 191, 192, 193, 194, 195, 196, 197, 198, 199, 200, 201, 202, 203, 204, 205, 206, 207, 208, 209, 210, 211, 212, 213, 214, 215, 216, 217, 218, 219, 220, 221, 222, 223, 224, 225, 226, 227, 228, 229, 230, 231, 232, 233, 234, 235, 236, 237, 238, 239, 240, 241, 242, 243, 244, 245, 246, 247, 248, 249, 250, 251, 252, 253, 254, 255, 256, 257, 258, 259, 260, 261, 262, 263, 264, 265, 266, 267, 268, 269, 270, 271, 272, 273, 274, 275, 276, 277, 278, 279, 280, 281, 282, 283, 284, 285, 286, 287, 288, 289, 290, 291, 292, 293, 294, 295, 296, 297, 298, 299, 300, 301, 302, 303, 304, 305, 306, 307, 308, 309, 310, 311, 312, 313, 314, 315, 316, 317, 318, 319, 320, 321, 322, 323, 324, 325, 326, 327, 328, 329, 330, 331, 332, 333, 334, 335, 336, 337, 338, 339, 340, 341, 342, 343, 344, 345, 346, 347, 348, 349, 350, 351, 352, 353, 354, 355, 356, 357, 358, 359, 360, 361, 362, 363, 364, 365, 366, 367, 368, 369, 370, 371, 372, 373, 374, 375, 376, 377, 378, 379, 380, 381, 382, 383, 384, 385, 386, 387, 388, 389, 390, 391, 392, 393, 394, 395, 396, 397, 398, 399, 400, 401, 402, 403, 404, 405, 406, 407, 408, 409, 410, 411, 412, 413, 414, 415, 416, 417, 418, 419, 420, 421, 422, 423, 424, 425, 426, 427, 428, 429, 430, 431, 432, 433, 434, 435, 436, 437, 438, 439, 440, 441, 442, 443, 444, 445, 446, 447, 448, 449, 450, 451, 452, 453, 454, 455, 456, 457, 458, 459, 460, 461, 462, 463, 464, 465, 466, 467, 468, 469, 470, 471, 472, 473, 474, 475, 476, 477, 478, 479, 480, 481, 482, 483, 484, 485, 486, 487, 488, 489, 490, 491, 492, 493, 494, 495, 496, 497, 498, 499, 500, 501, 502, 503, 504, 505, 506, 507, 508, 509, 510, 511, 512, 513, 514, 515, 516, 517, 518, 519, 520, 521, 522, 523, 524, 525, 526, 527, 528, 529, 530, 531, 532, 533, 534, 535, 536, 537, 538, 539, 540, 541, 542, 543, 544, 545, 546, 547, 548, 549, 550, 551, 552, 553, 554, 555, 556, 557, 558, 559, 560, 561, 562, 563, 564, 565, 566, 567, 568, 569, 570, 571, 572, 573, 574, 575, 576, 577, 578, 579, 580, 581],
      "AcquisitionTime": ["150307.752500", "150308.540000", "150309.330000", "150310.117500", "150310.905000", "150311.692500", "150312.482500", "150313.270000", "150314.057500", "150314.845000", "150315.635000", "150316.422500", "150317.210000", "150317.997500", "150318.787500", "150319.575000", "150320.362500", "150321.150000", "150321.940000", "150322.727500", "150323.515000", "150324.302500", "150325.092500", "150325.880000", "150326.667500", "150327.457500", "150328.245000", "150329.032500", "150329.820000", "150330.610000", "150331.397500", "150332.185000", "150332.972500", "150333.762500", "150334.550000", "150335.337500", "150336.125000", "150336.915000", "150337.702500", "150338.490000", "150339.277500", "150340.067500", "150340.855000", "150341.642500", "150342.430000", "150343.220000", "150344.007500", "150344.795000", "150345.585000", "150346.372500", "150347.160000", "150347.947500", "150348.737500", "150349.525000", "150350.312500", "150351.100000", "150351.890000", "150352.677500", "150353.465000", "150354.252500", "150355.042500", "150355.830000", "150356.617500", "150357.405000", "150358.195000", "150358.982500", "150359.770000", "150400.557500", "150401.347500", "150402.135000", "150402.922500", "150403.712500", "150404.500000", "150405.287500", "150406.075000", "150406.865000", "150407.652500", "150408.440000", "150409.227500", "150410.017500", "150410.805000", "150411.592500", "150412.380000", "150413.170000", "150413.957500", "150414.745000", "150415.532500", "150416.322500", "150417.110000", "150417.897500", "150418.687500", "150419.475000", "150420.262500", "150421.050000", "150421.840000", "150422.627500", "150423.415000", "150424.202500", "150424.992500", "150425.780000", "150426.567500", "150427.355000", "150428.145000", "150428.932500", "150429.720000", "150430.507500", "150431.297500", "150432.085000", "150432.872500", "150433.660000", "150434.450000", "150435.237500", "150436.025000", "150436.815000", "150437.602500", "150438.390000", "150439.177500", "150439.967500", "150440.755000", "150441.542500", "150442.330000", "150443.120000", "150443.907500", "150444.695000", "150445.482500", "150446.272500", "150447.060000", "150447.847500", "150448.635000", "150449.425000", "150450.212500", "150451.000000", "150451.787500", "150452.577500", "150453.365000", "150454.152500", "150454.942500", "150455.730000", "150456.517500", "150457.305000", "150458.095000", "150458.882500", "150459.670000", "150500.457500", "150501.247500", "150502.035000", "150502.822500", "150503.610000", "150504.400000", "150505.187500", "150505.975000", "150506.762500", "150507.552500", "150508.340000", "150509.127500", "150509.915000", "150510.705000", "150511.492500", "150512.280000", "150513.070000", "150513.857500", "150514.645000", "150515.432500", "150516.222500", "150517.010000", "150517.797500", "150518.585000", "150519.375000", "150520.162500", "150520.950000", "150521.737500", "150522.527500", "150523.315000", "150524.102500", "150524.890000", "150525.680000", "150526.467500", "150527.255000", "150528.042500", "150528.832500", "150529.620000", "150530.407500", "150531.197500", "150531.985000", "150532.772500", "150533.560000", "150534.350000", "150535.137500", "150535.925000", "150536.712500", "150537.502500", "150538.290000", "150539.077500", "150539.865000", "150540.655000", "150541.442500", "150542.230000", "150543.017500", "150543.807500", "150544.595000", "150545.382500", "150546.170000", "150546.960000", "150547.747500", "150548.535000", "150549.325000", "150550.112500", "150550.900000", "150551.687500", "150552.477500", "150553.265000", "150554.052500", "150554.840000", "150555.630000", "150556.417500", "150557.205000", "150557.992500", "150558.782500", "150559.570000", "150600.357500", "150601.145000", "150601.935000", "150602.722500", "150603.510000", "150604.297500", "150605.087500", "150605.875000", "150606.662500", "150607.452500", "150608.240000", "150609.027500", "150609.815000", "150610.605000", "150611.392500", "150612.180000", "150612.967500", "150613.757500", "150614.545000", "150615.332500", "150616.120000", "150616.910000", "150617.697500", "150618.485000", "150619.272500", "150620.062500", "150620.850000", "150621.637500", "150622.425000", "150623.215000", "150624.002500", "150624.790000", "150625.580000", "150626.367500", "150627.155000", "150627.942500", "150628.732500", "150629.520000", "150630.307500", "150631.095000", "150631.885000", "150632.672500", "150633.460000", "150634.247500", "150635.037500", "150635.825000", "150636.612500", "150637.400000", "150638.190000", "150638.977500", "150639.765000", "150640.552500", "150641.342500", "150642.130000", "150642.917500", "150643.707500", "150644.495000", "150645.282500", "150646.070000", "150646.860000", "150647.647500", "150648.435000", "150649.222500", "150650.012500", "150650.800000", "150651.587500", "150652.375000", "150653.165000", "150653.952500", "150654.740000", "150655.527500", "150656.317500", "150657.105000", "150657.892500", "150658.680000", "150659.470000", "150700.257500", "150701.045000", "150701.835000", "150702.622500", "150703.410000", "150704.197500", "150704.987500", "150705.775000", "150706.562500", "150707.350000", "150708.140000", "150708.927500", "150709.715000", "150710.502500", "150711.292500", "150712.080000", "150712.867500", "150713.655000", "150714.445000", "150715.232500", "150716.020000", "150716.807500", "150717.597500", "150718.385000", "150719.172500", "150719.962500", "150720.750000", "150721.537500", "150722.325000", "150723.115000", "150723.902500", "150724.690000", "150725.477500", "150726.267500", "150727.055000", "150727.842500", "150728.630000", "150729.420000", "150730.207500", "150730.995000", "150731.782500", "150732.572500", "150733.360000", "150734.147500", "150734.937500", "150735.725000", "150736.512500", "150737.300000", "150738.090000", "150738.877500", "150739.665000", "150740.452500", "150741.242500", "150742.030000", "150742.817500", "150743.605000", "150744.395000", "150745.182500", "150745.970000", "150746.757500", "150747.547500", "150748.335000", "150749.122500", "150749.910000", "150750.700000", "150751.487500", "150752.275000", "150753.065000", "150753.852500", "150754.640000", "150755.427500", "150756.217500", "150757.005000", "150757.792500", "150758.580000", "150759.370000", "150800.157500", "150800.945000", "150801.732500", "150802.522500", "150803.310000", "150804.097500", "150804.885000", "150805.675000", "150806.462500", "150807.250000", "150808.037500", "150808.827500", "150809.615000", "150810.402500", "150811.192500", "150811.980000", "150812.767500", "150813.555000", "150814.345000", "150815.132500", "150815.920000", "150816.707500", "150817.497500", "150818.285000", "150819.072500", "150819.860000", "150820.650000", "150821.437500", "150822.225000", "150823.012500", "150823.802500", "150824.590000", "150825.377500", "150826.165000", "150826.955000", "150827.742500", "150828.530000", "150829.320000", "150830.107500", "150830.895000", "150831.682500", "150832.472500", "150833.260000", "150834.047500", "150834.835000", "150835.625000", "150836.412500", "150837.200000", "150837.987500", "150838.777500", "150839.565000", "150840.352500", "150841.140000", "150841.930000", "150842.717500", "150843.505000", "150844.292500", "150845.082500", "150845.870000", "150846.657500", "150847.447500", "150848.235000", "150849.022500", "150849.810000", "150850.600000", "150851.387500", "150852.175000", "150852.962500", "150853.752500", "150854.540000", "150855.327500", "150856.115000", "150856.905000", "150857.692500", "150858.480000", "150859.267500", "150900.057500", "150900.845000", "150901.632500", "150902.420000", "150903.210000", "150903.997500", "150904.785000", "150905.575000", "150906.362500", "150907.150000", "150907.937500", "150908.727500", "150909.515000", "150910.302500", "150911.090000", "150911.880000", "150912.667500", "150913.455000", "150914.242500", "150915.032500", "150915.820000", "150916.607500", "150917.395000", "150918.185000", "150918.972500", "150919.760000", "150920.547500", "150921.337500", "150922.125000", "150922.912500", "150923.702500", "150924.490000", "150925.277500", "150926.065000", "150926.855000", "150927.642500", "150928.430000", "150929.217500", "150930.007500", "150930.795000", "150931.582500", "150932.370000", "150933.160000", "150933.947500", "150934.735000", "150935.522500", "150936.312500", "150937.100000", "150937.887500", "150938.675000", "150939.465000", "150940.252500", "150941.040000", "150941.830000", "150942.617500", "150943.405000", "150944.192500", "150944.982500", "150945.770000", "150946.557500", "150947.345000", "150948.135000", "150948.922500", "150949.710000", "150950.497500", "150951.287500", "150952.075000", "150952.862500", "150953.650000", "150954.440000", "150955.227500", "150956.015000", "150956.802500", "150957.592500", "150958.380000", "150959.167500", "150959.957500", "151000.745000", "151001.532500", "151002.320000", "151003.110000", "151003.897500", "151004.685000", "151005.472500", "151006.262500", "151007.050000", "151007.837500", "151008.625000", "151009.415000", "151010.202500", "151010.990000", "151011.777500", "151012.567500", "151013.355000", "151014.142500", "151014.930000", "151015.720000", "151016.507500", "151017.295000", "151018.085000", "151018.872500", "151019.660000", "151020.447500", "151021.237500", "151022.025000", "151022.812500", "151023.600000", "151024.390000", "151025.177500", "151025.965000", "151026.752500", "151027.542500", "151028.330000", "151029.117500", "151029.905000", "151030.695000", "151031.482500", "151032.270000", "151033.057500", "151033.847500", "151034.635000", "151035.422500", "151036.212500", "151037.000000", "151037.787500", "151038.575000", "151039.365000", "151040.152500", "151040.940000", "151041.727500", "151042.517500", "151043.305000", "151044.092500", "151044.880000"],
      "ContentTime": ["150329.921000", "150329.921000", "150329.937000", "150329.937000", "150329.937000", "150329.937000", "150329.937000", "150329.937000", "150329.953000", "150329.953000", "150329.953000", "150329.968000", "150329.968000", "150329.968000", "150329.968000", "150329.968000", "150329.968000", "150329.968000", "150329.984000", "150329.984000", "150329.984000", "150329.984000", "150329.984000", "150329.984000", "150329.984000", "150349.906000", "150349.906000", "150349.906000", "150349.906000", "150349.906000", "150349.921000", "150349.921000", "150349.921000", "150349.921000", "150349.921000", "150349.921000", "150349.921000", "150349.937000", "150349.937000", "150349.937000", "150349.937000", "150349.937000", "150349.937000", "150349.937000", "150349.953000", "150349.953000", "150349.953000", "150349.953000", "150349.953000", "150349.953000", "150349.968000", "150409.906000", "150409.906000", "150409.906000", "150409.906000", "150409.906000", "150409.921000", "150409.921000", "150409.921000", "150409.921000", "150409.921000", "150409.921000", "150409.921000", "150409.937000", "150409.937000", "150409.937000", "150409.937000", "150409.937000", "150409.937000", "150409.937000", "150409.953000", "150409.953000", "150409.953000", "150409.953000", "150409.953000", "150409.953000", "150429.906000", "150429.906000", "150429.906000", "150429.906000", "150429.921000", "150429.921000", "150429.921000", "150429.921000", "150429.921000", "150429.921000", "150429.937000", "150429.937000", "150429.937000", "150429.937000", "150429.937000", "150429.953000", "150429.953000", "150429.953000", "150429.953000", "150429.953000", "150429.953000", "150429.953000", "150429.968000", "150429.968000", "150429.968000", "150429.968000", "150449.906000", "150449.906000", "150449.906000", "150449.906000", "150449.906000", "150449.921000", "150449.921000", "150449.921000", "150449.921000", "150449.921000", "150449.921000", "150449.921000", "150449.937000", "150449.937000", "150449.937000", "150449.937000", "150449.937000", "150449.937000", "150449.937000", "150449.953000", "150449.953000", "150449.953000", "150449.953000", "150449.953000", "150449.953000", "150509.906000", "150509.906000", "150509.906000", "150509.906000", "150509.906000", "150509.921000", "150509.921000", "150509.921000", "150509.921000", "150509.921000", "150509.921000", "150509.921000", "150509.937000", "150509.937000", "150509.937000", "150509.937000", "150509.937000", "150509.937000", "150509.937000", "150509.953000", "150509.953000", "150509.953000", "150509.953000", "150509.953000", "150509.953000", "150509.968000", "150529.906000", "150529.906000", "150529.906000", "150529.906000", "150529.906000", "150529.921000", "150529.921000", "150529.921000", "150529.921000", "150529.921000", "150529.921000", "150529.921000", "150529.937000", "150529.937000", "150529.937000", "150529.937000", "150529.937000", "150529.937000", "150529.937000", "150529.953000", "150529.953000", "150529.953000", "150529.953000", "150529.953000", "150529.953000", "150549.906000", "150549.906000", "150549.906000", "150549.906000", "150549.921000", "150549.921000", "150549.921000", "150549.921000", "150549.921000", "150549.921000", "150549.921000", "150549.937000", "150549.937000", "150549.937000", "150549.937000", "150549.937000", "150549.953000", "150549.953000", "150549.953000", "150549.953000", "150549.953000", "150549.953000", "150549.953000", "150549.968000", "150549.968000", "150549.968000", "150609.906000", "150609.906000", "150609.906000", "150609.906000", "150609.906000", "150609.921000", "150609.921000", "150609.921000", "150609.921000", "150609.921000", "150609.921000", "150609.921000", "150609.937000", "150609.937000", "150609.937000", "150609.937000", "150609.937000", "150609.937000", "150609.937000", "150609.953000", "150609.953000", "150609.953000", "150609.953000", "150609.953000", "150609.953000", "150629.906000", "150629.906000", "150629.906000", "150629.906000", "150629.906000", "150629.921000", "150629.921000", "150629.921000", "150629.921000", "150629.921000", "150629.921000", "150629.921000", "150629.937000", "150629.937000", "150629.937000", "150629.937000", "150629.937000", "150629.937000", "150629.937000", "150629.953000", "150629.953000", "150629.953000", "150629.953000", "150629.953000", "150629.953000", "150629.968000", "150649.906000", "150649.906000", "150649.906000", "150649.906000", "150649.906000", "150649.921000", "150649.921000", "150649.921000", "150649.921000", "150649.921000", "150649.921000", "150649.921000", "150649.937000", "150649.937000", "150649.937000", "150649.937000", "150649.937000", "150649.937000", "150649.937000", "150649.953000", "150649.953000", "150649.953000", "150649.953000", "150649.953000", "150649.953000", "150709.906000", "150709.906000", "150709.906000", "150709.906000", "150709.906000", "150709.921000", "150709.921000", "150709.921000", "150709.921000", "150709.921000", "150709.921000", "150709.921000", "150709.937000", "150709.937000", "150709.937000", "150709.937000", "150709.937000", "150709.937000", "150709.937000", "150709.953000", "150709.953000", "150709.953000", "150709.953000", "150709.953000", "150709.953000", "150709.953000", "150729.906000", "150729.906000", "150729.906000", "150729.906000", "150729.906000", "150729.921000", "150729.921000", "150729.921000", "150729.921000", "150729.921000", "150729.921000", "150729.921000", "150729.937000", "150729.937000", "150729.937000", "150729.937000", "150729.937000", "150729.937000", "150729.937000", "150729.953000", "150729.953000", "150729.953000", "150729.953000", "150729.953000", "150729.953000", "150749.906000", "150749.906000", "150749.906000", "150749.906000", "150749.906000", "150749.921000", "150749.921000", "150749.921000", "150749.921000", "150749.921000", "150749.921000", "150749.921000", "150749.937000", "150749.937000", "150749.937000", "150749.937000", "150749.937000", "150749.953000", "150749.953000", "150749.953000", "150749.953000", "150749.953000", "150749.953000", "150749.953000", "150749.968000", "150809.906000", "150809.906000", "150809.906000", "150809.906000", "150809.906000", "150809.921000", "150809.921000", "150809.921000", "150809.921000", "150809.937000", "150809.937000", "150809.937000", "150809.937000", "150809.937000", "150809.937000", "150809.953000", "150809.953000", "150809.953000", "150809.953000", "150809.953000", "150809.953000", "150809.953000", "150809.968000", "150809.968000", "150809.968000", "150809.968000", "150829.906000", "150829.906000", "150829.906000", "150829.906000", "150829.906000", "150829.921000", "150829.921000", "150829.921000", "150829.921000", "150829.921000", "150829.937000", "150829.937000", "150829.937000", "150829.937000", "150829.937000", "150829.937000", "150829.953000", "150829.953000", "150829.953000", "150829.953000", "150829.968000", "150829.968000", "150829.968000", "150829.968000", "150829.968000", "150849.906000", "150849.906000", "150849.906000", "150849.906000", "150849.906000", "150849.921000", "150849.921000", "150849.921000", "150849.921000", "150849.921000", "150849.921000", "150849.921000", "150849.937000", "150849.937000", "150849.937000", "150849.937000", "150849.937000", "150849.937000", "150849.953000", "150849.953000", "150849.953000", "150849.953000", "150849.953000", "150849.953000", "150849.953000", "150849.968000", "150909.906000", "150909.906000", "150909.906000", "150909.906000", "150909.906000", "150909.921000", "150909.921000", "150909.921000", "150909.921000", "150909.921000", "150909.921000", "150909.937000", "150909.937000", "150909.937000", "150909.937000", "150909.937000", "150909.937000", "150909.953000", "150909.953000", "150909.953000", "150909.953000", "150909.953000", "150909.953000", "150909.953000", "150909.968000", "150929.906000", "150929.906000", "150929.906000", "150929.906000", "150929.906000", "150929.921000", "150929.921000", "150929.921000", "150929.921000", "150929.921000", "150929.937000", "150929.937000", "150929.937000", "150929.937000", "150929.937000", "150929.937000", "150929.937000", "150929.953000", "150929.953000", "150929.953000", "150929.953000", "150929.953000", "150929.953000", "150929.953000", "150929.968000", "150929.968000", "150949.906000", "150949.906000", "150949.906000", "150949.906000", "150949.906000", "150949.921000", "150949.921000", "150949.921000", "150949.921000", "150949.921000", "150949.937000", "150949.937000", "150949.937000", "150949.937000", "150949.937000", "150949.937000", "150949.953000", "150949.953000", "150949.953000", "150949.953000", "150949.953000", "150949.953000", "150949.953000", "150949.968000", "150949.968000", "151009.906000", "151009.906000", "151009.906000", "151009.906000", "151009.906000", "151009.921000", "151009.921000", "151009.921000", "151009.921000", "151009.921000", "151009.921000", "151009.921000", "151009.937000", "151009.937000", "151009.937000", "151009.937000", "151009.937000", "151009.937000", "151009.937000", "151009.953000", "151009.953000", "151009.953000", "151009.953000", "151009.953000", "151009.953000", "151009.953000", "151029.906000", "151029.906000", "151029.906000", "151029.906000", "151029.906000", "151029.921000", "151029.921000", "151029.921000", "151029.921000", "151029.921000", "151029.921000", "151029.921000", "151029.937000", "151029.937000", "151029.937000", "151029.937000", "151029.937000", "151029.937000", "151029.953000", "151029.953000", "151029.953000", "151029.953000", "151029.953000", "151029.953000", "151029.953000", "151045.828000", "151045.828000", "151045.828000", "151045.843000", "151045.843000", "151045.843000", "151045.843000", "151045.843000", "151045.843000", "151045.843000", "151045.859000", "151045.859000", "151045.859000", "151045.859000", "151045.859000", "151045.859000", "151045.859000", "151045.875000", "151045.875000", "151045.875000", "151045.875000"],
