{
  "AcquisitionMatrixPE": 104,
  "AcquisitionNumber": 1,
  "AcquisitionTime": "16:12:18.690000",
  "BandwidthPerPixelPhaseEncode": 13.935,
  "BaseResolution": 104,
  "CoilString": "C:HEA;HEP",
  "ConversionSoftware": "dcm2niix",
  "ConversionSoftwareVersion": "v1.0.20210317",
  "DerivedVendorReportedEchoSpacing": 0.000690017,
  "DeviceSerialNumber": "35450",
  "DwellTime": 2.5e-06,
  "EchoTime": 0.0348,
  "EffectiveEchoSpacing": 0.000690017,
  "FlipAngle": 55,
  "ImageComments": "Unaliased MB8/PE3",
  "ImageOrientationPatientDICOM": [1, -0.000135443, -0.000745015, 5.74508e-08, 0.983887, -0.178793],
  "ImageType": [
    "ORIGINAL",
    "PRIMARY",
    "M",
    "MB",
    "ND",
    "MOSAIC"
],
  "ImagingFrequency": 123.235,
  "InPlanePhaseEncodingDirectionDICOM": "COL",
  "InstitutionAddress": "Univeristy Ave. 197,Newark,North East,US,07102-1814",
  "InstitutionName": "RUBIC",
  "InstitutionalDepartmentName": "Department",
  "MRAcquisitionType": "2D",
  "MagneticFieldStrength": 3,
  "Manufacturer": "Siemens",
  "ManufacturersModelName": "TrioTim",
  "Modality": "MR",
  "MultibandAccelerationFactor": 8,
  "PartialFourier": 0.875,
  "PatientPosition": "HFS",
  "PercentPhaseFOV": 100,
  "PercentSampling": 100,
  "PhaseEncodingDirection": "j-",
  "PhaseEncodingSteps": 91,
  "PhaseResolution": 1,
  "PixelBandwidth": 1923,
  "ProcedureStepDescription": "Cole^Michael",
  "ProtocolName": "cmrr_mbep2d_bold_2mm_MB8_Task_8x",
  "PulseSequenceDetails": "%CustomerSeq%\\cmrr_mbep2d_bold",
  "ReceiveCoilName": "32Ch_Head",
  "ReconMatrixPE": 104,
  "RepetitionTime": 0.785,
  "SAR": 0.120123,
  "ScanOptions": "PFP\\FS",
  "ScanningSequence": "EP",
  "SequenceName": "epfid2d1_104",
  "SequenceVariant": "SK\\SS",
  "SeriesDescription": "cmrr_mbep2d_bold_2mm_MB8_Task_8x",
  "SeriesNumber": 27,
  "ShimSetting": [2111, -403, -7489, 215, 59, -345, 228, 82],
  "SliceThickness": 2,
  "SliceTiming": [0, 0.4375, 0.0875, 0.525, 0.175, 0.6125, 0.2625, 0.7, 0.35, 0, 0.4375, 0.0875, 0.525, 0.175, 0.6125, 0.2625, 0.7, 0.35, 0, 0.4375, 0.0875, 0.525, 0.175, 0.6125, 0.2625, 0.7, 0.35, 0, 0.4375, 0.0875, 0.525, 0.175, 0.6125, 0.2625, 0.7, 0.35, 0, 0.4375, 0.0875, 0.525, 0.175, 0.6125, 0.2625, 0.7, 0.35, 0, 0.4375, 0.0875, 0.525, 0.175, 0.6125, 0.2625, 0.7, 0.35, 0, 0.4375, 0.0875, 0.525, 0.175, 0.6125, 0.2625, 0.7, 0.35, 0, 0.4375, 0.0875, 0.525, 0.175, 0.6125, 0.2625, 0.7, 0.35],
  "SoftwareVersions": "syngo MR B19",
  "SpacingBetweenSlices": 2,
  "StationName": "MRC35450",
  "TaskName": "cpro",
  "TotalReadoutTime": 0.0710717,
  "TxRefAmp": 310.758,
  "dcmmeta_affine": [
    [-1.9999994039535522, 1.1490166684779979e-07, -0.0015144535573199391, 101.21371459960938],
    [0.0002708868123590946, 1.9677734375, -0.35758596658706665, -73.25880432128906],
    [-0.0014900302048772573, 0.3575860857963562, 1.9677728414535522, -94.5534439086914],
    [0.0, 0.0, 0.0, 1.0]
],
  "dcmmeta_reorient_transform": [
    [0.0, -1.0, 0.0, 103.0],
    [1.0, 0.0, 0.0, 0.0],
    [0.0, 0.0, 1.0, 0.0],
    [0.0, 0.0, 0.0, 1.0]
],
  "dcmmeta_shape": [104, 104, 72, 581],
  "dcmmeta_slice_dim": 2,
  "dcmmeta_version": 0.6,
  "global": {
    "const": {
      "AcquisitionMatrix": [104, 0, 0, 104],
      "AngioFlag": "N",
      "BitsAllocated": 16,
      "BitsStored": 12,
      "Columns": 936,
      "EchoNumbers": 1,
      "EchoTime": 34.8,
      "EchoTrainLength": 1,
      "FlipAngle": 55.0,
      "HighBit": 11,
      "ImageOrientationPatient": [0.99999971330374, -0.0001354434054, -0.0007450151108, 5.7450833e-08, 0.98388670563677, -0.178793038095],
      "ImagePositionPatient": [-933.21353292765, -947.90291011682, 91.653582461203],
      "ImageType": [
        "ORIGINAL",
        "PRIMARY",
        "M",
        "MB",
        "ND",
        "MOSAIC"
],
      "ImagedNucleus": "1H",
      "ImagingFrequency": 123.235048,
      "InPlanePhaseEncodingDirection": "COL",
      "MRAcquisitionType": "2D",
      "MagneticFieldStrength": 3.0,
      "Manufacturer": "SIEMENS",
      "ManufacturerModelName": "TrioTim",
      "Modality": "MR",
      "NumberOfAverages": 1.0,
      "NumberOfPhaseEncodingSteps": 91,
      "PercentPhaseFieldOfView": 100.0,
      "PercentSampling": 100.0,
      "PerformedProcedureStepStartTime": "140722.093000",
      "PhotometricInterpretation": "MONOCHROME2",
      "PixelBandwidth": 1923.0,
      "PixelRepresentation": 0,
      "PixelSpacing": [2.0, 2.0],
      "ProtocolName": "cmrr_mbep2d_bold_2mm_MB8_Task_8x",
      "RepetitionTime": 785.0,
      "Rows": 936,
      "SAR": 0.12012343128242,
      "SamplesPerPixel": 1,
      "ScanOptions": [
        "PFP",
        "FS"
],
      "ScanningSequence": "EP",
      "SequenceName": "epfid2d1_104",
      "SequenceVariant": [
        "SK",
        "SS"
],
      "SeriesDescription": "cmrr_mbep2d_bold_2mm_MB8_Task_8x",
      "SeriesNumber": 27,
      "SeriesTime": "180009.234000",
      "SliceLocation": -80.008331332601,
      "SliceThickness": 2.0,
      "SmallestImagePixelValue": 0,
      "SoftwareVersions": "syngo MR B19",
      "SpacingBetweenSlices": 1.9999999465957,
      "SpecificCharacterSet": "ISO_IR 100",
      "StudyID": "1",
      "StudyTime": "140722.062000",
      "TransmitCoilName": "Body",
      "VariableFlipAngleFlag": "N",
      "WindowCenterWidthExplanation": "Algo1",
      "dBdt": 0.0},
    "slices": {}
  },
  "time": {
    "samples": {
      "AcquisitionNumber": [1, 2, 3, 4, 5, 6, 7, 8, 9, 10, 11, 12, 13, 14, 15, 16, 17, 18, 19, 20, 21, 22, 23, 24, 25, 26, 27, 28, 29, 30, 31, 32, 33, 34, 35, 36, 37, 38, 39, 40, 41, 42, 43, 44, 45, 46, 47, 48, 49, 50, 51, 52, 53, 54, 55, 56, 57, 58, 59, 60, 61, 62, 63, 64, 65, 66, 67, 68, 69, 70, 71, 72, 73, 74, 75, 76, 77, 78, 79, 80, 81, 82, 83, 84, 85, 86, 87, 88, 89, 90, 91, 92, 93, 94, 95, 96, 97, 98, 99, 100, 101, 102, 103, 104, 105, 106, 107, 108, 109, 110, 111, 112, 113, 114, 115, 116, 117, 118, 119, 120, 121, 122, 123, 124, 125, 126, 127, 128, 129, 130, 131, 132, 133, 134, 135, 136, 137, 138, 139, 140, 141, 142, 143, 144, 145, 146, 147, 148, 149, 150, 151, 152, 153, 154, 155, 156, 157, 158, 159, 160, 161, 162, 163, 164, 165, 166, 167, 168, 169, 170, 171, 172, 173, 174, 175, 176, 177, 178, 179, 180, 181, 182, 183, 184, 185, 186, 187, 188, 189, 190, 191, 192, 193, 194, 195, 196, 197, 198, 199, 200, 201, 202, 203, 204, 205, 206, 207, 208, 209, 210, 211, 212, 213, 214, 215, 216, 217, 218, 219, 220, 221, 222, 223, 224, 225, 226, 227, 228, 229, 230, 231, 232, 233, 234, 235, 236, 237, 238, 239, 240, 241, 242, 243, 244, 245, 246, 247, 248, 249, 250, 251, 252, 253, 254, 255, 256, 257, 258, 259, 260, 261, 262, 263, 264, 265, 266, 267, 268, 269, 270, 271, 272, 273, 274, 275, 276, 277, 278, 279, 280, 281, 282, 283, 284, 285, 286, 287, 288, 289, 290, 291, 292, 293, 294, 295, 296, 297, 298, 299, 300, 301, 302, 303, 304, 305, 306, 307, 308, 309, 310, 311, 312, 313, 314, 315, 316, 317, 318, 319, 320, 321, 322, 323, 324, 325, 326, 327, 328, 329, 330, 331, 332, 333, 334, 335, 336, 337, 338, 339, 340, 341, 342, 343, 344, 345, 346, 347, 348, 349, 350, 351, 352, 353, 354, 355, 356, 357, 358, 359, 360, 361, 362, 363, 364, 365, 366, 367, 368, 369, 370, 371, 372, 373, 374, 375, 376, 377, 378, 379, 380, 381, 382, 383, 384, 385, 386, 387, 388, 389, 390, 391, 392, 393, 394, 395, 396, 397, 398, 399, 400, 401, 402, 403, 404, 405, 406, 407, 408, 409, 410, 411, 412, 413, 414, 415, 416, 417, 418, 419, 420, 421, 422, 423, 424, 425, 426, 427, 428, 429, 430, 431, 432, 433, 434, 435, 436, 437, 438, 439, 440, 441, 442, 443, 444, 445, 446, 447, 448, 449, 450, 451, 452, 453, 454, 455, 456, 457, 458, 459, 460, 461, 462, 463, 464, 465, 466, 467, 468, 469, 470, 471, 472, 473, 474, 475, 476, 477, 478, 479, 480, 481, 482, 483, 484, 485, 486, 487, 488, 489, 490, 491, 492, 493, 494, 495, 496, 497, 498, 499, 500, 501, 502, 503, 504, 505, 506, 507, 508, 509, 510, 511, 512, 513, 514, 515, 516, 517, 518, 519, 520, 521, 522, 523, 524, 525, 526, 527, 528, 529, 530, 531, 532, 533, 534, 535, 536, 537, 538, 539, 540, 541, 542, 543, 544, 545, 546, 547, 548, 549, 550, 551, 552, 553, 554, 555, 556, 557, 558, 559, 560, 561, 562, 563, 564, 565, 566, 567, 568, 569, 570, 571, 572, 573, 574, 575, 576, 577, 578, 579, 580, 581],
      "AcquisitionTime": ["161218.690000", "161219.477500", "161220.267500", "161221.055000", "161221.842500", "161222.630000", "161223.420000", "161224.207500", "161224.995000", "161225.785000", "161226.572500", "161227.360000", "161228.147500", "161228.937500", "161229.725000", "161230.512500", "161231.300000", "161232.090000", "161232.877500", "161233.665000", "161234.452500", "161235.242500", "161236.030000", "161236.817500", "161237.605000", "161238.395000", "161239.182500", "161239.970000", "161240.757500", "161241.547500", "161242.335000", "161243.122500", "161243.912500", "161244.700000", "161245.487500", "161246.275000", "161247.065000", "161247.852500", "161248.640000", "161249.427500", "161250.217500", "161251.005000", "161251.792500", "161252.580000", "161253.370000", "161254.157500", "161254.945000", "161255.732500", "161256.522500", "161257.310000", "161258.097500", "161258.887500", "161259.675000", "161300.462500", "161301.250000", "161302.040000", "161302.827500", "161303.615000", "161304.402500", "161305.192500", "161305.980000", "161306.767500", "161307.555000", "161308.345000", "161309.132500", "161309.920000", "161310.707500", "161311.497500", "161312.285000", "161313.072500", "161313.860000", "161314.650000", "161315.437500", "161316.225000", "161317.015000", "161317.802500", "161318.590000", "161319.377500", "161320.167500", "161320.955000", "161321.742500", "161322.530000", "161323.320000", "161324.107500", "161324.895000", "161325.682500", "161326.472500", "161327.260000", "161328.047500", "161328.835000", "161329.625000", "161330.412500", "161331.200000", "161331.987500", "161332.777500", "161333.565000", "161334.352500", "161335.142500", "161335.930000", "161336.717500", "161337.505000", "161338.295000", "161339.082500", "161339.870000", "161340.657500", "161341.447500", "161342.235000", "161343.022500", "161343.810000", "161344.600000", "161345.387500", "161346.175000", "161346.962500", "161347.752500", "161348.540000", "161349.327500", "161350.115000", "161350.905000", "161351.692500", "161352.480000", "161353.270000", "161354.057500", "161354.845000", "161355.632500", "161356.422500", "161357.210000", "161357.997500", "161358.785000", "161359.575000", "161400.362500", "161401.150000", "161401.937500", "161402.727500", "161403.515000", "161404.302500", "161405.090000", "161405.880000", "161406.667500", "161407.455000", "161408.242500", "161409.032500", "161409.820000", "161410.607500", "161411.397500", "161412.185000", "161412.972500", "161413.760000", "161414.550000", "161415.337500", "161416.125000", "161416.912500", "161417.702500", "161418.490000", "161419.277500", "161420.065000", "161420.855000", "161421.642500", "161422.430000", "161423.217500", "161424.007500", "161424.795000", "161425.582500", "161426.370000", "161427.160000", "161427.947500", "161428.735000", "161429.525000", "161430.312500", "161431.100000", "161431.887500", "161432.677500", "161433.465000", "161434.252500", "161435.040000", "161435.830000", "161436.617500", "161437.405000", "161438.192500", "161438.982500", "161439.770000", "161440.557500", "161441.345000", "161442.135000", "161442.922500", "161443.710000", "161444.497500", "161445.287500", "161446.075000", "161446.862500", "161447.652500", "161448.440000", "161449.227500", "161450.015000", "161450.805000", "161451.592500", "161452.380000", "161453.167500", "161453.957500", "161454.745000", "161455.532500", "161456.320000", "161457.110000", "161457.897500", "161458.685000", "161459.472500", "161500.262500", "161501.050000", "161501.837500", "161502.625000", "161503.415000", "161504.202500", "161504.990000", "161505.780000", "161506.567500", "161507.355000", "161508.142500", "161508.932500", "161509.720000", "161510.507500", "161511.295000", "161512.085000", "161512.872500", "161513.660000", "161514.447500", "161515.237500", "161516.025000", "161516.812500", "161517.600000", "161518.390000", "161519.177500", "161519.965000", "161520.752500", "161521.542500", "161522.330000", "161523.117500", "161523.907500", "161524.695000", "161525.482500", "161526.270000", "161527.060000", "161527.847500", "161528.635000", "161529.422500", "161530.212500", "161531.000000", "161531.787500", "161532.575000", "161533.365000", "161534.152500", "161534.940000", "161535.727500", "161536.517500", "161537.305000", "161538.092500", "161538.880000", "161539.670000", "161540.457500", "161541.245000", "161542.035000", "161542.822500", "161543.610000", "161544.397500", "161545.187500", "161545.975000", "161546.762500", "161547.550000", "161548.340000", "161549.127500", "161549.915000", "161550.702500", "161551.492500", "161552.280000", "161553.067500", "161553.855000", "161554.645000", "161555.432500", "161556.220000", "161557.007500", "161557.797500", "161558.585000", "161559.372500", "161600.162500", "161600.950000", "161601.737500", "161602.525000", "161603.315000", "161604.102500", "161604.890000", "161605.677500", "161606.467500", "161607.255000", "161608.042500", "161608.830000", "161609.620000", "161610.407500", "161611.195000", "161611.982500", "161612.772500", "161613.560000", "161614.347500", "161615.137500", "161615.925000", "161616.712500", "161617.500000", "161618.290000", "161619.077500", "161619.865000", "161620.652500", "161621.442500", "161622.230000", "161623.017500", "161623.805000", "161624.595000", "161625.382500", "161626.170000", "161626.957500", "161627.747500", "161628.535000", "161629.322500", "161630.110000", "161630.900000", "161631.687500", "161632.475000", "161633.265000", "161634.052500", "161634.840000", "161635.627500", "161636.417500", "161637.205000", "161637.992500", "161638.780000", "161639.570000", "161640.357500", "161641.145000", "161641.932500", "161642.722500", "161643.510000", "161644.297500", "161645.085000", "161645.875000", "161646.662500", "161647.450000", "161648.237500", "161649.027500", "161649.815000", "161650.602500", "161651.392500", "161652.180000", "161652.967500", "161653.755000", "161654.545000", "161655.332500", "161656.120000", "161656.907500", "161657.697500", "161658.485000", "161659.272500", "161700.060000", "161700.850000", "161701.637500", "161702.425000", "161703.212500", "161704.002500", "161704.790000", "161705.577500", "161706.365000", "161707.155000", "161707.942500", "161708.730000", "161709.520000", "161710.307500", "161711.095000", "161711.882500", "161712.672500", "161713.460000", "161714.247500", "161715.035000", "161715.825000", "161716.612500", "161717.400000", "161718.187500", "161718.977500", "161719.765000", "161720.552500", "161721.340000", "161722.130000", "161722.917500", "161723.705000", "161724.492500", "161725.282500", "161726.070000", "161726.857500", "161727.647500", "161728.435000", "161729.222500", "161730.010000", "161730.800000", "161731.587500", "161732.375000", "161733.162500", "161733.952500", "161734.740000", "161735.527500", "161736.315000", "161737.105000", "161737.892500", "161738.680000", "161739.467500", "161740.257500", "161741.045000", "161741.832500", "161742.620000", "161743.410000", "161744.197500", "161744.985000", "161745.775000", "161746.562500", "161747.350000", "161748.137500", "161748.927500", "161749.715000", "161750.502500", "161751.290000", "161752.080000", "161752.867500", "161753.655000", "161754.442500", "161755.232500", "161756.020000", "161756.807500", "161757.595000", "161758.385000", "161759.172500", "161759.960000", "161800.747500", "161801.537500", "161802.325000", "161803.112500", "161803.902500", "161804.690000", "161805.477500", "161806.265000", "161807.055000", "161807.842500", "161808.630000", "161809.417500", "161810.207500", "161810.995000", "161811.782500", "161812.570000", "161813.360000", "161814.147500", "161814.935000", "161815.722500", "161816.512500", "161817.300000", "161818.087500", "161818.875000", "161819.665000", "161820.452500", "161821.240000", "161822.030000", "161822.817500", "161823.605000", "161824.392500", "161825.182500", "161825.970000", "161826.757500", "161827.545000", "161828.335000", "161829.122500", "161829.910000", "161830.697500", "161831.487500", "161832.275000", "161833.062500", "161833.850000", "161834.640000", "161835.427500", "161836.215000", "161837.002500", "161837.792500", "161838.580000", "161839.367500", "161840.157500", "161840.945000", "161841.732500", "161842.520000", "161843.310000", "161844.097500", "161844.885000", "161845.672500", "161846.462500", "161847.250000", "161848.037500", "161848.825000", "161849.615000", "161850.402500", "161851.190000", "161851.977500", "161852.767500", "161853.555000", "161854.342500", "161855.130000", "161855.920000", "161856.707500", "161857.495000", "161858.285000", "161859.072500", "161859.860000", "161900.647500", "161901.437500", "161902.225000", "161903.012500", "161903.800000", "161904.590000", "161905.377500", "161906.165000", "161906.952500", "161907.742500", "161908.530000", "161909.317500", "161910.105000", "161910.895000", "161911.682500", "161912.470000", "161913.257500", "161914.047500", "161914.835000", "161915.622500", "161916.412500", "161917.200000", "161917.987500", "161918.775000", "161919.565000", "161920.352500", "161921.140000", "161921.927500", "161922.717500", "161923.505000", "161924.292500", "161925.080000", "161925.870000", "161926.657500", "161927.445000", "161928.232500", "161929.022500", "161929.810000", "161930.597500", "161931.387500", "161932.175000", "161932.962500", "161933.750000", "161934.540000", "161935.327500", "161936.115000", "161936.902500", "161937.692500", "161938.480000", "161939.267500", "161940.055000", "161940.845000", "161941.632500", "161942.420000", "161943.207500", "161943.997500", "161944.785000", "161945.572500", "161946.360000", "161947.150000", "161947.937500", "161948.725000", "161949.515000", "161950.302500", "161951.090000", "161951.877500", "161952.667500", "161953.455000", "161954.242500", "161955.030000", "161955.820000"],
      "ContentTime": ["180009.250000", "180009.250000", "180009.250000", "180009.265000", "180109.218000", "180109.218000", "180109.218000", "180109.218000", "180109.234000", "180109.234000", "180109.234000", "180109.234000", "180109.234000", "180109.234000", "180109.234000", "180109.250000", "180109.250000", "180109.250000", "180109.250000", "180109.250000", "180109.250000", "180109.250000", "180109.265000", "180109.265000", "180109.265000", "180109.265000", "180109.265000", "180109.265000", "180109.265000", "180109.281000", "180109.281000", "180109.281000", "180209.218000", "180209.218000", "180209.218000", "180209.218000", "180209.234000", "180209.234000", "180209.234000", "180209.234000", "180209.234000", "180209.234000", "180209.234000", "180209.250000", "180209.250000", "180209.250000", "180209.250000", "180209.250000", "180209.250000", "180209.250000", "180209.265000", "180209.265000", "180209.265000", "180209.265000", "180209.265000", "180209.265000", "180209.281000", "180209.281000", "180209.281000", "180209.281000", "180229.218000", "180229.218000", "180229.218000", "180229.218000", "180229.234000", "180229.234000", "180229.234000", "180229.234000", "180229.234000", "180229.234000", "180329.218000", "180329.218000", "180329.218000", "180329.218000", "180329.234000", "180329.234000", "180329.234000", "180329.234000", "180329.234000", "180329.234000", "180329.234000", "180329.250000", "180329.250000", "180329.250000", "180329.250000", "180329.250000", "180329.250000", "180329.250000", "180329.265000", "180329.265000", "180329.265000", "180329.265000", "180329.265000", "180329.265000", "180329.265000", "180329.281000", "180329.281000", "180329.281000", "180429.218000", "180429.218000", "180429.218000", "180429.218000", "180429.234000", "180429.234000", "180429.234000", "180429.234000", "180429.234000", "180429.234000", "180429.234000", "180429.250000", "180429.250000", "180429.250000", "180429.250000", "180429.250000", "180429.250000", "180429.250000", "180429.265000", "180429.265000", "180429.265000", "180429.265000", "180429.265000", "180429.265000", "180429.281000", "180429.281000", "180429.281000", "180429.281000", "180529.218000", "180529.218000", "180529.218000", "180529.218000", "180529.234000", "180529.234000", "180529.234000", "180529.234000", "180529.234000", "180529.234000", "180529.234000", "180529.250000", "180529.250000", "180529.250000", "180529.250000", "180529.250000", "180529.250000", "180529.250000", "180529.265000", "180529.265000", "180529.265000", "180529.265000", "180529.265000", "180529.281000", "180529.281000", "180529.281000", "180529.281000", "180529.281000", "180629.218000", "180629.218000", "180629.218000", "180629.218000", "180629.234000", "180629.234000", "180629.234000", "180629.234000", "180629.234000", "180629.234000", "180629.234000", "180629.250000", "180629.250000", "180629.250000", "180629.250000", "180629.250000", "180629.250000", "180629.265000", "180629.265000", "180629.265000", "180629.265000", "180629.265000", "180629.265000", "180629.281000", "180629.281000", "180629.281000", "180629.281000", "180629.281000", "180729.218000", "180729.218000", "180729.218000", "180729.218000", "180729.234000", "180729.234000", "180729.234000", "180729.234000", "180729.234000", "180729.234000", "180729.234000", "180729.250000", "180729.250000", "180729.250000", "180729.250000", "180729.250000", "180729.250000", "180729.250000", "180729.265000", "180729.265000", "180729.265000", "180729.265000", "180729.265000", "180729.265000", "180729.265000", "180729.281000", "180729.281000", "180729.281000", "180729.281000", "180829.218000", "180829.218000", "180829.218000", "180829.218000", "180829.234000", "180829.234000", "180829.234000", "180829.234000", "180829.234000", "180829.234000", "180829.234000", "180829.250000", "180829.250000", "180829.250000", "180829.250000", "180829.250000", "180829.250000", "180829.250000", "180829.265000", "180829.265000", "180829.265000", "180829.265000", "180829.265000", "180829.265000", "180829.265000", "180829.281000", "180829.281000", "180829.281000", "180929.218000", "180929.218000", "180929.218000", "180929.218000", "180929.234000", "180929.234000", "180929.234000", "180929.234000", "180929.234000", "180929.234000", "180929.234000", "180929.250000", "180929.250000", "180929.250000", "180929.250000", "180929.250000", "180929.250000", "180929.250000", "180929.265000", "180929.265000", "180929.265000", "180929.265000", "180929.265000", "180929.281000", "180929.281000", "180929.281000", "180929.281000", "180929.281000", "181029.218000", "181029.218000", "181029.218000", "181029.218000", "181029.234000", "181029.234000", "181029.234000", "181029.234000", "181029.234000", "181029.234000", "181029.234000", "181029.250000", "181029.250000", "181029.250000", "181029.250000", "181029.265000", "181029.265000", "181029.265000", "181029.265000", "181029.265000", "181029.265000", "181029.265000", "181029.281000", "181029.281000", "181029.281000", "181029.281000", "181029.281000", "181029.281000", "181129.218000", "181129.218000", "181129.218000", "181129.218000", "181129.234000", "181129.234000", "181129.234000", "181129.234000", "181129.234000", "181129.234000", "181129.234000", "181129.250000", "181129.250000", "181129.250000", "181129.250000", "181129.250000", "181129.250000", "181129.250000", "181129.265000", "181129.265000", "181129.265000", "181129.265000", "181129.265000", "181129.265000", "181129.265000", "181129.281000", "181129.281000", "181129.281000", "181129.281000", "181229.218000", "181229.218000", "181229.218000", "181229.218000", "181229.234000", "181229.234000", "181229.234000", "181229.234000", "181229.234000", "181229.234000", "181229.234000", "181229.250000", "181229.250000", "181229.250000", "181229.250000", "181229.250000", "181229.250000", "181229.250000", "181229.265000", "181229.265000", "181229.265000", "181229.265000", "181229.265000", "181229.265000", "181229.265000", "181229.281000", "181229.281000", "181229.281000", "181329.218000", "181329.218000", "181329.218000", "181329.218000", "181329.234000", "181329.234000", "181329.234000", "181329.234000", "181329.234000", "181329.234000", "181329.250000", "181329.250000", "181329.250000", "181329.250000", "181329.250000", "181329.250000", "181329.250000", "181329.265000", "181329.265000", "181329.265000", "181329.265000", "181329.265000", "181329.265000", "181329.265000", "181329.281000", "181329.281000", "181329.281000", "181329.281000", "181429.218000", "181429.218000", "181429.218000", "181429.218000", "181429.234000", "181429.234000", "181429.234000", "181429.234000", "181429.234000", "181429.234000", "181429.234000", "181429.250000", "181429.250000", "181429.250000", "181429.250000", "181429.250000", "181429.250000", "181429.250000", "181429.265000", "181429.265000", "181429.265000", "181429.265000", "181429.265000", "181429.265000", "181429.281000", "181429.281000", "181429.281000", "181429.281000", "181529.218000", "181529.218000", "181529.218000", "181529.218000", "181529.234000", "181529.234000", "181529.234000", "181529.234000", "181529.234000", "181529.234000", "181529.234000", "181529.250000", "181529.250000", "181529.250000", "181529.250000", "181529.250000", "181529.250000", "181529.250000", "181529.265000", "181529.265000", "181529.265000", "181529.265000", "181529.265000", "181529.265000", "181529.265000", "181529.281000", "181529.281000", "181529.281000", "181529.281000", "181629.218000", "181629.218000", "181629.218000", "181629.218000", "181629.234000", "181629.234000", "181629.234000", "181629.234000", "181629.234000", "181629.234000", "181629.234000", "181629.250000", "181629.250000", "181629.250000", "181629.250000", "181629.250000", "181629.250000", "181629.265000", "181629.265000", "181629.265000", "181629.265000", "181629.265000", "181629.265000", "181629.281000", "181629.281000", "181629.281000", "181629.281000", "181629.281000", "181729.218000", "181729.218000", "181729.218000", "181729.218000", "181729.234000", "181729.234000", "181729.234000", "181729.234000", "181729.234000", "181729.234000", "181729.234000", "181729.250000", "181729.250000", "181729.250000", "181729.250000", "181729.250000", "181729.250000", "181729.250000", "181729.265000", "181729.265000", "181729.265000", "181729.265000", "181729.265000", "181729.265000", "181729.265000", "181729.281000", "181729.281000", "181729.281000", "181829.218000", "181829.218000", "181829.218000", "181829.218000", "181829.234000", "181829.234000", "181829.234000", "181829.234000", "181829.234000", "181829.234000", "181829.234000", "181829.250000", "181829.250000", "181829.250000", "181829.250000", "181829.250000", "181829.250000", "181829.250000", "181829.265000", "181829.265000", "181829.265000", "181829.265000", "181829.265000", "181829.265000", "181829.265000", "181829.281000", "181829.281000", "181829.281000", "181929.218000", "181929.218000", "181929.218000", "181929.218000", "181929.234000", "181929.234000", "181929.234000", "181929.234000", "181929.234000", "181929.250000", "181929.250000", "181929.250000", "181929.250000", "181929.250000", "181929.250000", "181929.250000", "181929.265000", "181929.265000", "181929.265000", "181929.265000", "181929.265000", "181929.265000", "181929.265000", "181929.281000", "181929.281000", "181929.281000", "181929.281000", "181929.281000", "182029.218000", "182029.218000", "182029.218000", "182029.218000", "182029.234000", "182029.234000", "182029.234000", "182029.234000", "182029.234000", "182029.234000", "182029.234000", "182029.250000", "182029.250000", "182029.250000", "182029.250000", "182029.250000", "182029.250000", "182029.250000", "182029.265000", "182029.265000", "182029.265000", "182029.265000", "182029.265000", "182029.265000", "182029.281000", "182029.281000", "182029.281000", "182029.281000", "182029.281000", "182034.718000", "182034.718000", "182034.734000"],
