{
  "AcquisitionMatrixPE": 104,
  "AcquisitionNumber": 1,
  "AcquisitionTime": "15:56:0.775000",
  "BandwidthPerPixelPhaseEncode": 13.935,
  "BaseResolution": 104,
  "CoilString": "C:HEA;HEP",
  "ConversionSoftware": "dcm2niix",
  "ConversionSoftwareVersion": "v1.0.20210317",
  "DerivedVendorReportedEchoSpacing": 0.000690017,
  "DeviceSerialNumber": "35450",
  "DwellTime": 2.5e-06,
  "EchoTime": 0.0348,
  "EffectiveEchoSpacing": 0.000690017,
  "FlipAngle": 55,
  "ImageComments": "Unaliased MB8/PE3",
  "ImageOrientationPatientDICOM": [1, -0.000135443, -0.000745015, 5.74508e-08, 0.983887, -0.178793],
  "ImageType": [
    "ORIGINAL",
    "PRIMARY",
    "M",
    "MB",
    "ND",
    "MOSAIC"
],
  "ImagingFrequency": 123.235,
  "InPlanePhaseEncodingDirectionDICOM": "COL",
  "InstitutionAddress": "Univeristy Ave. 197,Newark,North East,US,07102-1814",
  "InstitutionName": "RUBIC",
  "InstitutionalDepartmentName": "Department",
  "MRAcquisitionType": "2D",
  "MagneticFieldStrength": 3,
  "Manufacturer": "Siemens",
  "ManufacturersModelName": "TrioTim",
  "Modality": "MR",
  "MultibandAccelerationFactor": 8,
  "PartialFourier": 0.875,
  "PatientPosition": "HFS",
  "PercentPhaseFOV": 100,
  "PercentSampling": 100,
  "PhaseEncodingDirection": "j-",
  "PhaseEncodingSteps": 91,
  "PhaseResolution": 1,
  "PixelBandwidth": 1923,
  "ProcedureStepDescription": "Cole^Michael",
  "ProtocolName": "cmrr_mbep2d_bold_2mm_MB8_Task_8x",
  "PulseSequenceDetails": "%CustomerSeq%\\cmrr_mbep2d_bold",
  "ReceiveCoilName": "32Ch_Head",
  "ReconMatrixPE": 104,
  "RepetitionTime": 0.785,
  "SAR": 0.120123,
  "ScanOptions": "PFP\\FS",
  "ScanningSequence": "EP",
  "SequenceName": "epfid2d1_104",
  "SequenceVariant": "SK\\SS",
  "SeriesDescription": "cmrr_mbep2d_bold_2mm_MB8_Task_8x",
  "SeriesNumber": 23,
  "ShimSetting": [2111, -403, -7489, 215, 59, -345, 228, 82],
  "SliceThickness": 2,
  "SliceTiming": [0, 0.4375, 0.0875, 0.525, 0.175, 0.6125, 0.2625, 0.7, 0.35, 0, 0.4375, 0.0875, 0.525, 0.175, 0.6125, 0.2625, 0.7, 0.35, 0, 0.4375, 0.0875, 0.525, 0.175, 0.6125, 0.2625, 0.7, 0.35, 0, 0.4375, 0.0875, 0.525, 0.175, 0.6125, 0.2625, 0.7, 0.35, 0, 0.4375, 0.0875, 0.525, 0.175, 0.6125, 0.2625, 0.7, 0.35, 0, 0.4375, 0.0875, 0.525, 0.175, 0.6125, 0.2625, 0.7, 0.35, 0, 0.4375, 0.0875, 0.525, 0.175, 0.6125, 0.2625, 0.7, 0.35, 0, 0.4375, 0.0875, 0.525, 0.175, 0.6125, 0.2625, 0.7, 0.35],
  "SoftwareVersions": "syngo MR B19",
  "SpacingBetweenSlices": 2,
  "StationName": "MRC35450",
  "TaskName": "cpro",
  "TotalReadoutTime": 0.0710717,
  "TxRefAmp": 310.758,
  "dcmmeta_affine": [
    [-1.9999994039535522, 1.1490166684779979e-07, -0.0015144535573199391, 101.21371459960938],
    [0.0002708868123590946, 1.9677734375, -0.35758596658706665, -73.25880432128906],
    [-0.0014900302048772573, 0.3575860857963562, 1.9677728414535522, -94.5534439086914],
    [0.0, 0.0, 0.0, 1.0]
],
  "dcmmeta_reorient_transform": [
    [0.0, -1.0, 0.0, 103.0],
    [1.0, 0.0, 0.0, 0.0],
    [0.0, 0.0, 1.0, 0.0],
    [0.0, 0.0, 0.0, 1.0]
],
  "dcmmeta_shape": [104, 104, 72, 581],
  "dcmmeta_slice_dim": 2,
  "dcmmeta_version": 0.6,
  "global": {
    "const": {
      "AcquisitionMatrix": [104, 0, 0, 104],
      "AngioFlag": "N",
      "BitsAllocated": 16,
      "BitsStored": 12,
      "Columns": 936,
      "EchoNumbers": 1,
      "EchoTime": 34.8,
      "EchoTrainLength": 1,
      "FlipAngle": 55.0,
      "HighBit": 11,
      "ImageOrientationPatient": [0.99999971330374, -0.0001354434054, -0.0007450151108, 5.7450833e-08, 0.98388670563677, -0.178793038095],
      "ImagePositionPatient": [-933.21353292765, -947.90291011682, 91.653582461203],
      "ImageType": [
        "ORIGINAL",
        "PRIMARY",
        "M",
        "MB",
        "ND",
        "MOSAIC"
],
      "ImagedNucleus": "1H",
      "ImagingFrequency": 123.235048,
      "InPlanePhaseEncodingDirection": "COL",
      "MRAcquisitionType": "2D",
      "MagneticFieldStrength": 3.0,
      "Manufacturer": "SIEMENS",
      "ManufacturerModelName": "TrioTim",
      "Modality": "MR",
      "NumberOfAverages": 1.0,
      "NumberOfPhaseEncodingSteps": 91,
      "PercentPhaseFieldOfView": 100.0,
      "PercentSampling": 100.0,
      "PerformedProcedureStepStartTime": "140722.093000",
      "PhotometricInterpretation": "MONOCHROME2",
      "PixelBandwidth": 1923.0,
      "PixelRepresentation": 0,
      "PixelSpacing": [2.0, 2.0],
      "ProtocolName": "cmrr_mbep2d_bold_2mm_MB8_Task_8x",
      "RepetitionTime": 785.0,
      "Rows": 936,
      "SAR": 0.12012343128242,
      "SamplesPerPixel": 1,
      "ScanOptions": [
        "PFP",
        "FS"
],
      "ScanningSequence": "EP",
      "SequenceName": "epfid2d1_104",
      "SequenceVariant": [
        "SK",
        "SS"
],
      "SeriesDescription": "cmrr_mbep2d_bold_2mm_MB8_Task_8x",
      "SeriesNumber": 23,
      "SeriesTime": "171823.250000",
      "SliceLocation": -80.008331332601,
      "SliceThickness": 2.0,
      "SmallestImagePixelValue": 0,
      "SoftwareVersions": "syngo MR B19",
      "SpacingBetweenSlices": 1.9999999465957,
      "SpecificCharacterSet": "ISO_IR 100",
      "StudyID": "1",
      "StudyTime": "140722.062000",
      "TransmitCoilName": "Body",
      "VariableFlipAngleFlag": "N",
      "WindowCenterWidthExplanation": "Algo1",
      "dBdt": 0.0},
    "slices": {}
  },
  "time": {
    "samples": {
      "AcquisitionNumber": [1, 2, 3, 4, 5, 6, 7, 8, 9, 10, 11, 12, 13, 14, 15, 16, 17, 18, 19, 20, 21, 22, 23, 24, 25, 26, 27, 28, 29, 30, 31, 32, 33, 34, 35, 36, 37, 38, 39, 40, 41, 42, 43, 44, 45, 46, 47, 48, 49, 50, 51, 52, 53, 54, 55, 56, 57, 58, 59, 60, 61, 62, 63, 64, 65, 66, 67, 68, 69, 70, 71, 72, 73, 74, 75, 76, 77, 78, 79, 80, 81, 82, 83, 84, 85, 86, 87, 88, 89, 90, 91, 92, 93, 94, 95, 96, 97, 98, 99, 100, 101, 102, 103, 104, 105, 106, 107, 108, 109, 110, 111, 112, 113, 114, 115, 116, 117, 118, 119, 120, 121, 122, 123, 124, 125, 126, 127, 128, 129, 130, 131, 132, 133, 134, 135, 136, 137, 138, 139, 140, 141, 142, 143, 144, 145, 146, 147, 148, 149, 150, 151, 152, 153, 154, 155, 156, 157, 158, 159, 160, 161, 162, 163, 164, 165, 166, 167, 168, 169, 170, 171, 172, 173, 174, 175, 176, 177, 178, 179, 180, 181, 182, 183, 184, 185, 186, 187, 188, 189, 190, 191, 192, 193, 194, 195, 196, 197, 198, 199, 200, 201, 202, 203, 204, 205, 206, 207, 208, 209, 210, 211, 212, 213, 214, 215, 216, 217, 218, 219, 220, 221, 222, 223, 224, 225, 226, 227, 228, 229, 230, 231, 232, 233, 234, 235, 236, 237, 238, 239, 240, 241, 242, 243, 244, 245, 246, 247, 248, 249, 250, 251, 252, 253, 254, 255, 256, 257, 258, 259, 260, 261, 262, 263, 264, 265, 266, 267, 268, 269, 270, 271, 272, 273, 274, 275, 276, 277, 278, 279, 280, 281, 282, 283, 284, 285, 286, 287, 288, 289, 290, 291, 292, 293, 294, 295, 296, 297, 298, 299, 300, 301, 302, 303, 304, 305, 306, 307, 308, 309, 310, 311, 312, 313, 314, 315, 316, 317, 318, 319, 320, 321, 322, 323, 324, 325, 326, 327, 328, 329, 330, 331, 332, 333, 334, 335, 336, 337, 338, 339, 340, 341, 342, 343, 344, 345, 346, 347, 348, 349, 350, 351, 352, 353, 354, 355, 356, 357, 358, 359, 360, 361, 362, 363, 364, 365, 366, 367, 368, 369, 370, 371, 372, 373, 374, 375, 376, 377, 378, 379, 380, 381, 382, 383, 384, 385, 386, 387, 388, 389, 390, 391, 392, 393, 394, 395, 396, 397, 398, 399, 400, 401, 402, 403, 404, 405, 406, 407, 408, 409, 410, 411, 412, 413, 414, 415, 416, 417, 418, 419, 420, 421, 422, 423, 424, 425, 426, 427, 428, 429, 430, 431, 432, 433, 434, 435, 436, 437, 438, 439, 440, 441, 442, 443, 444, 445, 446, 447, 448, 449, 450, 451, 452, 453, 454, 455, 456, 457, 458, 459, 460, 461, 462, 463, 464, 465, 466, 467, 468, 469, 470, 471, 472, 473, 474, 475, 476, 477, 478, 479, 480, 481, 482, 483, 484, 485, 486, 487, 488, 489, 490, 491, 492, 493, 494, 495, 496, 497, 498, 499, 500, 501, 502, 503, 504, 505, 506, 507, 508, 509, 510, 511, 512, 513, 514, 515, 516, 517, 518, 519, 520, 521, 522, 523, 524, 525, 526, 527, 528, 529, 530, 531, 532, 533, 534, 535, 536, 537, 538, 539, 540, 541, 542, 543, 544, 545, 546, 547, 548, 549, 550, 551, 552, 553, 554, 555, 556, 557, 558, 559, 560, 561, 562, 563, 564, 565, 566, 567, 568, 569, 570, 571, 572, 573, 574, 575, 576, 577, 578, 579, 580, 581],
      "AcquisitionTime": ["155600.775000", "155601.562500", "155602.352500", "155603.140000", "155603.927500", "155604.717500", "155605.505000", "155606.292500", "155607.080000", "155607.870000", "155608.657500", "155609.445000", "155610.232500", "155611.022500", "155611.810000", "155612.597500", "155613.385000", "155614.175000", "155614.962500", "155615.750000", "155616.537500", "155617.327500", "155618.115000", "155618.902500", "155619.690000", "155620.480000", "155621.267500", "155622.055000", "155622.845000", "155623.632500", "155624.420000", "155625.207500", "155625.997500", "155626.785000", "155627.572500", "155628.360000", "155629.150000", "155629.937500", "155630.725000", "155631.512500", "155632.302500", "155633.090000", "155633.877500", "155634.665000", "155635.455000", "155636.242500", "155637.030000", "155637.817500", "155638.607500", "155639.395000", "155640.182500", "155640.972500", "155641.760000", "155642.547500", "155643.335000", "155644.125000", "155644.912500", "155645.700000", "155646.487500", "155647.277500", "155648.065000", "155648.852500", "155649.640000", "155650.430000", "155651.217500", "155652.005000", "155652.792500", "155653.582500", "155654.370000", "155655.157500", "155655.947500", "155656.735000", "155657.522500", "155658.310000", "155659.100000", "155659.887500", "155700.675000", "155701.462500", "155702.252500", "155703.040000", "155703.827500", "155704.615000", "155705.405000", "155706.192500", "155706.980000", "155707.767500", "155708.557500", "155709.345000", "155710.132500", "155710.920000", "155711.710000", "155712.497500", "155713.285000", "155714.075000", "155714.862500", "155715.650000", "155716.437500", "155717.227500", "155718.015000", "155718.802500", "155719.590000", "155720.380000", "155721.167500", "155721.955000", "155722.742500", "155723.532500", "155724.320000", "155725.107500", "155725.895000", "155726.685000", "155727.472500", "155728.260000", "155729.047500", "155729.837500", "155730.625000", "155731.412500", "155732.202500", "155732.990000", "155733.777500", "155734.565000", "155735.355000", "155736.142500", "155736.930000", "155737.717500", "155738.507500", "155739.295000", "155740.082500", "155740.870000", "155741.660000", "155742.447500", "155743.235000", "155744.022500", "155744.812500", "155745.600000", "155746.387500", "155747.175000", "155747.965000", "155748.752500", "155749.540000", "155750.330000", "155751.117500", "155751.905000", "155752.692500", "155753.482500", "155754.270000", "155755.057500", "155755.845000", "155756.635000", "155757.422500", "155758.210000", "155758.997500", "155759.787500", "155800.575000", "155801.362500", "155802.150000", "155802.940000", "155803.727500", "155804.515000", "155805.302500", "155806.092500", "155806.880000", "155807.667500", "155808.457500", "155809.245000", "155810.032500", "155810.820000", "155811.610000", "155812.397500", "155813.185000", "155813.972500", "155814.762500", "155815.550000", "155816.337500", "155817.125000", "155817.915000", "155818.702500", "155819.490000", "155820.277500", "155821.067500", "155821.855000", "155822.642500", "155823.430000", "155824.220000", "155825.007500", "155825.795000", "155826.585000", "155827.372500", "155828.160000", "155828.947500", "155829.737500", "155830.525000", "155831.312500", "155832.100000", "155832.890000", "155833.677500", "155834.465000", "155835.252500", "155836.042500", "155836.830000", "155837.617500", "155838.405000", "155839.195000", "155839.982500", "155840.770000", "155841.557500", "155842.347500", "155843.135000", "155843.922500", "155844.712500", "155845.500000", "155846.287500", "155847.075000", "155847.865000", "155848.652500", "155849.440000", "155850.227500", "155851.017500", "155851.805000", "155852.592500", "155853.380000", "155854.170000", "155854.957500", "155855.745000", "155856.532500", "155857.322500", "155858.110000", "155858.897500", "155859.685000", "155900.475000", "155901.262500", "155902.050000", "155902.840000", "155903.627500", "155904.415000", "155905.202500", "155905.992500", "155906.780000", "155907.567500", "155908.355000", "155909.145000", "155909.932500", "155910.720000", "155911.507500", "155912.297500", "155913.085000", "155913.872500", "155914.660000", "155915.450000", "155916.237500", "155917.025000", "155917.812500", "155918.602500", "155919.390000", "155920.177500", "155920.967500", "155921.755000", "155922.542500", "155923.330000", "155924.120000", "155924.907500", "155925.695000", "155926.482500", "155927.272500", "155928.060000", "155928.847500", "155929.635000", "155930.425000", "155931.212500", "155932.000000", "155932.787500", "155933.577500", "155934.365000", "155935.152500", "155935.940000", "155936.730000", "155937.517500", "155938.305000", "155939.095000", "155939.882500", "155940.670000", "155941.457500", "155942.247500", "155943.035000", "155943.822500", "155944.610000", "155945.400000", "155946.187500", "155946.975000", "155947.762500", "155948.552500", "155949.340000", "155950.127500", "155950.915000", "155951.705000", "155952.492500", "155953.280000", "155954.067500", "155954.857500", "155955.645000", "155956.432500", "155957.222500", "155958.010000", "155958.797500", "155959.585000", "160000.375000", "160001.162500", "160001.950000", "160002.737500", "160003.527500", "160004.315000", "160005.102500", "160005.890000", "160006.680000", "160007.467500", "160008.255000", "160009.042500", "160009.832500", "160010.620000", "160011.407500", "160012.197500", "160012.985000", "160013.772500", "160014.560000", "160015.350000", "160016.137500", "160016.925000", "160017.712500", "160018.502500", "160019.290000", "160020.077500", "160020.865000", "160021.655000", "160022.442500", "160023.230000", "160024.017500", "160024.807500", "160025.595000", "160026.382500", "160027.170000", "160027.960000", "160028.747500", "160029.535000", "160030.325000", "160031.112500", "160031.900000", "160032.687500", "160033.477500", "160034.265000", "160035.052500", "160035.840000", "160036.630000", "160037.417500", "160038.205000", "160038.992500", "160039.782500", "160040.570000", "160041.357500", "160042.145000", "160042.935000", "160043.722500", "160044.510000", "160045.297500", "160046.087500", "160046.875000", "160047.662500", "160048.452500", "160049.240000", "160050.027500", "160050.815000", "160051.605000", "160052.392500", "160053.180000", "160053.967500", "160054.757500", "160055.545000", "160056.332500", "160057.120000", "160057.910000", "160058.697500", "160059.485000", "160100.272500", "160101.062500", "160101.850000", "160102.637500", "160103.425000", "160104.215000", "160105.002500", "160105.790000", "160106.580000", "160107.367500", "160108.155000", "160108.942500", "160109.732500", "160110.520000", "160111.307500", "160112.095000", "160112.885000", "160113.672500", "160114.460000", "160115.247500", "160116.037500", "160116.825000", "160117.612500", "160118.400000", "160119.190000", "160119.977500", "160120.765000", "160121.552500", "160122.342500", "160123.130000", "160123.917500", "160124.707500", "160125.495000", "160126.282500", "160127.070000", "160127.860000", "160128.647500", "160129.435000", "160130.222500", "160131.012500", "160131.800000", "160132.587500", "160133.375000", "160134.165000", "160134.952500", "160135.740000", "160136.527500", "160137.317500", "160138.105000", "160138.892500", "160139.680000", "160140.470000", "160141.257500", "160142.045000", "160142.835000", "160143.622500", "160144.410000", "160145.197500", "160145.987500", "160146.775000", "160147.562500", "160148.350000", "160149.140000", "160149.927500", "160150.715000", "160151.502500", "160152.292500", "160153.080000", "160153.867500", "160154.655000", "160155.445000", "160156.232500", "160157.020000", "160157.807500", "160158.597500", "160159.385000", "160200.172500", "160200.962500", "160201.750000", "160202.537500", "160203.325000", "160204.115000", "160204.902500", "160205.690000", "160206.477500", "160207.267500", "160208.055000", "160208.842500", "160209.630000", "160210.420000", "160211.207500", "160211.995000", "160212.782500", "160213.572500", "160214.360000", "160215.147500", "160215.935000", "160216.725000", "160217.512500", "160218.300000", "160219.090000", "160219.877500", "160220.665000", "160221.452500", "160222.242500", "160223.030000", "160223.817500", "160224.605000", "160225.395000", "160226.182500", "160226.970000", "160227.757500", "160228.547500", "160229.335000", "160230.122500", "160230.910000", "160231.700000", "160232.487500", "160233.275000", "160234.062500", "160234.852500", "160235.640000", "160236.427500", "160237.217500", "160238.005000", "160238.792500", "160239.580000", "160240.370000", "160241.157500", "160241.945000", "160242.732500", "160243.522500", "160244.310000", "160245.097500", "160245.885000", "160246.675000", "160247.462500", "160248.250000", "160249.037500", "160249.827500", "160250.615000", "160251.402500", "160252.190000", "160252.980000", "160253.767500", "160254.555000", "160255.345000", "160256.132500", "160256.920000", "160257.707500", "160258.497500", "160259.285000", "160300.072500", "160300.860000", "160301.650000", "160302.437500", "160303.225000", "160304.012500", "160304.802500", "160305.590000", "160306.377500", "160307.165000", "160307.955000", "160308.742500", "160309.530000", "160310.317500", "160311.107500", "160311.895000", "160312.682500", "160313.472500", "160314.260000", "160315.047500", "160315.835000", "160316.625000", "160317.412500", "160318.200000", "160318.987500", "160319.777500", "160320.565000", "160321.352500", "160322.140000", "160322.930000", "160323.717500", "160324.505000", "160325.292500", "160326.082500", "160326.870000", "160327.657500", "160328.447500", "160329.235000", "160330.022500", "160330.810000", "160331.600000", "160332.387500", "160333.175000", "160333.962500", "160334.752500", "160335.540000", "160336.327500", "160337.115000", "160337.905000"],
      "ContentTime": ["171823.250000", "171823.265000", "171823.265000", "171923.234000", "171923.234000", "171923.234000", "171923.234000", "171923.250000", "171923.250000", "171923.250000", "171923.250000", "171923.250000", "171923.250000", "171923.265000", "171923.265000", "171923.265000", "171923.265000", "171923.265000", "171923.265000", "171923.281000", "171923.281000", "171923.281000", "171923.281000", "171923.281000", "171923.281000", "171923.281000", "171923.296000", "171923.296000", "171923.296000", "171923.296000", "171923.296000", "172023.234000", "172023.234000", "172023.234000", "172023.234000", "172023.250000", "172023.250000", "172023.250000", "172023.250000", "172023.250000", "172023.250000", "172023.250000", "172023.265000", "172023.265000", "172023.265000", "172023.265000", "172023.265000", "172023.265000", "172023.265000", "172023.281000", "172023.281000", "172023.281000", "172023.281000", "172023.281000", "172023.281000", "172023.281000", "172023.296000", "172023.296000", "172023.296000", "172123.234000", "172123.234000", "172123.234000", "172123.250000", "172123.250000", "172123.250000", "172123.250000", "172123.250000", "172123.250000", "172123.250000", "172123.265000", "172123.265000", "172123.265000", "172123.265000", "172123.265000", "172123.265000", "172123.265000", "172123.281000", "172123.281000", "172123.281000", "172123.281000", "172123.281000", "172123.281000", "172123.281000", "172123.296000", "172123.296000", "172123.296000", "172123.296000", "172223.234000", "172223.234000", "172223.234000", "172223.234000", "172223.250000", "172223.250000", "172223.250000", "172223.250000", "172223.250000", "172223.250000", "172223.250000", "172223.265000", "172223.265000", "172223.265000", "172223.265000", "172223.265000", "172223.265000", "172223.265000", "172223.281000", "172223.281000", "172223.281000", "172223.281000", "172223.281000", "172223.281000", "172223.281000", "172223.296000", "172223.296000", "172223.296000", "172323.234000", "172323.234000", "172323.234000", "172323.234000", "172323.250000", "172323.250000", "172323.250000", "172323.250000", "172323.250000", "172323.250000", "172323.250000", "172323.265000", "172323.265000", "172323.265000", "172323.265000", "172323.265000", "172323.265000", "172323.265000", "172323.281000", "172323.281000", "172323.281000", "172323.281000", "172323.281000", "172323.281000", "172323.281000", "172323.296000", "172323.296000", "172323.296000", "172423.234000", "172423.234000", "172423.234000", "172423.234000", "172423.250000", "172423.250000", "172423.250000", "172423.250000", "172423.250000", "172423.250000", "172423.250000", "172423.265000", "172423.265000", "172423.265000", "172423.265000", "172423.265000", "172423.265000", "172423.265000", "172423.281000", "172423.281000", "172423.281000", "172423.281000", "172423.281000", "172423.281000", "172423.281000", "172423.296000", "172423.296000", "172423.296000", "172423.296000", "172523.234000", "172523.234000", "172523.234000", "172523.234000", "172523.250000", "172523.250000", "172523.250000", "172523.250000", "172523.250000", "172523.250000", "172523.250000", "172523.265000", "172523.265000", "172523.265000", "172523.265000", "172523.265000", "172523.265000", "172523.265000", "172523.281000", "172523.281000", "172523.281000", "172523.281000", "172523.281000", "172523.281000", "172523.281000", "172523.296000", "172523.296000", "172523.296000", "172623.234000", "172623.234000", "172623.234000", "172623.234000", "172623.250000", "172623.250000", "172623.250000", "172623.250000", "172623.250000", "172623.250000", "172623.250000", "172623.265000", "172623.265000", "172623.265000", "172623.265000", "172623.265000", "172623.265000", "172623.265000", "172623.281000", "172623.281000", "172623.281000", "172623.281000", "172623.281000", "172623.281000", "172623.281000", "172623.296000", "172623.296000", "172623.296000", "172723.234000", "172723.234000", "172723.234000", "172723.234000", "172723.250000", "172723.250000", "172723.250000", "172723.250000", "172723.250000", "172723.250000", "172723.250000", "172723.265000", "172723.265000", "172723.265000", "172723.265000", "172723.265000", "172723.265000", "172723.265000", "172723.281000", "172723.281000", "172723.281000", "172723.281000", "172723.281000", "172723.281000", "172723.281000", "172723.296000", "172723.296000", "172723.296000", "172823.234000", "172823.234000", "172823.234000", "172823.234000", "172823.250000", "172823.250000", "172823.250000", "172823.250000", "172823.250000", "172823.250000", "172823.265000", "172823.265000", "172823.265000", "172823.265000", "172823.265000", "172823.265000", "172823.265000", "172823.281000", "172823.281000", "172823.281000", "172823.281000", "172823.281000", "172823.281000", "172823.281000", "172823.296000", "172823.296000", "172823.296000", "172823.296000", "172923.234000", "172923.234000", "172923.234000", "172923.234000", "172923.250000", "172923.250000", "172923.250000", "172923.250000", "172923.250000", "172923.250000", "172923.250000", "172923.265000", "172923.265000", "172923.265000", "172923.265000", "172923.265000", "172923.265000", "172923.265000", "172923.281000", "172923.281000", "172923.281000", "172923.281000", "172923.281000", "172923.281000", "172923.281000", "172923.296000", "172923.296000", "172923.296000", "173023.234000", "173023.234000", "173023.234000", "173023.234000", "173023.250000", "173023.250000", "173023.250000", "173023.250000", "173023.250000", "173023.250000", "173023.250000", "173023.265000", "173023.265000", "173023.265000", "173023.265000", "173023.265000", "173023.265000", "173023.265000", "173023.281000", "173023.281000", "173023.281000", "173023.281000", "173023.281000", "173023.281000", "173023.281000", "173023.296000", "173023.296000", "173023.296000", "173023.296000", "173123.234000", "173123.234000", "173123.234000", "173123.234000", "173123.250000", "173123.250000", "173123.250000", "173123.250000", "173123.250000", "173123.250000", "173123.250000", "173123.265000", "173123.265000", "173123.265000", "173123.265000", "173123.265000", "173123.265000", "173123.265000", "173123.281000", "173123.281000", "173123.281000", "173123.281000", "173123.281000", "173123.281000", "173123.281000", "173123.296000", "173123.296000", "173123.296000", "173223.234000", "173223.234000", "173223.234000", "173223.234000", "173223.250000", "173223.250000", "173223.250000", "173223.250000", "173223.250000", "173223.250000", "173223.250000", "173223.265000", "173223.265000", "173223.265000", "173223.265000", "173223.265000", "173223.265000", "173223.265000", "173223.281000", "173223.281000", "173223.281000", "173223.281000", "173223.281000", "173223.281000", "173223.281000", "173223.296000", "173223.296000", "173223.296000", "173323.234000", "173323.234000", "173323.234000", "173323.234000", "173323.250000", "173323.250000", "173323.250000", "173323.250000", "173323.250000", "173323.250000", "173323.250000", "173323.265000", "173323.265000", "173323.265000", "173323.265000", "173323.265000", "173323.265000", "173323.265000", "173323.281000", "173323.281000", "173323.281000", "173323.281000", "173323.281000", "173323.281000", "173323.281000", "173323.296000", "173323.296000", "173323.296000", "173423.234000", "173423.234000", "173423.234000", "173423.234000", "173423.250000", "173423.250000", "173423.250000", "173423.250000", "173423.250000", "173423.250000", "173423.250000", "173423.265000", "173423.265000", "173423.265000", "173423.265000", "173423.265000", "173423.265000", "173423.265000", "173423.281000", "173423.281000", "173423.281000", "173423.281000", "173423.281000", "173423.281000", "173423.281000", "173423.296000", "173423.296000", "173423.296000", "173523.234000", "173523.234000", "173523.234000", "173523.234000", "173523.250000", "173523.250000", "173523.250000", "173523.250000", "173523.250000", "173523.250000", "173523.265000", "173523.265000", "173523.265000", "173523.265000", "173523.265000", "173523.265000", "173523.281000", "173523.281000", "173523.281000", "173523.281000", "173523.281000", "173523.281000", "173523.281000", "173523.296000", "173523.296000", "173523.296000", "173523.296000", "173523.296000", "173623.234000", "173623.234000", "173623.234000", "173623.234000", "173623.250000", "173623.250000", "173623.250000", "173623.250000", "173623.250000", "173623.250000", "173623.250000", "173623.265000", "173623.265000", "173623.265000", "173623.265000", "173623.265000", "173623.281000", "173623.281000", "173623.281000", "173623.281000", "173623.281000", "173623.281000", "173623.281000", "173623.296000", "173623.296000", "173623.296000", "173623.296000", "173623.296000", "173623.296000", "173723.234000", "173723.234000", "173723.234000", "173723.234000", "173723.250000", "173723.250000", "173723.250000", "173723.250000", "173723.250000", "173723.250000", "173723.250000", "173723.265000", "173723.265000", "173723.265000", "173723.265000", "173723.265000", "173723.265000", "173723.265000", "173723.281000", "173723.281000", "173723.281000", "173723.281000", "173723.281000", "173723.281000", "173723.281000", "173723.296000", "173723.296000", "173723.296000", "173823.234000", "173823.234000", "173823.234000", "173823.234000", "173823.250000", "173823.250000", "173823.250000", "173823.250000", "173823.250000", "173823.250000", "173823.250000", "173823.265000", "173823.265000", "173823.265000", "173823.265000", "173823.265000", "173823.265000", "173823.265000", "173823.281000", "173823.281000", "173823.281000", "173823.281000", "173823.296000", "173823.296000", "173823.296000", "173823.296000", "173823.296000", "173823.296000", "173854.015000", "173854.015000", "173854.015000", "173854.015000", "173854.015000", "173854.015000", "173854.015000", "173854.031000", "173854.031000", "173854.031000", "173854.031000", "173854.031000", "173854.031000", "173854.046000", "173854.046000"],
