{
  "AcquisitionMatrixPE": 104,
  "AcquisitionNumber": 1,
  "AcquisitionTime": "15:23:8.887500",
  "BandwidthPerPixelPhaseEncode": 13.935,
  "BaseResolution": 104,
  "CoilString": "C:HEA;HEP",
  "ConversionSoftware": "dcm2niix",
  "ConversionSoftwareVersion": "v1.0.20210317",
  "DerivedVendorReportedEchoSpacing": 0.000690017,
  "DeviceSerialNumber": "35450",
  "DwellTime": 2.5e-06,
  "EchoTime": 0.0348,
  "EffectiveEchoSpacing": 0.000690017,
  "FlipAngle": 55,
  "ImageComments": "Unaliased MB8/PE3",
  "ImageOrientationPatientDICOM": [1, -0.000135443, -0.000745015, 5.74508e-08, 0.983887, -0.178793],
  "ImageType": [
    "ORIGINAL",
    "PRIMARY",
    "M",
    "MB",
    "ND",
    "MOSAIC"
],
  "ImagingFrequency": 123.235,
  "InPlanePhaseEncodingDirectionDICOM": "COL",
  "InstitutionAddress": "Univeristy Ave. 197,Newark,North East,US,07102-1814",
  "InstitutionName": "RUBIC",
  "InstitutionalDepartmentName": "Department",
  "MRAcquisitionType": "2D",
  "MagneticFieldStrength": 3,
  "Manufacturer": "Siemens",
  "ManufacturersModelName": "TrioTim",
  "Modality": "MR",
  "MultibandAccelerationFactor": 8,
  "PartialFourier": 0.875,
  "PatientPosition": "HFS",
  "PercentPhaseFOV": 100,
  "PercentSampling": 100,
  "PhaseEncodingDirection": "j-",
  "PhaseEncodingSteps": 91,
  "PhaseResolution": 1,
  "PixelBandwidth": 1923,
  "ProcedureStepDescription": "Cole^Michael",
  "ProtocolName": "cmrr_mbep2d_bold_2mm_MB8_Task_8x",
  "PulseSequenceDetails": "%CustomerSeq%\\cmrr_mbep2d_bold",
  "ReceiveCoilName": "32Ch_Head",
  "ReconMatrixPE": 104,
  "RepetitionTime": 0.785,
  "SAR": 0.129049,
  "ScanOptions": "PFP\\FS",
  "ScanningSequence": "EP",
  "SequenceName": "epfid2d1_104",
  "SequenceVariant": "SK\\SS",
  "SeriesDescription": "cmrr_mbep2d_bold_2mm_MB8_Task_8x",
  "SeriesNumber": 15,
  "ShimSetting": [2111, -403, -7489, 215, 59, -345, 228, 82],
  "SliceThickness": 2,
  "SliceTiming": [0, 0.4375, 0.0875, 0.525, 0.175, 0.6125, 0.2625, 0.7, 0.35, 0, 0.4375, 0.0875, 0.525, 0.175, 0.6125, 0.2625, 0.7, 0.35, 0, 0.4375, 0.0875, 0.525, 0.175, 0.6125, 0.2625, 0.7, 0.35, 0, 0.4375, 0.0875, 0.525, 0.175, 0.6125, 0.2625, 0.7, 0.35, 0, 0.4375, 0.0875, 0.525, 0.175, 0.6125, 0.2625, 0.7, 0.35, 0, 0.4375, 0.0875, 0.525, 0.175, 0.6125, 0.2625, 0.7, 0.35, 0, 0.4375, 0.0875, 0.525, 0.175, 0.6125, 0.2625, 0.7, 0.35, 0, 0.4375, 0.0875, 0.525, 0.175, 0.6125, 0.2625, 0.7, 0.35],
  "SoftwareVersions": "syngo MR B19",
  "SpacingBetweenSlices": 2,
  "StationName": "MRC35450",
  "TaskName": "cpro",
  "TotalReadoutTime": 0.0710717,
  "TxRefAmp": 310.758,
  "dcmmeta_affine": [
    [-1.9999994039535522, 1.1490166684779979e-07, -0.0015144535573199391, 101.21371459960938],
    [0.0002708868123590946, 1.9677734375, -0.35758596658706665, -73.25880432128906],
    [-0.0014900302048772573, 0.3575860857963562, 1.9677728414535522, -94.5534439086914],
    [0.0, 0.0, 0.0, 1.0]
],
  "dcmmeta_reorient_transform": [
    [0.0, -1.0, 0.0, 103.0],
    [1.0, 0.0, 0.0, 0.0],
    [0.0, 0.0, 1.0, 0.0],
    [0.0, 0.0, 0.0, 1.0]
],
  "dcmmeta_shape": [104, 104, 72, 581],
  "dcmmeta_slice_dim": 2,
  "dcmmeta_version": 0.6,
  "global": {
    "const": {
      "AcquisitionMatrix": [104, 0, 0, 104],
      "AngioFlag": "N",
      "BitsAllocated": 16,
      "BitsStored": 12,
      "Columns": 936,
      "EchoNumbers": 1,
      "EchoTime": 34.8,
      "EchoTrainLength": 1,
      "FlipAngle": 55.0,
      "HighBit": 11,
      "ImageOrientationPatient": [0.99999971330374, -0.0001354434054, -0.0007450151108, 5.7450833e-08, 0.98388670563677, -0.178793038095],
      "ImagePositionPatient": [-933.21353292765, -947.90291011682, 91.653582461203],
      "ImageType": [
        "ORIGINAL",
        "PRIMARY",
        "M",
        "MB",
        "ND",
        "MOSAIC"
],
      "ImagedNucleus": "1H",
      "ImagingFrequency": 123.235048,
      "InPlanePhaseEncodingDirection": "COL",
      "MRAcquisitionType": "2D",
      "MagneticFieldStrength": 3.0,
      "Manufacturer": "SIEMENS",
      "ManufacturerModelName": "TrioTim",
      "Modality": "MR",
      "NumberOfAverages": 1.0,
      "NumberOfPhaseEncodingSteps": 91,
      "PercentPhaseFieldOfView": 100.0,
      "PercentSampling": 100.0,
      "PerformedProcedureStepStartTime": "140722.093000",
      "PhotometricInterpretation": "MONOCHROME2",
      "PixelBandwidth": 1923.0,
      "PixelRepresentation": 0,
      "PixelSpacing": [2.0, 2.0],
      "ProtocolName": "cmrr_mbep2d_bold_2mm_MB8_Task_8x",
      "RepetitionTime": 785.0,
      "Rows": 936,
      "SAR": 0.12904899149651,
      "SamplesPerPixel": 1,
      "ScanOptions": [
        "PFP",
        "FS"
],
      "ScanningSequence": "EP",
      "SequenceName": "epfid2d1_104",
      "SequenceVariant": [
        "SK",
        "SS"
],
      "SeriesDescription": "cmrr_mbep2d_bold_2mm_MB8_Task_8x",
      "SeriesNumber": 15,
      "SeriesTime": "155352.109000",
      "SliceLocation": -80.008331332601,
      "SliceThickness": 2.0,
      "SmallestImagePixelValue": 0,
      "SoftwareVersions": "syngo MR B19",
      "SpacingBetweenSlices": 1.9999999465957,
      "SpecificCharacterSet": "ISO_IR 100",
      "StudyID": "1",
      "StudyTime": "140722.062000",
      "TransmitCoilName": "Body",
      "VariableFlipAngleFlag": "N",
      "WindowCenterWidthExplanation": "Algo1",
      "dBdt": 0.0},
    "slices": {}
  },
  "time": {
    "samples": {
      "AcquisitionNumber": [1, 2, 3, 4, 5, 6, 7, 8, 9, 10, 11, 12, 13, 14, 15, 16, 17, 18, 19, 20, 21, 22, 23, 24, 25, 26, 27, 28, 29, 30, 31, 32, 33, 34, 35, 36, 37, 38, 39, 40, 41, 42, 43, 44, 45, 46, 47, 48, 49, 50, 51, 52, 53, 54, 55, 56, 57, 58, 59, 60, 61, 62, 63, 64, 65, 66, 67, 68, 69, 70, 71, 72, 73, 74, 75, 76, 77, 78, 79, 80, 81, 82, 83, 84, 85, 86, 87, 88, 89, 90, 91, 92, 93, 94, 95, 96, 97, 98, 99, 100, 101, 102, 103, 104, 105, 106, 107, 108, 109, 110, 111, 112, 113, 114, 115, 116, 117, 118, 119, 120, 121, 122, 123, 124, 125, 126, 127, 128, 129, 130, 131, 132, 133, 134, 135, 136, 137, 138, 139, 140, 141, 142, 143, 144, 145, 146, 147, 148, 149, 150, 151, 152, 153, 154, 155, 156, 157, 158, 159, 160, 161, 162, 163, 164, 165, 166, 167, 168, 169, 170, 171, 172, 173, 174, 175, 176, 177, 178, 179, 180, 181, 182, 183, 184, 185, 186, 187, 188, 189, 190, 191, 192, 193, 194, 195, 196, 197, 198, 199, 200, 201, 202, 203, 204, 205, 206, 207, 208, 209, 210, 211, 212, 213, 214, 215, 216, 217, 218, 219, 220, 221, 222, 223, 224, 225, 226, 227, 228, 229, 230, 231, 232, 233, 234, 235, 236, 237, 238, 239, 240, 241, 242, 243, 244, 245, 246, 247, 248, 249, 250, 251, 252, 253, 254, 255, 256, 257, 258, 259, 260, 261, 262, 263, 264, 265, 266, 267, 268, 269, 270, 271, 272, 273, 274, 275, 276, 277, 278, 279, 280, 281, 282, 283, 284, 285, 286, 287, 288, 289, 290, 291, 292, 293, 294, 295, 296, 297, 298, 299, 300, 301, 302, 303, 304, 305, 306, 307, 308, 309, 310, 311, 312, 313, 314, 315, 316, 317, 318, 319, 320, 321, 322, 323, 324, 325, 326, 327, 328, 329, 330, 331, 332, 333, 334, 335, 336, 337, 338, 339, 340, 341, 342, 343, 344, 345, 346, 347, 348, 349, 350, 351, 352, 353, 354, 355, 356, 357, 358, 359, 360, 361, 362, 363, 364, 365, 366, 367, 368, 369, 370, 371, 372, 373, 374, 375, 376, 377, 378, 379, 380, 381, 382, 383, 384, 385, 386, 387, 388, 389, 390, 391, 392, 393, 394, 395, 396, 397, 398, 399, 400, 401, 402, 403, 404, 405, 406, 407, 408, 409, 410, 411, 412, 413, 414, 415, 416, 417, 418, 419, 420, 421, 422, 423, 424, 425, 426, 427, 428, 429, 430, 431, 432, 433, 434, 435, 436, 437, 438, 439, 440, 441, 442, 443, 444, 445, 446, 447, 448, 449, 450, 451, 452, 453, 454, 455, 456, 457, 458, 459, 460, 461, 462, 463, 464, 465, 466, 467, 468, 469, 470, 471, 472, 473, 474, 475, 476, 477, 478, 479, 480, 481, 482, 483, 484, 485, 486, 487, 488, 489, 490, 491, 492, 493, 494, 495, 496, 497, 498, 499, 500, 501, 502, 503, 504, 505, 506, 507, 508, 509, 510, 511, 512, 513, 514, 515, 516, 517, 518, 519, 520, 521, 522, 523, 524, 525, 526, 527, 528, 529, 530, 531, 532, 533, 534, 535, 536, 537, 538, 539, 540, 541, 542, 543, 544, 545, 546, 547, 548, 549, 550, 551, 552, 553, 554, 555, 556, 557, 558, 559, 560, 561, 562, 563, 564, 565, 566, 567, 568, 569, 570, 571, 572, 573, 574, 575, 576, 577, 578, 579, 580, 581],
      "AcquisitionTime": ["152308.887500", "152309.675000", "152310.465000", "152311.252500", "152312.040000", "152312.830000", "152313.617500", "152314.405000", "152315.192500", "152315.982500", "152316.770000", "152317.557500", "152318.345000", "152319.135000", "152319.922500", "152320.710000", "152321.497500", "152322.287500", "152323.075000", "152323.862500", "152324.650000", "152325.440000", "152326.227500", "152327.015000", "152327.802500", "152328.592500", "152329.380000", "152330.167500", "152330.957500", "152331.745000", "152332.532500", "152333.320000", "152334.110000", "152334.897500", "152335.685000", "152336.472500", "152337.262500", "152338.050000", "152338.837500", "152339.625000", "152340.415000", "152341.202500", "152341.990000", "152342.777500", "152343.567500", "152344.355000", "152345.142500", "152345.932500", "152346.720000", "152347.507500", "152348.295000", "152349.085000", "152349.872500", "152350.660000", "152351.447500", "152352.237500", "152353.025000", "152353.812500", "152354.600000", "152355.390000", "152356.177500", "152356.965000", "152357.752500", "152358.542500", "152359.330000", "152400.117500", "152400.905000", "152401.695000", "152402.482500", "152403.270000", "152404.060000", "152404.847500", "152405.635000", "152406.422500", "152407.212500", "152408.000000", "152408.787500", "152409.575000", "152410.365000", "152411.152500", "152411.940000", "152412.727500", "152413.517500", "152414.305000", "152415.092500", "152415.880000", "152416.670000", "152417.457500", "152418.245000", "152419.032500", "152419.822500", "152420.610000", "152421.397500", "152422.187500", "152422.975000", "152423.762500", "152424.550000", "152425.340000", "152426.127500", "152426.915000", "152427.702500", "152428.492500", "152429.280000", "152430.067500", "152430.855000", "152431.645000", "152432.432500", "152433.220000", "152434.007500", "152434.797500", "152435.585000", "152436.372500", "152437.160000", "152437.950000", "152438.737500", "152439.525000", "152440.315000", "152441.102500", "152441.890000", "152442.677500", "152443.467500", "152444.255000", "152445.042500", "152445.830000", "152446.620000", "152447.407500", "152448.195000", "152448.982500", "152449.772500", "152450.560000", "152451.347500", "152452.135000", "152452.925000", "152453.712500", "152454.500000", "152455.287500", "152456.077500", "152456.865000", "152457.652500", "152458.442500", "152459.230000", "152500.017500", "152500.805000", "152501.595000", "152502.382500", "152503.170000", "152503.957500", "152504.747500", "152505.535000", "152506.322500", "152507.110000", "152507.900000", "152508.687500", "152509.475000", "152510.262500", "152511.052500", "152511.840000", "152512.627500", "152513.415000", "152514.205000", "152514.992500", "152515.780000", "152516.570000", "152517.357500", "152518.145000", "152518.932500", "152519.722500", "152520.510000", "152521.297500", "152522.085000", "152522.875000", "152523.662500", "152524.450000", "152525.237500", "152526.027500", "152526.815000", "152527.602500", "152528.390000", "152529.180000", "152529.967500", "152530.755000", "152531.542500", "152532.332500", "152533.120000", "152533.907500", "152534.697500", "152535.485000", "152536.272500", "152537.060000", "152537.850000", "152538.637500", "152539.425000", "152540.212500", "152541.002500", "152541.790000", "152542.577500", "152543.365000", "152544.155000", "152544.942500", "152545.730000", "152546.517500", "152547.307500", "152548.095000", "152548.882500", "152549.670000", "152550.460000", "152551.247500", "152552.035000", "152552.825000", "152553.612500", "152554.400000", "152555.187500", "152555.977500", "152556.765000", "152557.552500", "152558.340000", "152559.130000", "152559.917500", "152600.705000", "152601.492500", "152602.282500", "152603.070000", "152603.857500", "152604.645000", "152605.435000", "152606.222500", "152607.010000", "152607.797500", "152608.587500", "152609.375000", "152610.162500", "152610.952500", "152611.740000", "152612.527500", "152613.315000", "152614.105000", "152614.892500", "152615.680000", "152616.467500", "152617.257500", "152618.045000", "152618.832500", "152619.620000", "152620.410000", "152621.197500", "152621.985000", "152622.772500", "152623.562500", "152624.350000", "152625.137500", "152625.925000", "152626.715000", "152627.502500", "152628.290000", "152629.080000", "152629.867500", "152630.655000", "152631.442500", "152632.232500", "152633.020000", "152633.807500", "152634.595000", "152635.385000", "152636.172500", "152636.960000", "152637.747500", "152638.537500", "152639.325000", "152640.112500", "152640.900000", "152641.690000", "152642.477500", "152643.265000", "152644.052500", "152644.842500", "152645.630000", "152646.417500", "152647.207500", "152647.995000", "152648.782500", "152649.570000", "152650.360000", "152651.147500", "152651.935000", "152652.722500", "152653.512500", "152654.300000", "152655.087500", "152655.875000", "152656.665000", "152657.452500", "152658.240000", "152659.027500", "152659.817500", "152700.605000", "152701.392500", "152702.182500", "152702.970000", "152703.757500", "152704.545000", "152705.335000", "152706.122500", "152706.910000", "152707.697500", "152708.487500", "152709.275000", "152710.062500", "152710.850000", "152711.640000", "152712.427500", "152713.215000", "152714.002500", "152714.792500", "152715.580000", "152716.367500", "152717.155000", "152717.945000", "152718.732500", "152719.520000", "152720.310000", "152721.097500", "152721.885000", "152722.672500", "152723.462500", "152724.250000", "152725.037500", "152725.825000", "152726.615000", "152727.402500", "152728.190000", "152728.977500", "152729.767500", "152730.555000", "152731.342500", "152732.130000", "152732.920000", "152733.707500", "152734.495000", "152735.282500", "152736.072500", "152736.860000", "152737.647500", "152738.437500", "152739.225000", "152740.012500", "152740.800000", "152741.590000", "152742.377500", "152743.165000", "152743.952500", "152744.742500", "152745.530000", "152746.317500", "152747.105000", "152747.895000", "152748.682500", "152749.470000", "152750.257500", "152751.047500", "152751.835000", "152752.622500", "152753.410000", "152754.200000", "152754.987500", "152755.775000", "152756.565000", "152757.352500", "152758.140000", "152758.927500", "152759.717500", "152800.505000", "152801.292500", "152802.080000", "152802.870000", "152803.657500", "152804.445000", "152805.232500", "152806.022500", "152806.810000", "152807.597500", "152808.385000", "152809.175000", "152809.962500", "152810.750000", "152811.537500", "152812.327500", "152813.115000", "152813.902500", "152814.692500", "152815.480000", "152816.267500", "152817.055000", "152817.845000", "152818.632500", "152819.420000", "152820.207500", "152820.997500", "152821.785000", "152822.572500", "152823.360000", "152824.150000", "152824.937500", "152825.725000", "152826.512500", "152827.302500", "152828.090000", "152828.877500", "152829.665000", "152830.455000", "152831.242500", "152832.030000", "152832.820000", "152833.607500", "152834.395000", "152835.182500", "152835.972500", "152836.760000", "152837.547500", "152838.335000", "152839.125000", "152839.912500", "152840.700000", "152841.487500", "152842.277500", "152843.065000", "152843.852500", "152844.640000", "152845.430000", "152846.217500", "152847.005000", "152847.792500", "152848.582500", "152849.370000", "152850.157500", "152850.947500", "152851.735000", "152852.522500", "152853.310000", "152854.100000", "152854.887500", "152855.675000", "152856.462500", "152857.252500", "152858.040000", "152858.827500", "152859.615000", "152900.405000", "152901.192500", "152901.980000", "152902.767500", "152903.557500", "152904.345000", "152905.132500", "152905.920000", "152906.710000", "152907.497500", "152908.285000", "152909.075000", "152909.862500", "152910.650000", "152911.437500", "152912.227500", "152913.015000", "152913.802500", "152914.590000", "152915.380000", "152916.167500", "152916.955000", "152917.742500", "152918.532500", "152919.320000", "152920.107500", "152920.895000", "152921.685000", "152922.472500", "152923.260000", "152924.047500", "152924.837500", "152925.625000", "152926.412500", "152927.202500", "152927.990000", "152928.777500", "152929.565000", "152930.355000", "152931.142500", "152931.930000", "152932.717500", "152933.507500", "152934.295000", "152935.082500", "152935.870000", "152936.660000", "152937.447500", "152938.235000", "152939.022500", "152939.812500", "152940.600000", "152941.387500", "152942.175000", "152942.965000", "152943.752500", "152944.540000", "152945.330000", "152946.117500", "152946.905000", "152947.692500", "152948.482500", "152949.270000", "152950.057500", "152950.845000", "152951.635000", "152952.422500", "152953.210000", "152953.997500", "152954.787500", "152955.575000", "152956.362500", "152957.150000", "152957.940000", "152958.727500", "152959.515000", "153000.302500", "153001.092500", "153001.880000", "153002.667500", "153003.457500", "153004.245000", "153005.032500", "153005.820000", "153006.610000", "153007.397500", "153008.185000", "153008.972500", "153009.762500", "153010.550000", "153011.337500", "153012.125000", "153012.915000", "153013.702500", "153014.490000", "153015.277500", "153016.067500", "153016.855000", "153017.642500", "153018.432500", "153019.220000", "153020.007500", "153020.795000", "153021.585000", "153022.372500", "153023.160000", "153023.947500", "153024.737500", "153025.525000", "153026.312500", "153027.100000", "153027.890000", "153028.677500", "153029.465000", "153030.252500", "153031.042500", "153031.830000", "153032.617500", "153033.405000", "153034.195000", "153034.982500", "153035.770000", "153036.560000", "153037.347500", "153038.135000", "153038.922500", "153039.712500", "153040.500000", "153041.287500", "153042.075000", "153042.865000", "153043.652500", "153044.440000", "153045.227500", "153046.017500"],
      "ContentTime": ["155352.109000", "155352.109000", "155352.109000", "155352.109000", "155452.078000", "155452.078000", "155452.078000", "155452.093000", "155452.093000", "155452.093000", "155452.093000", "155452.093000", "155452.093000", "155452.093000", "155452.109000", "155452.109000", "155452.109000", "155452.109000", "155452.109000", "155452.109000", "155452.109000", "155452.125000", "155452.125000", "155452.125000", "155452.125000", "155452.125000", "155452.125000", "155452.140000", "155452.140000", "155452.140000", "155452.140000", "155452.140000", "155552.078000", "155552.078000", "155552.078000", "155552.093000", "155552.093000", "155552.093000", "155552.093000", "155552.093000", "155552.109000", "155552.109000", "155552.109000", "155552.109000", "155552.109000", "155552.109000", "155552.109000", "155552.125000", "155552.125000", "155552.125000", "155552.125000", "155552.125000", "155552.125000", "155552.125000", "155552.140000", "155552.140000", "155552.140000", "155552.140000", "155552.140000", "155552.140000", "155652.078000", "155652.078000", "155652.078000", "155652.093000", "155652.093000", "155652.093000", "155652.093000", "155652.093000", "155652.093000", "155652.093000", "155652.109000", "155652.109000", "155652.109000", "155652.109000", "155652.109000", "155652.109000", "155652.109000", "155652.125000", "155652.125000", "155652.125000", "155652.125000", "155652.125000", "155652.125000", "155652.140000", "155652.140000", "155652.140000", "155652.140000", "155752.078000", "155752.078000", "155752.078000", "155752.093000", "155752.093000", "155752.093000", "155752.093000", "155752.093000", "155752.093000", "155752.093000", "155752.109000", "155752.109000", "155752.109000", "155752.109000", "155752.109000", "155752.109000", "155752.109000", "155752.125000", "155752.125000", "155752.125000", "155752.125000", "155752.125000", "155752.125000", "155752.140000", "155752.140000", "155752.140000", "155752.140000", "155752.140000", "155852.078000", "155852.078000", "155852.078000", "155852.093000", "155852.093000", "155852.093000", "155852.093000", "155852.093000", "155852.093000", "155852.093000", "155852.109000", "155852.109000", "155852.109000", "155852.109000", "155852.109000", "155852.109000", "155852.109000", "155852.125000", "155852.125000", "155852.125000", "155852.125000", "155852.125000", "155852.125000", "155852.140000", "155852.140000", "155852.140000", "155852.140000", "155952.078000", "155952.078000", "155952.078000", "155952.093000", "155952.093000", "155952.093000", "155952.093000", "155952.093000", "155952.093000", "155952.093000", "155952.109000", "155952.109000", "155952.109000", "155952.109000", "155952.109000", "155952.109000", "155952.109000", "155952.125000", "155952.125000", "155952.125000", "155952.125000", "155952.125000", "155952.125000", "155952.140000", "155952.140000", "155952.140000", "155952.140000", "160052.078000", "160052.078000", "160052.078000", "160052.093000", "160052.093000", "160052.093000", "160052.093000", "160052.093000", "160052.093000", "160052.109000", "160052.109000", "160052.109000", "160052.109000", "160052.109000", "160052.125000", "160052.125000", "160052.125000", "160052.125000", "160052.125000", "160052.125000", "160052.125000", "160052.140000", "160052.140000", "160052.140000", "160052.140000", "160052.140000", "160052.140000", "160052.140000", "160152.078000", "160152.078000", "160152.078000", "160152.093000", "160152.093000", "160152.093000", "160152.093000", "160152.093000", "160152.093000", "160152.093000", "160152.109000", "160152.109000", "160152.109000", "160152.109000", "160152.109000", "160152.109000", "160152.125000", "160152.125000", "160152.125000", "160152.125000", "160152.125000", "160152.140000", "160152.140000", "160152.140000", "160152.140000", "160152.140000", "160152.140000", "160252.078000", "160252.078000", "160252.078000", "160252.093000", "160252.093000", "160252.093000", "160252.093000", "160252.093000", "160252.093000", "160252.093000", "160252.109000", "160252.109000", "160252.109000", "160252.109000", "160252.109000", "160252.109000", "160252.109000", "160252.125000", "160252.125000", "160252.125000", "160252.125000", "160252.125000", "160252.125000", "160252.140000", "160252.140000", "160252.140000", "160252.140000", "160252.140000", "160352.078000", "160352.078000", "160352.078000", "160352.093000", "160352.093000", "160352.093000", "160352.093000", "160352.093000", "160352.093000", "160352.093000", "160352.109000", "160352.109000", "160352.109000", "160352.109000", "160352.109000", "160352.109000", "160352.109000", "160352.125000", "160352.125000", "160352.125000", "160352.125000", "160352.125000", "160352.125000", "160352.125000", "160352.140000", "160352.140000", "160352.140000", "160452.093000", "160452.093000", "160452.093000", "160452.093000", "160452.093000", "160452.093000", "160452.093000", "160452.109000", "160452.109000", "160452.109000", "160452.109000", "160452.109000", "160452.109000", "160452.109000", "160452.125000", "160452.125000", "160452.125000", "160452.125000", "160452.125000", "160452.125000", "160452.125000", "160452.140000", "160452.140000", "160452.140000", "160452.140000", "160452.140000", "160452.156000", "160452.156000", "160552.093000", "160552.093000", "160552.093000", "160552.093000", "160552.093000", "160552.093000", "160552.093000", "160552.109000", "160552.109000", "160552.109000", "160552.109000", "160552.109000", "160552.109000", "160552.109000", "160552.125000", "160552.125000", "160552.125000", "160552.125000", "160552.125000", "160552.125000", "160552.125000", "160552.140000", "160552.140000", "160552.140000", "160552.140000", "160552.140000", "160552.140000", "160652.093000", "160652.093000", "160652.093000", "160652.093000", "160652.093000", "160652.093000", "160652.093000", "160652.109000", "160652.109000", "160652.109000", "160652.109000", "160652.109000", "160652.109000", "160652.109000", "160652.125000", "160652.125000", "160652.125000", "160652.125000", "160652.125000", "160652.125000", "160652.125000", "160652.140000", "160652.140000", "160652.140000", "160652.140000", "160652.140000", "160652.156000", "160752.093000", "160752.093000", "160752.093000", "160752.093000", "160752.093000", "160752.093000", "160752.093000", "160752.109000", "160752.109000", "160752.109000", "160752.109000", "160752.109000", "160752.109000", "160752.109000", "160752.125000", "160752.125000", "160752.125000", "160752.125000", "160752.125000", "160752.125000", "160752.125000", "160752.140000", "160752.140000", "160752.140000", "160752.140000", "160752.140000", "160752.156000", "160752.156000", "160852.093000", "160852.093000", "160852.093000", "160852.093000", "160852.093000", "160852.093000", "160852.093000", "160852.109000", "160852.109000", "160852.109000", "160852.109000", "160852.109000", "160852.109000", "160852.109000", "160852.125000", "160852.125000", "160852.125000", "160852.125000", "160852.125000", "160852.125000", "160852.125000", "160852.140000", "160852.140000", "160852.140000", "160852.140000", "160852.140000", "160852.140000", "160952.093000", "160952.093000", "160952.093000", "160952.093000", "160952.093000", "160952.093000", "160952.093000", "160952.109000", "160952.109000", "160952.109000", "160952.109000", "160952.109000", "160952.109000", "160952.125000", "160952.125000", "160952.125000", "160952.125000", "160952.125000", "160952.125000", "160952.125000", "160952.140000", "160952.140000", "160952.140000", "160952.140000", "160952.140000", "160952.140000", "160952.156000", "161052.093000", "161052.093000", "161052.093000", "161052.093000", "161052.093000", "161052.093000", "161052.109000", "161052.109000", "161052.109000", "161052.109000", "161052.109000", "161052.109000", "161052.109000", "161052.125000", "161052.125000", "161052.125000", "161052.125000", "161052.125000", "161052.125000", "161052.125000", "161052.140000", "161052.140000", "161052.140000", "161052.140000", "161052.140000", "161052.140000", "161052.140000", "161052.156000", "161152.093000", "161152.093000", "161152.093000", "161152.093000", "161152.093000", "161152.093000", "161152.093000", "161152.109000", "161152.109000", "161152.109000", "161152.109000", "161152.109000", "161152.109000", "161152.109000", "161152.125000", "161152.125000", "161152.125000", "161152.125000", "161152.125000", "161152.125000", "161152.125000", "161152.140000", "161152.140000", "161152.140000", "161152.140000", "161152.140000", "161152.140000", "161252.078000", "161252.078000", "161252.078000", "161252.078000", "161252.093000", "161252.093000", "161252.093000", "161252.093000", "161252.109000", "161252.109000", "161252.109000", "161252.109000", "161252.109000", "161252.109000", "161252.109000", "161252.125000", "161252.125000", "161252.125000", "161252.125000", "161252.125000", "161252.125000", "161252.125000", "161252.140000", "161252.140000", "161252.140000", "161252.140000", "161252.140000", "161252.156000", "161352.078000", "161352.078000", "161352.078000", "161352.078000", "161352.093000", "161352.093000", "161352.093000", "161352.093000", "161352.093000", "161352.093000", "161352.093000", "161352.109000", "161352.109000", "161352.109000", "161352.109000", "161352.109000", "161352.109000", "161352.109000", "161352.125000", "161352.125000", "161352.125000", "161352.125000", "161352.125000", "161352.140000", "161352.140000", "161352.140000", "161352.140000", "161451.625000", "161451.625000", "161451.640000", "161451.640000", "161451.640000", "161451.640000", "161451.640000", "161451.640000", "161451.640000", "161451.656000", "161451.656000", "161451.656000", "161451.656000", "161451.656000", "161451.656000", "161451.656000", "161451.671000", "161451.671000", "161451.671000", "161451.671000", "161451.671000", "161451.671000", "161451.671000", "161451.687000", "161451.687000", "161451.687000", "161451.687000", "161451.687000"],
