{
  "AcquisitionMatrixPE": 104,
  "AcquisitionNumber": 1,
  "AcquisitionTime": "14:59:45.917500",
  "BandwidthPerPixelPhaseEncode": 13.935,
  "BaseResolution": 104,
  "CoilString": "C:HEA;HEP",
  "ConversionSoftware": "dcm2niix",
  "ConversionSoftwareVersion": "v1.0.20210317",
  "DerivedVendorReportedEchoSpacing": 0.000690017,
  "DeviceSerialNumber": "35450",
  "DwellTime": 2.5e-06,
  "EchoTime": 0.0348,
  "EffectiveEchoSpacing": 0.000690017,
  "FlipAngle": 55,
  "ImageComments": "Unaliased MB8/PE3",
  "ImageOrientationPatientDICOM": [1, -0.000135443, -0.000745015, 5.74508e-08, 0.983887, -0.178793],
  "ImageType": [
    "ORIGINAL",
    "PRIMARY",
    "M",
    "MB",
    "ND",
    "MOSAIC"
],
  "ImagingFrequency": 123.235,
  "InPlanePhaseEncodingDirectionDICOM": "COL",
  "InstitutionAddress": "Univeristy Ave. 197,Newark,North East,US,07102-1814",
  "InstitutionName": "RUBIC",
  "InstitutionalDepartmentName": "Department",
  "MRAcquisitionType": "2D",
  "MagneticFieldStrength": 3,
  "Manufacturer": "Siemens",
  "ManufacturersModelName": "TrioTim",
  "Modality": "MR",
  "MultibandAccelerationFactor": 8,
  "PartialFourier": 0.875,
  "PatientPosition": "HFS",
  "PercentPhaseFOV": 100,
  "PercentSampling": 100,
  "PhaseEncodingDirection": "j-",
  "PhaseEncodingSteps": 91,
  "PhaseResolution": 1,
  "PixelBandwidth": 1923,
  "ProcedureStepDescription": "Cole^Michael",
  "ProtocolName": "cmrr_mbep2d_bold_2mm_MB8_Rest",
  "PulseSequenceDetails": "%CustomerSeq%\\cmrr_mbep2d_bold",
  "ReceiveCoilName": "32Ch_Head",
  "ReconMatrixPE": 104,
  "RepetitionTime": 0.785,
  "SAR": 0.117518,
  "ScanOptions": "PFP\\FS",
  "ScanningSequence": "EP",
  "SequenceName": "epfid2d1_104",
  "SequenceVariant": "SK\\SS",
  "SeriesDescription": "cmrr_mbep2d_bold_2mm_MB8_Rest",
  "SeriesNumber": 11,
  "ShimSetting": [2111, -403, -7489, 215, 59, -345, 228, 82],
  "SliceThickness": 2,
  "SliceTiming": [0, 0.4375, 0.0875, 0.525, 0.175, 0.6125, 0.2625, 0.7, 0.35, 0, 0.4375, 0.0875, 0.525, 0.175, 0.6125, 0.2625, 0.7, 0.35, 0, 0.4375, 0.0875, 0.525, 0.175, 0.6125, 0.2625, 0.7, 0.35, 0, 0.4375, 0.0875, 0.525, 0.175, 0.6125, 0.2625, 0.7, 0.35, 0, 0.4375, 0.0875, 0.525, 0.175, 0.6125, 0.2625, 0.7, 0.35, 0, 0.4375, 0.0875, 0.525, 0.175, 0.6125, 0.2625, 0.7, 0.35, 0, 0.4375, 0.0875, 0.525, 0.175, 0.6125, 0.2625, 0.7, 0.35, 0, 0.4375, 0.0875, 0.525, 0.175, 0.6125, 0.2625, 0.7, 0.35],
  "SoftwareVersions": "syngo MR B19",
  "SpacingBetweenSlices": 2,
  "StationName": "MRC35450",
  "TaskName": "rest",
  "TotalReadoutTime": 0.0710717,
  "TxRefAmp": 310.758,
  "dcmmeta_affine": [
    [-1.9999994039535522, 1.1490166684779979e-07, -0.0015144535573199391, 101.21371459960938],
    [0.0002708868123590946, 1.9677734375, -0.35758596658706665, -73.25880432128906],
    [-0.0014900302048772573, 0.3575860857963562, 1.9677728414535522, -94.5534439086914],
    [0.0, 0.0, 0.0, 1.0]
],
  "dcmmeta_reorient_transform": [
    [0.0, -1.0, 0.0, 103.0],
    [1.0, 0.0, 0.0, 0.0],
    [0.0, 0.0, 1.0, 0.0],
    [0.0, 0.0, 0.0, 1.0]
],
  "dcmmeta_shape": [104, 104, 72, 1070],
  "dcmmeta_slice_dim": 2,
  "dcmmeta_version": 0.6,
  "global": {
    "const": {
      "AcquisitionMatrix": [104, 0, 0, 104],
      "AngioFlag": "N",
      "BitsAllocated": 16,
      "BitsStored": 12,
      "Columns": 936,
      "EchoNumbers": 1,
      "EchoTime": 34.8,
      "EchoTrainLength": 1,
      "FlipAngle": 55.0,
      "HighBit": 11,
      "ImageOrientationPatient": [0.99999971330374, -0.0001354434054, -0.0007450151108, 5.7450833e-08, 0.98388670563677, -0.178793038095],
      "ImagePositionPatient": [-933.21353292765, -947.90291011682, 91.653582461203],
      "ImageType": [
        "ORIGINAL",
        "PRIMARY",
        "M",
        "MB",
        "ND",
        "MOSAIC"
],
      "ImagedNucleus": "1H",
      "ImagingFrequency": 123.234988,
      "InPlanePhaseEncodingDirection": "COL",
      "MRAcquisitionType": "2D",
      "MagneticFieldStrength": 3.0,
      "Manufacturer": "SIEMENS",
      "ManufacturerModelName": "TrioTim",
      "Modality": "MR",
      "NumberOfAverages": 1.0,
      "NumberOfPhaseEncodingSteps": 91,
      "PercentPhaseFieldOfView": 100.0,
      "PercentSampling": 100.0,
      "PerformedProcedureStepStartTime": "140722.093000",
      "PhotometricInterpretation": "MONOCHROME2",
      "PixelBandwidth": 1923.0,
      "PixelRepresentation": 0,
      "PixelSpacing": [2.0, 2.0],
      "ProtocolName": "cmrr_mbep2d_bold_2mm_MB8_Rest",
      "RepetitionTime": 785.0,
      "Rows": 936,
      "SAR": 0.11751750010979,
      "SamplesPerPixel": 1,
      "ScanOptions": [
        "PFP",
        "FS"
],
      "ScanningSequence": "EP",
      "SequenceName": "epfid2d1_104",
      "SequenceVariant": [
        "SK",
        "SS"
],
      "SeriesDescription": "cmrr_mbep2d_bold_2mm_MB8_Rest",
      "SeriesNumber": 11,
      "SeriesTime": "150059.375000",
      "SliceLocation": -80.008331332601,
      "SliceThickness": 2.0,
      "SmallestImagePixelValue": 0,
      "SoftwareVersions": "syngo MR B19",
      "SpacingBetweenSlices": 1.9999999465957,
      "SpecificCharacterSet": "ISO_IR 100",
      "StudyID": "1",
      "StudyTime": "140722.062000",
      "TransmitCoilName": "Body",
      "VariableFlipAngleFlag": "N",
      "WindowCenterWidthExplanation": "Algo1",
      "dBdt": 0.0},
    "slices": {}
  },
  "time": {
    "samples": {
      "AcquisitionNumber": [1, 2, 3, 4, 5, 6, 7, 8, 9, 10, 11, 12, 13, 14, 15, 16, 17, 18, 19, 20, 21, 22, 23, 24, 25, 26, 27, 28, 29, 30, 31, 32, 33, 34, 35, 36, 37, 38, 39, 40, 41, 42, 43, 44, 45, 46, 47, 48, 49, 50, 51, 52, 53, 54, 55, 56, 57, 58, 59, 60, 61, 62, 63, 64, 65, 66, 67, 68, 69, 70, 71, 72, 73, 74, 75, 76, 77, 78, 79, 80, 81, 82, 83, 84, 85, 86, 87, 88, 89, 90, 91, 92, 93, 94, 95, 96, 97, 98, 99, 100, 101, 102, 103, 104, 105, 106, 107, 108, 109, 110, 111, 112, 113, 114, 115, 116, 117, 118, 119, 120, 121, 122, 123, 124, 125, 126, 127, 128, 129, 130, 131, 132, 133, 134, 135, 136, 137, 138, 139, 140, 141, 142, 143, 144, 145, 146, 147, 148, 149, 150, 151, 152, 153, 154, 155, 156, 157, 158, 159, 160, 161, 162, 163, 164, 165, 166, 167, 168, 169, 170, 171, 172, 173, 174, 175, 176, 177, 178, 179, 180, 181, 182, 183, 184, 185, 186, 187, 188, 189, 190, 191, 192, 193, 194, 195, 196, 197, 198, 199, 200, 201, 202, 203, 204, 205, 206, 207, 208, 209, 210, 211, 212, 213, 214, 215, 216, 217, 218, 219, 220, 221, 222, 223, 224, 225, 226, 227, 228, 229, 230, 231, 232, 233, 234, 235, 236, 237, 238, 239, 240, 241, 242, 243, 244, 245, 246, 247, 248, 249, 250, 251, 252, 253, 254, 255, 256, 257, 258, 259, 260, 261, 262, 263, 264, 265, 266, 267, 268, 269, 270, 271, 272, 273, 274, 275, 276, 277, 278, 279, 280, 281, 282, 283, 284, 285, 286, 287, 288, 289, 290, 291, 292, 293, 294, 295, 296, 297, 298, 299, 300, 301, 302, 303, 304, 305, 306, 307, 308, 309, 310, 311, 312, 313, 314, 315, 316, 317, 318, 319, 320, 321, 322, 323, 324, 325, 326, 327, 328, 329, 330, 331, 332, 333, 334, 335, 336, 337, 338, 339, 340, 341, 342, 343, 344, 345, 346, 347, 348, 349, 350, 351, 352, 353, 354, 355, 356, 357, 358, 359, 360, 361, 362, 363, 364, 365, 366, 367, 368, 369, 370, 371, 372, 373, 374, 375, 376, 377, 378, 379, 380, 381, 382, 383, 384, 385, 386, 387, 388, 389, 390, 391, 392, 393, 394, 395, 396, 397, 398, 399, 400, 401, 402, 403, 404, 405, 406, 407, 408, 409, 410, 411, 412, 413, 414, 415, 416, 417, 418, 419, 420, 421, 422, 423, 424, 425, 426, 427, 428, 429, 430, 431, 432, 433, 434, 435, 436, 437, 438, 439, 440, 441, 442, 443, 444, 445, 446, 447, 448, 449, 450, 451, 452, 453, 454, 455, 456, 457, 458, 459, 460, 461, 462, 463, 464, 465, 466, 467, 468, 469, 470, 471, 472, 473, 474, 475, 476, 477, 478, 479, 480, 481, 482, 483, 484, 485, 486, 487, 488, 489, 490, 491, 492, 493, 494, 495, 496, 497, 498, 499, 500, 501, 502, 503, 504, 505, 506, 507, 508, 509, 510, 511, 512, 513, 514, 515, 516, 517, 518, 519, 520, 521, 522, 523, 524, 525, 526, 527, 528, 529, 530, 531, 532, 533, 534, 535, 536, 537, 538, 539, 540, 541, 542, 543, 544, 545, 546, 547, 548, 549, 550, 551, 552, 553, 554, 555, 556, 557, 558, 559, 560, 561, 562, 563, 564, 565, 566, 567, 568, 569, 570, 571, 572, 573, 574, 575, 576, 577, 578, 579, 580, 581, 582, 583, 584, 585, 586, 587, 588, 589, 590, 591, 592, 593, 594, 595, 596, 597, 598, 599, 600, 601, 602, 603, 604, 605, 606, 607, 608, 609, 610, 611, 612, 613, 614, 615, 616, 617, 618, 619, 620, 621, 622, 623, 624, 625, 626, 627, 628, 629, 630, 631, 632, 633, 634, 635, 636, 637, 638, 639, 640, 641, 642, 643, 644, 645, 646, 647, 648, 649, 650, 651, 652, 653, 654, 655, 656, 657, 658, 659, 660, 661, 662, 663, 664, 665, 666, 667, 668, 669, 670, 671, 672, 673, 674, 675, 676, 677, 678, 679, 680, 681, 682, 683, 684, 685, 686, 687, 688, 689, 690, 691, 692, 693, 694, 695, 696, 697, 698, 699, 700, 701, 702, 703, 704, 705, 706, 707, 708, 709, 710, 711, 712, 713, 714, 715, 716, 717, 718, 719, 720, 721, 722, 723, 724, 725, 726, 727, 728, 729, 730, 731, 732, 733, 734, 735, 736, 737, 738, 739, 740, 741, 742, 743, 744, 745, 746, 747, 748, 749, 750, 751, 752, 753, 754, 755, 756, 757, 758, 759, 760, 761, 762, 763, 764, 765, 766, 767, 768, 769, 770, 771, 772, 773, 774, 775, 776, 777, 778, 779, 780, 781, 782, 783, 784, 785, 786, 787, 788, 789, 790, 791, 792, 793, 794, 795, 796, 797, 798, 799, 800, 801, 802, 803, 804, 805, 806, 807, 808, 809, 810, 811, 812, 813, 814, 815, 816, 817, 818, 819, 820, 821, 822, 823, 824, 825, 826, 827, 828, 829, 830, 831, 832, 833, 834, 835, 836, 837, 838, 839, 840, 841, 842, 843, 844, 845, 846, 847, 848, 849, 850, 851, 852, 853, 854, 855, 856, 857, 858, 859, 860, 861, 862, 863, 864, 865, 866, 867, 868, 869, 870, 871, 872, 873, 874, 875, 876, 877, 878, 879, 880, 881, 882, 883, 884, 885, 886, 887, 888, 889, 890, 891, 892, 893, 894, 895, 896, 897, 898, 899, 900, 901, 902, 903, 904, 905, 906, 907, 908, 909, 910, 911, 912, 913, 914, 915, 916, 917, 918, 919, 920, 921, 922, 923, 924, 925, 926, 927, 928, 929, 930, 931, 932, 933, 934, 935, 936, 937, 938, 939, 940, 941, 942, 943, 944, 945, 946, 947, 948, 949, 950, 951, 952, 953, 954, 955, 956, 957, 958, 959, 960, 961, 962, 963, 964, 965, 966, 967, 968, 969, 970, 971, 972, 973, 974, 975, 976, 977, 978, 979, 980, 981, 982, 983, 984, 985, 986, 987, 988, 989, 990, 991, 992, 993, 994, 995, 996, 997, 998, 999, 1000, 1001, 1002, 1003, 1004, 1005, 1006, 1007, 1008, 1009, 1010, 1011, 1012, 1013, 1014, 1015, 1016, 1017, 1018, 1019, 1020, 1021, 1022, 1023, 1024, 1025, 1026, 1027, 1028, 1029, 1030, 1031, 1032, 1033, 1034, 1035, 1036, 1037, 1038, 1039, 1040, 1041, 1042, 1043, 1044, 1045, 1046, 1047, 1048, 1049, 1050, 1051, 1052, 1053, 1054, 1055, 1056, 1057, 1058, 1059, 1060, 1061, 1062, 1063, 1064, 1065, 1066, 1067, 1068, 1069, 1070],
      "AcquisitionTime": ["145945.917500", "145946.705000", "145947.492500", "145948.282500", "145949.070000", "145949.857500", "145950.645000", "145951.435000", "145952.222500", "145953.010000", "145953.800000", "145954.587500", "145955.375000", "145956.162500", "145956.952500", "145957.740000", "145958.527500", "145959.315000", "150000.105000", "150000.892500", "150001.680000", "150002.467500", "150003.257500", "150004.045000", "150004.832500", "150005.620000", "150006.410000", "150007.197500", "150007.985000", "150008.772500", "150009.562500", "150010.350000", "150011.137500", "150011.927500", "150012.715000", "150013.502500", "150014.290000", "150015.080000", "150015.867500", "150016.655000", "150017.442500", "150018.232500", "150019.020000", "150019.807500", "150020.595000", "150021.385000", "150022.172500", "150022.960000", "150023.747500", "150024.537500", "150025.325000", "150026.112500", "150026.900000", "150027.690000", "150028.477500", "150029.265000", "150030.055000", "150030.842500", "150031.630000", "150032.417500", "150033.207500", "150033.995000", "150034.782500", "150035.570000", "150036.360000", "150037.147500", "150037.935000", "150038.722500", "150039.512500", "150040.300000", "150041.087500", "150041.875000", "150042.665000", "150043.452500", "150044.240000", "150045.027500", "150045.817500", "150046.605000", "150047.392500", "150048.182500", "150048.970000", "150049.757500", "150050.545000", "150051.335000", "150052.122500", "150052.910000", "150053.697500", "150054.487500", "150055.275000", "150056.062500", "150056.850000", "150057.640000", "150058.427500", "150059.215000", "150100.002500", "150100.792500", "150101.580000", "150102.367500", "150103.155000", "150103.945000", "150104.732500", "150105.520000", "150106.310000", "150107.097500", "150107.885000", "150108.672500", "150109.462500", "150110.250000", "150111.037500", "150111.825000", "150112.615000", "150113.402500", "150114.190000", "150114.977500", "150115.767500", "150116.555000", "150117.342500", "150118.130000", "150118.920000", "150119.707500", "150120.495000", "150121.285000", "150122.072500", "150122.860000", "150123.647500", "150124.437500", "150125.225000", "150126.012500", "150126.800000", "150127.590000", "150128.377500", "150129.165000", "150129.952500", "150130.742500", "150131.530000", "150132.317500", "150133.105000", "150133.895000", "150134.682500", "150135.470000", "150136.257500", "150137.047500", "150137.835000", "150138.622500", "150139.412500", "150140.200000", "150140.987500", "150141.775000", "150142.565000", "150143.352500", "150144.140000", "150144.927500", "150145.717500", "150146.505000", "150147.292500", "150148.080000", "150148.870000", "150149.657500", "150150.445000", "150151.232500", "150152.022500", "150152.810000", "150153.597500", "150154.385000", "150155.175000", "150155.962500", "150156.750000", "150157.540000", "150158.327500", "150159.115000", "150159.902500", "150200.692500", "150201.480000", "150202.267500", "150203.055000", "150203.845000", "150204.632500", "150205.420000", "150206.207500", "150206.997500", "150207.785000", "150208.572500", "150209.360000", "150210.150000", "150210.937500", "150211.725000", "150212.512500", "150213.302500", "150214.090000", "150214.877500", "150215.667500", "150216.455000", "150217.242500", "150218.030000", "150218.820000", "150219.607500", "150220.395000", "150221.182500", "150221.972500", "150222.760000", "150223.547500", "150224.335000", "150225.125000", "150225.912500", "150226.700000", "150227.487500", "150228.277500", "150229.065000", "150229.852500", "150230.640000", "150231.430000", "150232.217500", "150233.005000", "150233.795000", "150234.582500", "150235.370000", "150236.157500", "150236.947500", "150237.735000", "150238.522500", "150239.310000", "150240.100000", "150240.887500", "150241.675000", "150242.462500", "150243.252500", "150244.040000", "150244.827500", "150245.615000", "150246.405000", "150247.192500", "150247.980000", "150248.767500", "150249.557500", "150250.345000", "150251.132500", "150251.922500", "150252.710000", "150253.497500", "150254.285000", "150255.075000", "150255.862500", "150256.650000", "150257.437500", "150258.227500", "150259.015000", "150259.802500", "150300.590000", "150301.380000", "150302.167500", "150302.955000", "150303.742500", "150304.532500", "150305.320000", "150306.107500", "150306.895000", "150307.685000", "150308.472500", "150309.260000", "150310.050000", "150310.837500", "150311.625000", "150312.412500", "150313.202500", "150313.990000", "150314.777500", "150315.565000", "150316.355000", "150317.142500", "150317.930000", "150318.717500", "150319.507500", "150320.295000", "150321.082500", "150321.870000", "150322.660000", "150323.447500", "150324.235000", "150325.022500", "150325.812500", "150326.600000", "150327.387500", "150328.177500", "150328.965000", "150329.752500", "150330.540000", "150331.330000", "150332.117500", "150332.905000", "150333.692500", "150334.482500", "150335.270000", "150336.057500", "150336.845000", "150337.635000", "150338.422500", "150339.210000", "150339.997500", "150340.787500", "150341.575000", "150342.362500", "150343.150000", "150343.940000", "150344.727500", "150345.515000", "150346.305000", "150347.092500", "150347.880000", "150348.667500", "150349.457500", "150350.245000", "150351.032500", "150351.820000", "150352.610000", "150353.397500", "150354.185000", "150354.972500", "150355.762500", "150356.550000", "150357.337500", "150358.125000", "150358.915000", "150359.702500", "150400.490000", "150401.277500", "150402.067500", "150402.855000", "150403.642500", "150404.432500", "150405.220000", "150406.007500", "150406.795000", "150407.585000", "150408.372500", "150409.160000", "150409.947500", "150410.737500", "150411.525000", "150412.312500", "150413.100000", "150413.890000", "150414.677500", "150415.465000", "150416.252500", "150417.042500", "150417.830000", "150418.617500", "150419.405000", "150420.195000", "150420.982500", "150421.770000", "150422.560000", "150423.347500", "150424.135000", "150424.922500", "150425.712500", "150426.500000", "150427.287500", "150428.075000", "150428.865000", "150429.652500", "150430.440000", "150431.227500", "150432.017500", "150432.805000", "150433.592500", "150434.380000", "150435.170000", "150435.957500", "150436.745000", "150437.535000", "150438.322500", "150439.110000", "150439.897500", "150440.687500", "150441.475000", "150442.262500", "150443.050000", "150443.840000", "150444.627500", "150445.415000", "150446.202500", "150446.992500", "150447.780000", "150448.567500", "150449.355000", "150450.145000", "150450.932500", "150451.720000", "150452.507500", "150453.297500", "150454.085000", "150454.872500", "150455.662500", "150456.450000", "150457.237500", "150458.025000", "150458.815000", "150459.602500", "150500.390000", "150501.177500", "150501.967500", "150502.755000", "150503.542500", "150504.330000", "150505.120000", "150505.907500", "150506.695000", "150507.482500", "150508.272500", "150509.060000", "150509.847500", "150510.635000", "150511.425000", "150512.212500", "150513.000000", "150513.790000", "150514.577500", "150515.365000", "150516.152500", "150516.942500", "150517.730000", "150518.517500", "150519.305000", "150520.095000", "150520.882500", "150521.670000", "150522.457500", "150523.247500", "150524.035000", "150524.822500", "150525.610000", "150526.400000", "150527.187500", "150527.975000", "150528.762500", "150529.552500", "150530.340000", "150531.127500", "150531.917500", "150532.705000", "150533.492500", "150534.280000", "150535.070000", "150535.857500", "150536.645000", "150537.432500", "150538.222500", "150539.010000", "150539.797500", "150540.585000", "150541.375000", "150542.162500", "150542.950000", "150543.737500", "150544.527500", "150545.315000", "150546.102500", "150546.890000", "150547.680000", "150548.467500", "150549.255000", "150550.045000", "150550.832500", "150551.620000", "150552.407500", "150553.197500", "150553.985000", "150554.772500", "150555.560000", "150556.350000", "150557.137500", "150557.925000", "150558.712500", "150559.502500", "150600.290000", "150601.077500", "150601.865000", "150602.655000", "150603.442500", "150604.230000", "150605.017500", "150605.807500", "150606.595000", "150607.382500", "150608.172500", "150608.960000", "150609.747500", "150610.535000", "150611.325000", "150612.112500", "150612.900000", "150613.687500", "150614.477500", "150615.265000", "150616.052500", "150616.840000", "150617.630000", "150618.417500", "150619.205000", "150619.992500", "150620.782500", "150621.570000", "150622.357500", "150623.145000", "150623.935000", "150624.722500", "150625.510000", "150626.300000", "150627.087500", "150627.875000", "150628.662500", "150629.452500", "150630.240000", "150631.027500", "150631.815000", "150632.605000", "150633.392500", "150634.180000", "150634.967500", "150635.757500", "150636.545000", "150637.332500", "150638.120000", "150638.910000", "150639.697500", "150640.485000", "150641.272500", "150642.062500", "150642.850000", "150643.637500", "150644.427500", "150645.215000", "150646.002500", "150646.790000", "150647.580000", "150648.367500", "150649.155000", "150649.942500", "150650.732500", "150651.520000", "150652.307500", "150653.095000", "150653.885000", "150654.672500", "150655.460000", "150656.247500", "150657.037500", "150657.825000", "150658.612500", "150659.400000", "150700.190000", "150700.977500", "150701.765000", "150702.555000", "150703.342500", "150704.130000", "150704.917500", "150705.707500", "150706.495000", "150707.282500", "150708.070000", "150708.860000", "150709.647500", "150710.435000", "150711.222500", "150712.012500", "150712.800000", "150713.587500", "150714.375000", "150715.165000", "150715.952500", "150716.740000", "150717.527500", "150718.317500", "150719.105000", "150719.892500", "150720.682500", "150721.470000", "150722.257500", "150723.045000", "150723.835000", "150724.622500", "150725.410000", "150726.197500", "150726.987500", "150727.775000", "150728.562500", "150729.350000", "150730.140000", "150730.927500", "150731.715000", "150732.502500", "150733.292500", "150734.080000", "150734.867500", "150735.655000", "150736.445000", "150737.232500", "150738.020000", "150738.810000", "150739.597500", "150740.385000", "150741.172500", "150741.962500", "150742.750000", "150743.537500", "150744.325000", "150745.115000", "150745.902500", "150746.690000", "150747.477500", "150748.267500", "150749.055000", "150749.842500", "150750.630000", "150751.420000", "150752.207500", "150752.995000", "150753.785000", "150754.572500", "150755.360000", "150756.147500", "150756.937500", "150757.725000", "150758.512500", "150759.300000", "150800.090000", "150800.877500", "150801.665000", "150802.452500", "150803.242500", "150804.030000", "150804.817500", "150805.605000", "150806.395000", "150807.182500", "150807.970000", "150808.757500", "150809.547500", "150810.335000", "150811.122500", "150811.912500", "150812.700000", "150813.487500", "150814.275000", "150815.065000", "150815.852500", "150816.640000", "150817.427500", "150818.217500", "150819.005000", "150819.792500", "150820.580000", "150821.370000", "150822.157500", "150822.945000", "150823.732500", "150824.522500", "150825.310000", "150826.097500", "150826.885000", "150827.675000", "150828.462500", "150829.250000", "150830.040000", "150830.827500", "150831.615000", "150832.402500", "150833.192500", "150833.980000", "150834.767500", "150835.555000", "150836.345000", "150837.132500", "150837.920000", "150838.707500", "150839.497500", "150840.285000", "150841.072500", "150841.860000", "150842.650000", "150843.437500", "150844.225000", "150845.012500", "150845.802500", "150846.590000", "150847.377500", "150848.167500", "150848.955000", "150849.742500", "150850.530000", "150851.320000", "150852.107500", "150852.895000", "150853.682500", "150854.472500", "150855.260000", "150856.047500", "150856.835000", "150857.625000", "150858.412500", "150859.200000", "150859.987500", "150900.777500", "150901.565000", "150902.352500", "150903.140000", "150903.930000", "150904.717500", "150905.505000", "150906.295000", "150907.082500", "150907.870000", "150908.657500", "150909.447500", "150910.235000", "150911.022500", "150911.810000", "150912.600000", "150913.387500", "150914.175000", "150914.962500", "150915.752500", "150916.540000", "150917.327500", "150918.115000", "150918.905000", "150919.692500", "150920.480000", "150921.267500", "150922.057500", "150922.845000", "150923.632500", "150924.422500", "150925.210000", "150925.997500", "150926.785000", "150927.575000", "150928.362500", "150929.150000", "150929.937500", "150930.727500", "150931.515000", "150932.302500", "150933.090000", "150933.880000", "150934.667500", "150935.455000", "150936.242500", "150937.032500", "150937.820000", "150938.607500", "150939.395000", "150940.185000", "150940.972500", "150941.760000", "150942.550000", "150943.337500", "150944.125000", "150944.912500", "150945.702500", "150946.490000", "150947.277500", "150948.065000", "150948.855000", "150949.642500", "150950.430000", "150951.217500", "150952.007500", "150952.795000", "150953.582500", "150954.370000", "150955.160000", "150955.947500", "150956.735000", "150957.522500", "150958.312500", "150959.100000", "150959.887500", "151000.677500", "151001.465000", "151002.252500", "151003.040000", "151003.830000", "151004.617500", "151005.405000", "151006.192500", "151006.982500", "151007.770000", "151008.557500", "151009.345000", "151010.135000", "151010.922500", "151011.710000", "151012.497500", "151013.287500", "151014.075000", "151014.862500", "151015.650000", "151016.440000", "151017.227500", "151018.015000", "151018.805000", "151019.592500", "151020.380000", "151021.167500", "151021.957500", "151022.745000", "151023.532500", "151024.320000", "151025.110000", "151025.897500", "151026.685000", "151027.472500", "151028.262500", "151029.050000", "151029.837500", "151030.625000", "151031.415000", "151032.202500", "151032.990000", "151033.777500", "151034.567500", "151035.355000", "151036.142500", "151036.932500", "151037.720000", "151038.507500", "151039.295000", "151040.085000", "151040.872500", "151041.660000", "151042.447500", "151043.237500", "151044.025000", "151044.812500", "151045.600000", "151046.390000", "151047.177500", "151047.965000", "151048.752500", "151049.542500", "151050.330000", "151051.117500", "151051.905000", "151052.695000", "151053.482500", "151054.270000", "151055.060000", "151055.847500", "151056.635000", "151057.422500", "151058.212500", "151059.000000", "151059.787500", "151100.575000", "151101.365000", "151102.152500", "151102.940000", "151103.727500", "151104.517500", "151105.305000", "151106.092500", "151106.880000", "151107.670000", "151108.457500", "151109.245000", "151110.035000", "151110.822500", "151111.610000", "151112.397500", "151113.187500", "151113.975000", "151114.762500", "151115.550000", "151116.340000", "151117.127500", "151117.915000", "151118.702500", "151119.492500", "151120.280000", "151121.067500", "151121.855000", "151122.645000", "151123.432500", "151124.220000", "151125.007500", "151125.797500", "151126.585000", "151127.372500", "151128.162500", "151128.950000", "151129.737500", "151130.525000", "151131.315000", "151132.102500", "151132.890000", "151133.677500", "151134.467500", "151135.255000", "151136.042500", "151136.830000", "151137.620000", "151138.407500", "151139.195000", "151139.982500", "151140.772500", "151141.560000", "151142.347500", "151143.135000", "151143.925000", "151144.712500", "151145.500000", "151146.290000", "151147.077500", "151147.865000", "151148.652500", "151149.442500", "151150.230000", "151151.017500", "151151.805000", "151152.595000", "151153.382500", "151154.170000", "151154.957500", "151155.747500", "151156.535000", "151157.322500", "151158.110000", "151158.900000", "151159.687500", "151200.475000", "151201.262500", "151202.052500", "151202.840000", "151203.627500", "151204.417500", "151205.205000", "151205.992500", "151206.780000", "151207.570000", "151208.357500", "151209.145000", "151209.932500", "151210.722500", "151211.510000", "151212.297500", "151213.085000", "151213.875000", "151214.662500", "151215.450000", "151216.237500", "151217.027500", "151217.815000", "151218.602500", "151219.390000", "151220.180000", "151220.967500", "151221.755000", "151222.545000", "151223.332500", "151224.120000", "151224.907500", "151225.697500", "151226.485000", "151227.272500", "151228.060000", "151228.850000", "151229.637500", "151230.425000", "151231.212500", "151232.002500", "151232.790000", "151233.577500", "151234.365000", "151235.155000", "151235.942500", "151236.730000", "151237.517500", "151238.307500", "151239.095000", "151239.882500", "151240.672500", "151241.460000", "151242.247500", "151243.035000", "151243.825000", "151244.612500", "151245.400000", "151246.187500", "151246.977500", "151247.765000", "151248.552500", "151249.340000", "151250.130000", "151250.917500", "151251.705000", "151252.492500", "151253.282500", "151254.070000", "151254.857500", "151255.645000", "151256.435000", "151257.222500", "151258.010000", "151258.800000", "151259.587500", "151300.375000", "151301.162500", "151301.952500", "151302.740000", "151303.527500", "151304.315000", "151305.105000", "151305.892500", "151306.680000", "151307.467500", "151308.257500", "151309.045000", "151309.832500", "151310.620000", "151311.410000", "151312.197500", "151312.985000", "151313.772500", "151314.562500", "151315.350000", "151316.137500", "151316.927500", "151317.715000", "151318.502500", "151319.290000", "151320.080000", "151320.867500", "151321.655000", "151322.442500", "151323.232500", "151324.020000", "151324.807500", "151325.595000", "151326.385000", "151327.172500", "151327.960000", "151328.747500", "151329.537500", "151330.325000", "151331.112500", "151331.900000", "151332.690000", "151333.477500", "151334.265000", "151335.055000", "151335.842500", "151336.630000", "151337.417500", "151338.207500", "151338.995000", "151339.782500", "151340.570000", "151341.360000", "151342.147500", "151342.935000", "151343.722500", "151344.512500", "151345.300000", "151346.087500", "151346.875000", "151347.665000", "151348.452500"],
