{
  "AcquisitionMatrixPE": 104,
  "AcquisitionNumber": 1,
  "AcquisitionTime": "15:47:49.742500",
  "BandwidthPerPixelPhaseEncode": 13.935,
  "BaseResolution": 104,
  "CoilString": "C:HEA;HEP",
  "ConversionSoftware": "dcm2niix",
  "ConversionSoftwareVersion": "v1.0.20210317",
  "DerivedVendorReportedEchoSpacing": 0.000690017,
  "DeviceSerialNumber": "35450",
  "DwellTime": 2.5e-06,
  "EchoTime": 0.0348,
  "EffectiveEchoSpacing": 0.000690017,
  "FlipAngle": 55,
  "ImageComments": "Unaliased MB8/PE3",
  "ImageOrientationPatientDICOM": [1, -0.000135443, -0.000745015, 5.74508e-08, 0.983887, -0.178793],
  "ImageType": [
    "ORIGINAL",
    "PRIMARY",
    "M",
    "MB",
    "ND",
    "MOSAIC"
],
  "ImagingFrequency": 123.235,
  "InPlanePhaseEncodingDirectionDICOM": "COL",
  "InstitutionAddress": "Univeristy Ave. 197,Newark,North East,US,07102-1814",
  "InstitutionName": "RUBIC",
  "InstitutionalDepartmentName": "Department",
  "MRAcquisitionType": "2D",
  "MagneticFieldStrength": 3,
  "Manufacturer": "Siemens",
  "ManufacturersModelName": "TrioTim",
  "Modality": "MR",
  "MultibandAccelerationFactor": 8,
  "PartialFourier": 0.875,
  "PatientPosition": "HFS",
  "PercentPhaseFOV": 100,
  "PercentSampling": 100,
  "PhaseEncodingDirection": "j-",
  "PhaseEncodingSteps": 91,
  "PhaseResolution": 1,
  "PixelBandwidth": 1923,
  "ProcedureStepDescription": "Cole^Michael",
  "ProtocolName": "cmrr_mbep2d_bold_2mm_MB8_Task_8x",
  "PulseSequenceDetails": "%CustomerSeq%\\cmrr_mbep2d_bold",
  "ReceiveCoilName": "32Ch_Head",
  "ReconMatrixPE": 104,
  "RepetitionTime": 0.785,
  "SAR": 0.120123,
  "ScanOptions": "PFP\\FS",
  "ScanningSequence": "EP",
  "SequenceName": "epfid2d1_104",
  "SequenceVariant": "SK\\SS",
  "SeriesDescription": "cmrr_mbep2d_bold_2mm_MB8_Task_8x",
  "SeriesNumber": 21,
  "ShimSetting": [2111, -403, -7489, 215, 59, -345, 228, 82],
  "SliceThickness": 2,
  "SliceTiming": [0, 0.4375, 0.0875, 0.525, 0.175, 0.6125, 0.2625, 0.7, 0.35, 0, 0.4375, 0.0875, 0.525, 0.175, 0.6125, 0.2625, 0.7, 0.35, 0, 0.4375, 0.0875, 0.525, 0.175, 0.6125, 0.2625, 0.7, 0.35, 0, 0.4375, 0.0875, 0.525, 0.175, 0.6125, 0.2625, 0.7, 0.35, 0, 0.4375, 0.0875, 0.525, 0.175, 0.6125, 0.2625, 0.7, 0.35, 0, 0.4375, 0.0875, 0.525, 0.175, 0.6125, 0.2625, 0.7, 0.35, 0, 0.4375, 0.0875, 0.525, 0.175, 0.6125, 0.2625, 0.7, 0.35, 0, 0.4375, 0.0875, 0.525, 0.175, 0.6125, 0.2625, 0.7, 0.35],
  "SoftwareVersions": "syngo MR B19",
  "SpacingBetweenSlices": 2,
  "StationName": "MRC35450",
  "TaskName": "cpro",
  "TotalReadoutTime": 0.0710717,
  "TxRefAmp": 310.758,
  "dcmmeta_affine": [
    [-1.9999994039535522, 1.1490166684779979e-07, -0.0015144535573199391, 101.21371459960938],
    [0.0002708868123590946, 1.9677734375, -0.35758596658706665, -73.25880432128906],
    [-0.0014900302048772573, 0.3575860857963562, 1.9677728414535522, -94.5534439086914],
    [0.0, 0.0, 0.0, 1.0]
],
  "dcmmeta_reorient_transform": [
    [0.0, -1.0, 0.0, 103.0],
    [1.0, 0.0, 0.0, 0.0],
    [0.0, 0.0, 1.0, 0.0],
    [0.0, 0.0, 0.0, 1.0]
],
  "dcmmeta_shape": [104, 104, 72, 581],
  "dcmmeta_slice_dim": 2,
  "dcmmeta_version": 0.6,
  "global": {
    "const": {
      "AcquisitionMatrix": [104, 0, 0, 104],
      "AngioFlag": "N",
      "BitsAllocated": 16,
      "BitsStored": 12,
      "Columns": 936,
      "EchoNumbers": 1,
      "EchoTime": 34.8,
      "EchoTrainLength": 1,
      "FlipAngle": 55.0,
      "HighBit": 11,
      "ImageOrientationPatient": [0.99999971330374, -0.0001354434054, -0.0007450151108, 5.7450833e-08, 0.98388670563677, -0.178793038095],
      "ImagePositionPatient": [-933.21353292765, -947.90291011682, 91.653582461203],
      "ImageType": [
        "ORIGINAL",
        "PRIMARY",
        "M",
        "MB",
        "ND",
        "MOSAIC"
],
      "ImagedNucleus": "1H",
      "ImagingFrequency": 123.235048,
      "InPlanePhaseEncodingDirection": "COL",
      "MRAcquisitionType": "2D",
      "MagneticFieldStrength": 3.0,
      "Manufacturer": "SIEMENS",
      "ManufacturerModelName": "TrioTim",
      "Modality": "MR",
      "NumberOfAverages": 1.0,
      "NumberOfPhaseEncodingSteps": 91,
      "PercentPhaseFieldOfView": 100.0,
      "PercentSampling": 100.0,
      "PerformedProcedureStepStartTime": "140722.093000",
      "PhotometricInterpretation": "MONOCHROME2",
      "PixelBandwidth": 1923.0,
      "PixelRepresentation": 0,
      "PixelSpacing": [2.0, 2.0],
      "ProtocolName": "cmrr_mbep2d_bold_2mm_MB8_Task_8x",
      "RepetitionTime": 785.0,
      "Rows": 936,
      "SAR": 0.12012343128242,
      "SamplesPerPixel": 1,
      "ScanOptions": [
        "PFP",
        "FS"
],
      "ScanningSequence": "EP",
      "SequenceName": "epfid2d1_104",
      "SequenceVariant": [
        "SK",
        "SS"
],
      "SeriesDescription": "cmrr_mbep2d_bold_2mm_MB8_Task_8x",
      "SeriesNumber": 21,
      "SeriesTime": "165740.609000",
      "SliceLocation": -80.008331332601,
      "SliceThickness": 2.0,
      "SmallestImagePixelValue": 0,
      "SoftwareVersions": "syngo MR B19",
      "SpacingBetweenSlices": 1.9999999465957,
      "SpecificCharacterSet": "ISO_IR 100",
      "StudyID": "1",
      "StudyTime": "140722.062000",
      "TransmitCoilName": "Body",
      "VariableFlipAngleFlag": "N",
      "WindowCenterWidthExplanation": "Algo1",
      "dBdt": 0.0},
    "slices": {}
  },
  "time": {
    "samples": {
      "AcquisitionNumber": [1, 2, 3, 4, 5, 6, 7, 8, 9, 10, 11, 12, 13, 14, 15, 16, 17, 18, 19, 20, 21, 22, 23, 24, 25, 26, 27, 28, 29, 30, 31, 32, 33, 34, 35, 36, 37, 38, 39, 40, 41, 42, 43, 44, 45, 46, 47, 48, 49, 50, 51, 52, 53, 54, 55, 56, 57, 58, 59, 60, 61, 62, 63, 64, 65, 66, 67, 68, 69, 70, 71, 72, 73, 74, 75, 76, 77, 78, 79, 80, 81, 82, 83, 84, 85, 86, 87, 88, 89, 90, 91, 92, 93, 94, 95, 96, 97, 98, 99, 100, 101, 102, 103, 104, 105, 106, 107, 108, 109, 110, 111, 112, 113, 114, 115, 116, 117, 118, 119, 120, 121, 122, 123, 124, 125, 126, 127, 128, 129, 130, 131, 132, 133, 134, 135, 136, 137, 138, 139, 140, 141, 142, 143, 144, 145, 146, 147, 148, 149, 150, 151, 152, 153, 154, 155, 156, 157, 158, 159, 160, 161, 162, 163, 164, 165, 166, 167, 168, 169, 170, 171, 172, 173, 174, 175, 176, 177, 178, 179, 180, 181, 182, 183, 184, 185, 186, 187, 188, 189, 190, 191, 192, 193, 194, 195, 196, 197, 198, 199, 200, 201, 202, 203, 204, 205, 206, 207, 208, 209, 210, 211, 212, 213, 214, 215, 216, 217, 218, 219, 220, 221, 222, 223, 224, 225, 226, 227, 228, 229, 230, 231, 232, 233, 234, 235, 236, 237, 238, 239, 240, 241, 242, 243, 244, 245, 246, 247, 248, 249, 250, 251, 252, 253, 254, 255, 256, 257, 258, 259, 260, 261, 262, 263, 264, 265, 266, 267, 268, 269, 270, 271, 272, 273, 274, 275, 276, 277, 278, 279, 280, 281, 282, 283, 284, 285, 286, 287, 288, 289, 290, 291, 292, 293, 294, 295, 296, 297, 298, 299, 300, 301, 302, 303, 304, 305, 306, 307, 308, 309, 310, 311, 312, 313, 314, 315, 316, 317, 318, 319, 320, 321, 322, 323, 324, 325, 326, 327, 328, 329, 330, 331, 332, 333, 334, 335, 336, 337, 338, 339, 340, 341, 342, 343, 344, 345, 346, 347, 348, 349, 350, 351, 352, 353, 354, 355, 356, 357, 358, 359, 360, 361, 362, 363, 364, 365, 366, 367, 368, 369, 370, 371, 372, 373, 374, 375, 376, 377, 378, 379, 380, 381, 382, 383, 384, 385, 386, 387, 388, 389, 390, 391, 392, 393, 394, 395, 396, 397, 398, 399, 400, 401, 402, 403, 404, 405, 406, 407, 408, 409, 410, 411, 412, 413, 414, 415, 416, 417, 418, 419, 420, 421, 422, 423, 424, 425, 426, 427, 428, 429, 430, 431, 432, 433, 434, 435, 436, 437, 438, 439, 440, 441, 442, 443, 444, 445, 446, 447, 448, 449, 450, 451, 452, 453, 454, 455, 456, 457, 458, 459, 460, 461, 462, 463, 464, 465, 466, 467, 468, 469, 470, 471, 472, 473, 474, 475, 476, 477, 478, 479, 480, 481, 482, 483, 484, 485, 486, 487, 488, 489, 490, 491, 492, 493, 494, 495, 496, 497, 498, 499, 500, 501, 502, 503, 504, 505, 506, 507, 508, 509, 510, 511, 512, 513, 514, 515, 516, 517, 518, 519, 520, 521, 522, 523, 524, 525, 526, 527, 528, 529, 530, 531, 532, 533, 534, 535, 536, 537, 538, 539, 540, 541, 542, 543, 544, 545, 546, 547, 548, 549, 550, 551, 552, 553, 554, 555, 556, 557, 558, 559, 560, 561, 562, 563, 564, 565, 566, 567, 568, 569, 570, 571, 572, 573, 574, 575, 576, 577, 578, 579, 580, 581],
      "AcquisitionTime": ["154749.742500", "154750.530000", "154751.317500", "154752.105000", "154752.895000", "154753.682500", "154754.470000", "154755.260000", "154756.047500", "154756.835000", "154757.622500", "154758.412500", "154759.200000", "154759.987500", "154800.775000", "154801.565000", "154802.352500", "154803.140000", "154803.927500", "154804.717500", "154805.505000", "154806.292500", "154807.080000", "154807.870000", "154808.657500", "154809.445000", "154810.232500", "154811.022500", "154811.810000", "154812.597500", "154813.387500", "154814.175000", "154814.962500", "154815.750000", "154816.540000", "154817.327500", "154818.115000", "154818.902500", "154819.692500", "154820.480000", "154821.267500", "154822.055000", "154822.845000", "154823.632500", "154824.420000", "154825.207500", "154825.997500", "154826.785000", "154827.572500", "154828.360000", "154829.150000", "154829.937500", "154830.725000", "154831.515000", "154832.302500", "154833.090000", "154833.877500", "154834.667500", "154835.455000", "154836.242500", "154837.030000", "154837.820000", "154838.607500", "154839.395000", "154840.182500", "154840.972500", "154841.760000", "154842.547500", "154843.335000", "154844.125000", "154844.912500", "154845.700000", "154846.487500", "154847.277500", "154848.065000", "154848.852500", "154849.642500", "154850.430000", "154851.217500", "154852.005000", "154852.795000", "154853.582500", "154854.370000", "154855.157500", "154855.947500", "154856.735000", "154857.522500", "154858.310000", "154859.100000", "154859.887500", "154900.675000", "154901.462500", "154902.252500", "154903.040000", "154903.827500", "154904.615000", "154905.405000", "154906.192500", "154906.980000", "154907.770000", "154908.557500", "154909.345000", "154910.132500", "154910.922500", "154911.710000", "154912.497500", "154913.285000", "154914.075000", "154914.862500", "154915.650000", "154916.437500", "154917.227500", "154918.015000", "154918.802500", "154919.590000", "154920.380000", "154921.167500", "154921.955000", "154922.742500", "154923.532500", "154924.320000", "154925.107500", "154925.897500", "154926.685000", "154927.472500", "154928.260000", "154929.050000", "154929.837500", "154930.625000", "154931.412500", "154932.202500", "154932.990000", "154933.777500", "154934.565000", "154935.355000", "154936.142500", "154936.930000", "154937.717500", "154938.507500", "154939.295000", "154940.082500", "154940.870000", "154941.660000", "154942.447500", "154943.235000", "154944.025000", "154944.812500", "154945.600000", "154946.387500", "154947.177500", "154947.965000", "154948.752500", "154949.540000", "154950.330000", "154951.117500", "154951.905000", "154952.692500", "154953.482500", "154954.270000", "154955.057500", "154955.845000", "154956.635000", "154957.422500", "154958.210000", "154958.997500", "154959.787500", "155000.575000", "155001.362500", "155002.152500", "155002.940000", "155003.727500", "155004.515000", "155005.305000", "155006.092500", "155006.880000", "155007.667500", "155008.457500", "155009.245000", "155010.032500", "155010.820000", "155011.610000", "155012.397500", "155013.185000", "155013.972500", "155014.762500", "155015.550000", "155016.337500", "155017.127500", "155017.915000", "155018.702500", "155019.490000", "155020.280000", "155021.067500", "155021.855000", "155022.642500", "155023.432500", "155024.220000", "155025.007500", "155025.795000", "155026.585000", "155027.372500", "155028.160000", "155028.947500", "155029.737500", "155030.525000", "155031.312500", "155032.100000", "155032.890000", "155033.677500", "155034.465000", "155035.255000", "155036.042500", "155036.830000", "155037.617500", "155038.407500", "155039.195000", "155039.982500", "155040.770000", "155041.560000", "155042.347500", "155043.135000", "155043.922500", "155044.712500", "155045.500000", "155046.287500", "155047.075000", "155047.865000", "155048.652500", "155049.440000", "155050.227500", "155051.017500", "155051.805000", "155052.592500", "155053.382500", "155054.170000", "155054.957500", "155055.745000", "155056.535000", "155057.322500", "155058.110000", "155058.897500", "155059.687500", "155100.475000", "155101.262500", "155102.050000", "155102.840000", "155103.627500", "155104.415000", "155105.202500", "155105.992500", "155106.780000", "155107.567500", "155108.355000", "155109.145000", "155109.932500", "155110.720000", "155111.510000", "155112.297500", "155113.085000", "155113.872500", "155114.662500", "155115.450000", "155116.237500", "155117.025000", "155117.815000", "155118.602500", "155119.390000", "155120.177500", "155120.967500", "155121.755000", "155122.542500", "155123.330000", "155124.120000", "155124.907500", "155125.695000", "155126.482500", "155127.272500", "155128.060000", "155128.847500", "155129.637500", "155130.425000", "155131.212500", "155132.000000", "155132.790000", "155133.577500", "155134.365000", "155135.152500", "155135.942500", "155136.730000", "155137.517500", "155138.305000", "155139.095000", "155139.882500", "155140.670000", "155141.457500", "155142.247500", "155143.035000", "155143.822500", "155144.610000", "155145.400000", "155146.187500", "155146.975000", "155147.765000", "155148.552500", "155149.340000", "155150.127500", "155150.917500", "155151.705000", "155152.492500", "155153.280000", "155154.070000", "155154.857500", "155155.645000", "155156.432500", "155157.222500", "155158.010000", "155158.797500", "155159.585000", "155200.375000", "155201.162500", "155201.950000", "155202.737500", "155203.527500", "155204.315000", "155205.102500", "155205.892500", "155206.680000", "155207.467500", "155208.255000", "155209.045000", "155209.832500", "155210.620000", "155211.407500", "155212.197500", "155212.985000", "155213.772500", "155214.560000", "155215.350000", "155216.137500", "155216.925000", "155217.712500", "155218.502500", "155219.290000", "155220.077500", "155220.865000", "155221.655000", "155222.442500", "155223.230000", "155224.020000", "155224.807500", "155225.595000", "155226.382500", "155227.172500", "155227.960000", "155228.747500", "155229.535000", "155230.325000", "155231.112500", "155231.900000", "155232.687500", "155233.477500", "155234.265000", "155235.052500", "155235.840000", "155236.630000", "155237.417500", "155238.205000", "155238.992500", "155239.782500", "155240.570000", "155241.357500", "155242.147500", "155242.935000", "155243.722500", "155244.510000", "155245.300000", "155246.087500", "155246.875000", "155247.662500", "155248.452500", "155249.240000", "155250.027500", "155250.815000", "155251.605000", "155252.392500", "155253.180000", "155253.967500", "155254.757500", "155255.545000", "155256.332500", "155257.120000", "155257.910000", "155258.697500", "155259.485000", "155300.275000", "155301.062500", "155301.850000", "155302.637500", "155303.427500", "155304.215000", "155305.002500", "155305.790000", "155306.580000", "155307.367500", "155308.155000", "155308.942500", "155309.732500", "155310.520000", "155311.307500", "155312.095000", "155312.885000", "155313.672500", "155314.460000", "155315.247500", "155316.037500", "155316.825000", "155317.612500", "155318.402500", "155319.190000", "155319.977500", "155320.765000", "155321.555000", "155322.342500", "155323.130000", "155323.917500", "155324.707500", "155325.495000", "155326.282500", "155327.070000", "155327.860000", "155328.647500", "155329.435000", "155330.222500", "155331.012500", "155331.800000", "155332.587500", "155333.377500", "155334.165000", "155334.952500", "155335.740000", "155336.530000", "155337.317500", "155338.105000", "155338.892500", "155339.682500", "155340.470000", "155341.257500", "155342.045000", "155342.835000", "155343.622500", "155344.410000", "155345.197500", "155345.987500", "155346.775000", "155347.562500", "155348.350000", "155349.140000", "155349.927500", "155350.715000", "155351.505000", "155352.292500", "155353.080000", "155353.867500", "155354.657500", "155355.445000", "155356.232500", "155357.020000", "155357.810000", "155358.597500", "155359.385000", "155400.172500", "155400.962500", "155401.750000", "155402.537500", "155403.325000", "155404.115000", "155404.902500", "155405.690000", "155406.477500", "155407.267500", "155408.055000", "155408.842500", "155409.632500", "155410.420000", "155411.207500", "155411.995000", "155412.785000", "155413.572500", "155414.360000", "155415.147500", "155415.937500", "155416.725000", "155417.512500", "155418.300000", "155419.090000", "155419.877500", "155420.665000", "155421.452500", "155422.242500", "155423.030000", "155423.817500", "155424.605000", "155425.395000", "155426.182500", "155426.970000", "155427.760000", "155428.547500", "155429.335000", "155430.122500", "155430.912500", "155431.700000", "155432.487500", "155433.275000", "155434.065000", "155434.852500", "155435.640000", "155436.427500", "155437.217500", "155438.005000", "155438.792500", "155439.580000", "155440.370000", "155441.157500", "155441.945000", "155442.732500", "155443.522500", "155444.310000", "155445.097500", "155445.887500", "155446.675000", "155447.462500", "155448.250000", "155449.040000", "155449.827500", "155450.615000", "155451.402500", "155452.192500", "155452.980000", "155453.767500", "155454.555000", "155455.345000", "155456.132500", "155456.920000", "155457.707500", "155458.497500", "155459.285000", "155500.072500", "155500.860000", "155501.650000", "155502.437500", "155503.225000", "155504.015000", "155504.802500", "155505.590000", "155506.377500", "155507.167500", "155507.955000", "155508.742500", "155509.530000", "155510.320000", "155511.107500", "155511.895000", "155512.682500", "155513.472500", "155514.260000", "155515.047500", "155515.835000", "155516.625000", "155517.412500", "155518.200000", "155518.987500", "155519.777500", "155520.565000", "155521.352500", "155522.142500", "155522.930000", "155523.717500", "155524.505000", "155525.295000", "155526.082500", "155526.870000"],
      "ContentTime": ["165740.609000", "165740.625000", "165740.625000", "165740.625000", "165740.625000", "165740.640000", "165800.593000", "165800.593000", "165800.593000", "165800.593000", "165800.609000", "165800.609000", "165800.609000", "165800.609000", "165800.609000", "165900.593000", "165900.593000", "165900.593000", "165900.593000", "165900.609000", "165900.609000", "165900.609000", "165900.609000", "165900.609000", "165900.609000", "165900.609000", "165900.625000", "165900.625000", "165900.625000", "165900.625000", "165900.625000", "165900.625000", "165900.625000", "165900.640000", "165900.640000", "165900.640000", "165900.640000", "165900.640000", "165900.640000", "165900.640000", "165900.656000", "165900.656000", "165900.656000", "165900.656000", "170000.593000", "170000.593000", "170000.593000", "170000.593000", "170000.609000", "170000.609000", "170000.609000", "170000.609000", "170000.609000", "170000.609000", "170000.609000", "170000.625000", "170000.625000", "170000.625000", "170000.625000", "170000.625000", "170000.625000", "170000.625000", "170000.640000", "170000.640000", "170000.640000", "170000.640000", "170000.640000", "170000.640000", "170000.640000", "170000.656000", "170000.656000", "170000.656000", "170100.593000", "170100.593000", "170100.593000", "170100.593000", "170100.609000", "170100.609000", "170100.609000", "170100.609000", "170100.609000", "170100.609000", "170100.609000", "170100.625000", "170100.625000", "170100.625000", "170100.625000", "170100.625000", "170100.625000", "170100.625000", "170100.640000", "170100.640000", "170100.640000", "170100.640000", "170100.640000", "170100.656000", "170100.656000", "170100.656000", "170100.656000", "170100.656000", "170200.593000", "170200.593000", "170200.593000", "170200.593000", "170200.609000", "170200.609000", "170200.609000", "170200.609000", "170200.609000", "170200.609000", "170200.609000", "170200.625000", "170200.625000", "170200.625000", "170200.625000", "170200.625000", "170200.625000", "170200.625000", "170200.640000", "170200.640000", "170200.640000", "170200.640000", "170200.640000", "170200.640000", "170200.640000", "170200.656000", "170200.656000", "170200.656000", "170300.593000", "170300.593000", "170300.593000", "170300.593000", "170300.609000", "170300.609000", "170300.609000", "170300.609000", "170300.609000", "170300.609000", "170300.609000", "170300.625000", "170300.625000", "170300.625000", "170300.625000", "170300.625000", "170300.625000", "170300.625000", "170300.640000", "170300.640000", "170300.640000", "170300.640000", "170300.640000", "170300.640000", "170300.640000", "170300.656000", "170300.656000", "170300.656000", "170300.656000", "170400.593000", "170400.593000", "170400.593000", "170400.593000", "170400.609000", "170400.609000", "170400.609000", "170400.609000", "170400.609000", "170400.609000", "170400.609000", "170400.625000", "170400.625000", "170400.625000", "170400.625000", "170400.625000", "170400.625000", "170400.625000", "170400.640000", "170400.640000", "170400.640000", "170400.640000", "170400.640000", "170400.640000", "170400.640000", "170400.656000", "170400.656000", "170400.656000", "170500.593000", "170500.593000", "170500.593000", "170500.593000", "170500.609000", "170500.609000", "170500.609000", "170500.609000", "170500.609000", "170500.609000", "170500.609000", "170500.625000", "170500.625000", "170500.625000", "170500.625000", "170500.625000", "170500.625000", "170500.625000", "170500.640000", "170500.640000", "170500.640000", "170500.640000", "170500.640000", "170500.640000", "170500.640000", "170500.656000", "170500.656000", "170500.656000", "170600.593000", "170600.593000", "170600.593000", "170600.593000", "170600.609000", "170600.609000", "170600.609000", "170600.609000", "170600.609000", "170600.609000", "170600.609000", "170600.625000", "170600.625000", "170600.625000", "170600.625000", "170600.625000", "170600.625000", "170600.625000", "170600.640000", "170600.640000", "170600.640000", "170600.640000", "170600.640000", "170600.640000", "170600.640000", "170600.656000", "170600.656000", "170600.656000", "170700.593000", "170700.593000", "170700.593000", "170700.593000", "170700.609000", "170700.609000", "170700.609000", "170700.609000", "170700.609000", "170700.609000", "170700.609000", "170700.625000", "170700.625000", "170700.625000", "170700.625000", "170700.625000", "170700.625000", "170700.625000", "170700.640000", "170700.640000", "170700.640000", "170700.640000", "170700.640000", "170700.640000", "170700.640000", "170700.656000", "170700.656000", "170700.656000", "170800.593000", "170800.593000", "170800.593000", "170800.593000", "170800.609000", "170800.609000", "170800.609000", "170800.609000", "170800.609000", "170800.609000", "170800.609000", "170800.625000", "170800.625000", "170800.625000", "170800.625000", "170800.625000", "170800.625000", "170800.625000", "170800.640000", "170800.640000", "170800.640000", "170800.640000", "170800.640000", "170800.640000", "170800.656000", "170800.656000", "170800.656000", "170800.656000", "170800.656000", "170900.593000", "170900.593000", "170900.593000", "170900.593000", "170900.609000", "170900.609000", "170900.609000", "170900.609000", "170900.609000", "170900.609000", "170900.609000", "170900.625000", "170900.625000", "170900.625000", "170900.625000", "170900.625000", "170900.625000", "170900.625000", "170900.640000", "170900.640000", "170900.640000", "170900.640000", "170900.640000", "170900.640000", "170900.640000", "170900.656000", "170900.656000", "170900.656000", "171000.593000", "171000.593000", "171000.593000", "171000.593000", "171000.609000", "171000.609000", "171000.609000", "171000.609000", "171000.609000", "171000.609000", "171000.609000", "171000.625000", "171000.625000", "171000.625000", "171000.625000", "171000.625000", "171000.625000", "171000.625000", "171000.640000", "171000.640000", "171000.640000", "171000.640000", "171000.640000", "171000.640000", "171000.640000", "171000.656000", "171000.656000", "171000.656000", "171100.593000", "171100.593000", "171100.593000", "171100.593000", "171100.609000", "171100.609000", "171100.609000", "171100.609000", "171100.609000", "171100.609000", "171100.609000", "171100.625000", "171100.625000", "171100.625000", "171100.625000", "171100.625000", "171100.625000", "171100.625000", "171100.640000", "171100.640000", "171100.640000", "171100.640000", "171100.640000", "171100.640000", "171100.656000", "171100.656000", "171100.656000", "171100.656000", "171200.593000", "171200.593000", "171200.593000", "171200.593000", "171200.609000", "171200.609000", "171200.609000", "171200.609000", "171200.609000", "171200.609000", "171200.609000", "171200.625000", "171200.625000", "171200.625000", "171200.625000", "171200.625000", "171200.625000", "171200.625000", "171200.640000", "171200.640000", "171200.640000", "171200.640000", "171200.640000", "171200.640000", "171200.640000", "171200.656000", "171200.656000", "171200.656000", "171200.656000", "171300.593000", "171300.593000", "171300.593000", "171300.593000", "171300.609000", "171300.609000", "171300.609000", "171300.609000", "171300.609000", "171300.609000", "171300.609000", "171300.625000", "171300.625000", "171300.625000", "171300.625000", "171300.625000", "171300.625000", "171300.625000", "171300.640000", "171300.640000", "171300.640000", "171300.640000", "171300.640000", "171300.640000", "171300.640000", "171300.656000", "171300.656000", "171300.656000", "171400.593000", "171400.593000", "171400.593000", "171400.593000", "171400.609000", "171400.609000", "171400.609000", "171400.609000", "171400.609000", "171400.609000", "171400.625000", "171400.640000", "171400.640000", "171400.640000", "171400.640000", "171400.640000", "171400.640000", "171400.640000", "171400.656000", "171400.656000", "171400.656000", "171400.656000", "171400.656000", "171400.656000", "171400.656000", "171400.671000", "171400.671000", "171400.671000", "171500.593000", "171500.593000", "171500.593000", "171500.593000", "171500.609000", "171500.609000", "171500.609000", "171500.625000", "171500.625000", "171500.625000", "171500.625000", "171500.640000", "171500.640000", "171500.640000", "171500.640000", "171500.640000", "171500.656000", "171500.656000", "171500.656000", "171500.656000", "171500.656000", "171500.656000", "171500.671000", "171500.671000", "171500.671000", "171500.671000", "171500.671000", "171500.671000", "171600.593000", "171600.593000", "171600.593000", "171600.593000", "171600.609000", "171600.609000", "171600.609000", "171600.609000", "171600.609000", "171600.609000", "171600.609000", "171600.625000", "171600.625000", "171600.625000", "171600.625000", "171600.640000", "171600.640000", "171600.640000", "171600.640000", "171600.640000", "171600.640000", "171600.640000", "171600.656000", "171600.656000", "171600.656000", "171600.656000", "171600.656000", "171600.656000", "171600.671000", "171700.593000", "171700.593000", "171700.593000", "171700.593000", "171700.609000", "171700.609000", "171700.609000", "171700.609000", "171700.609000", "171700.609000", "171700.609000", "171700.625000", "171700.625000", "171700.625000", "171700.625000", "171700.625000", "171700.625000", "171700.625000", "171700.640000", "171700.640000", "171700.640000", "171700.640000", "171700.640000", "171700.640000", "171700.656000", "171700.656000", "171700.656000", "171700.656000", "171800.593000", "171800.593000", "171800.593000", "171800.609000", "171800.609000", "171800.609000", "171800.609000", "171800.609000", "171800.609000", "171800.609000", "171800.625000", "171800.625000", "171800.625000", "171800.625000", "171800.625000", "171800.640000", "171800.640000", "171800.640000", "171800.640000", "171800.640000", "171800.640000", "171800.640000", "171800.656000", "171800.656000", "171800.656000", "171800.656000", "171800.656000", "171800.656000", "171800.703000"],
