{
  "AcquisitionMatrixPE": 104,
  "AcquisitionNumber": 1,
  "AcquisitionTime": "15:39:40.690000",
  "BandwidthPerPixelPhaseEncode": 13.935,
  "BaseResolution": 104,
  "CoilString": "C:HEA;HEP",
  "ConversionSoftware": "dcm2niix",
  "ConversionSoftwareVersion": "v1.0.20210317",
  "DerivedVendorReportedEchoSpacing": 0.000690017,
  "DeviceSerialNumber": "35450",
  "DwellTime": 2.5e-06,
  "EchoTime": 0.0348,
  "EffectiveEchoSpacing": 0.000690017,
  "FlipAngle": 55,
  "ImageComments": "Unaliased MB8/PE3",
  "ImageOrientationPatientDICOM": [1, -0.000135443, -0.000745015, 5.74508e-08, 0.983887, -0.178793],
  "ImageType": [
    "ORIGINAL",
    "PRIMARY",
    "M",
    "MB",
    "ND",
    "MOSAIC"
],
  "ImagingFrequency": 123.235,
  "InPlanePhaseEncodingDirectionDICOM": "COL",
  "InstitutionAddress": "Univeristy Ave. 197,Newark,North East,US,07102-1814",
  "InstitutionName": "RUBIC",
  "InstitutionalDepartmentName": "Department",
  "MRAcquisitionType": "2D",
  "MagneticFieldStrength": 3,
  "Manufacturer": "Siemens",
  "ManufacturersModelName": "TrioTim",
  "Modality": "MR",
  "MultibandAccelerationFactor": 8,
  "PartialFourier": 0.875,
  "PatientPosition": "HFS",
  "PercentPhaseFOV": 100,
  "PercentSampling": 100,
  "PhaseEncodingDirection": "j-",
  "PhaseEncodingSteps": 91,
  "PhaseResolution": 1,
  "PixelBandwidth": 1923,
  "ProcedureStepDescription": "Cole^Michael",
  "ProtocolName": "cmrr_mbep2d_bold_2mm_MB8_Task_8x",
  "PulseSequenceDetails": "%CustomerSeq%\\cmrr_mbep2d_bold",
  "ReceiveCoilName": "32Ch_Head",
  "ReconMatrixPE": 104,
  "RepetitionTime": 0.785,
  "SAR": 0.120123,
  "ScanOptions": "PFP\\FS",
  "ScanningSequence": "EP",
  "SequenceName": "epfid2d1_104",
  "SequenceVariant": "SK\\SS",
  "SeriesDescription": "cmrr_mbep2d_bold_2mm_MB8_Task_8x",
  "SeriesNumber": 19,
  "ShimSetting": [2111, -403, -7489, 215, 59, -345, 228, 82],
  "SliceThickness": 2,
  "SliceTiming": [0, 0.4375, 0.0875, 0.525, 0.175, 0.6125, 0.2625, 0.7, 0.35, 0, 0.4375, 0.0875, 0.525, 0.175, 0.6125, 0.2625, 0.7, 0.35, 0, 0.4375, 0.0875, 0.525, 0.175, 0.6125, 0.2625, 0.7, 0.35, 0, 0.4375, 0.0875, 0.525, 0.175, 0.6125, 0.2625, 0.7, 0.35, 0, 0.4375, 0.0875, 0.525, 0.175, 0.6125, 0.2625, 0.7, 0.35, 0, 0.4375, 0.0875, 0.525, 0.175, 0.6125, 0.2625, 0.7, 0.35, 0, 0.4375, 0.0875, 0.525, 0.175, 0.6125, 0.2625, 0.7, 0.35, 0, 0.4375, 0.0875, 0.525, 0.175, 0.6125, 0.2625, 0.7, 0.35],
  "SoftwareVersions": "syngo MR B19",
  "SpacingBetweenSlices": 2,
  "StationName": "MRC35450",
  "TaskName": "cpro",
  "TotalReadoutTime": 0.0710717,
  "TxRefAmp": 310.758,
  "dcmmeta_affine": [
    [-1.9999994039535522, 1.1490166684779979e-07, -0.0015144535573199391, 101.21371459960938],
    [0.0002708868123590946, 1.9677734375, -0.35758596658706665, -73.25880432128906],
    [-0.0014900302048772573, 0.3575860857963562, 1.9677728414535522, -94.5534439086914],
    [0.0, 0.0, 0.0, 1.0]
],
  "dcmmeta_reorient_transform": [
    [0.0, -1.0, 0.0, 103.0],
    [1.0, 0.0, 0.0, 0.0],
    [0.0, 0.0, 1.0, 0.0],
    [0.0, 0.0, 0.0, 1.0]
],
  "dcmmeta_shape": [104, 104, 72, 581],
  "dcmmeta_slice_dim": 2,
  "dcmmeta_version": 0.6,
  "global": {
    "const": {
      "AcquisitionMatrix": [104, 0, 0, 104],
      "AngioFlag": "N",
      "BitsAllocated": 16,
      "BitsStored": 12,
      "Columns": 936,
      "EchoNumbers": 1,
      "EchoTime": 34.8,
      "EchoTrainLength": 1,
      "FlipAngle": 55.0,
      "HighBit": 11,
      "ImageOrientationPatient": [0.99999971330374, -0.0001354434054, -0.0007450151108, 5.7450833e-08, 0.98388670563677, -0.178793038095],
      "ImagePositionPatient": [-933.21353292765, -947.90291011682, 91.653582461203],
      "ImageType": [
        "ORIGINAL",
        "PRIMARY",
        "M",
        "MB",
        "ND",
        "MOSAIC"
],
      "ImagedNucleus": "1H",
      "ImagingFrequency": 123.235048,
      "InPlanePhaseEncodingDirection": "COL",
      "MRAcquisitionType": "2D",
      "MagneticFieldStrength": 3.0,
      "Manufacturer": "SIEMENS",
      "ManufacturerModelName": "TrioTim",
      "Modality": "MR",
      "NumberOfAverages": 1.0,
      "NumberOfPhaseEncodingSteps": 91,
      "PercentPhaseFieldOfView": 100.0,
      "PercentSampling": 100.0,
      "PerformedProcedureStepStartTime": "140722.093000",
      "PhotometricInterpretation": "MONOCHROME2",
      "PixelBandwidth": 1923.0,
      "PixelRepresentation": 0,
      "PixelSpacing": [2.0, 2.0],
      "ProtocolName": "cmrr_mbep2d_bold_2mm_MB8_Task_8x",
      "RepetitionTime": 785.0,
      "Rows": 936,
      "SAR": 0.12012343128242,
      "SamplesPerPixel": 1,
      "ScanOptions": [
        "PFP",
        "FS"
],
      "ScanningSequence": "EP",
      "SequenceName": "epfid2d1_104",
      "SequenceVariant": [
        "SK",
        "SS"
],
      "SeriesDescription": "cmrr_mbep2d_bold_2mm_MB8_Task_8x",
      "SeriesNumber": 19,
      "SeriesTime": "163639.359000",
      "SliceLocation": -80.008331332601,
      "SliceThickness": 2.0,
      "SmallestImagePixelValue": 0,
      "SoftwareVersions": "syngo MR B19",
      "SpacingBetweenSlices": 1.9999999465957,
      "SpecificCharacterSet": "ISO_IR 100",
      "StudyID": "1",
      "StudyTime": "140722.062000",
      "TransmitCoilName": "Body",
      "VariableFlipAngleFlag": "N",
      "WindowCenterWidthExplanation": "Algo1",
      "dBdt": 0.0},
    "slices": {}
  },
  "time": {
    "samples": {
      "AcquisitionNumber": [1, 2, 3, 4, 5, 6, 7, 8, 9, 10, 11, 12, 13, 14, 15, 16, 17, 18, 19, 20, 21, 22, 23, 24, 25, 26, 27, 28, 29, 30, 31, 32, 33, 34, 35, 36, 37, 38, 39, 40, 41, 42, 43, 44, 45, 46, 47, 48, 49, 50, 51, 52, 53, 54, 55, 56, 57, 58, 59, 60, 61, 62, 63, 64, 65, 66, 67, 68, 69, 70, 71, 72, 73, 74, 75, 76, 77, 78, 79, 80, 81, 82, 83, 84, 85, 86, 87, 88, 89, 90, 91, 92, 93, 94, 95, 96, 97, 98, 99, 100, 101, 102, 103, 104, 105, 106, 107, 108, 109, 110, 111, 112, 113, 114, 115, 116, 117, 118, 119, 120, 121, 122, 123, 124, 125, 126, 127, 128, 129, 130, 131, 132, 133, 134, 135, 136, 137, 138, 139, 140, 141, 142, 143, 144, 145, 146, 147, 148, 149, 150, 151, 152, 153, 154, 155, 156, 157, 158, 159, 160, 161, 162, 163, 164, 165, 166, 167, 168, 169, 170, 171, 172, 173, 174, 175, 176, 177, 178, 179, 180, 181, 182, 183, 184, 185, 186, 187, 188, 189, 190, 191, 192, 193, 194, 195, 196, 197, 198, 199, 200, 201, 202, 203, 204, 205, 206, 207, 208, 209, 210, 211, 212, 213, 214, 215, 216, 217, 218, 219, 220, 221, 222, 223, 224, 225, 226, 227, 228, 229, 230, 231, 232, 233, 234, 235, 236, 237, 238, 239, 240, 241, 242, 243, 244, 245, 246, 247, 248, 249, 250, 251, 252, 253, 254, 255, 256, 257, 258, 259, 260, 261, 262, 263, 264, 265, 266, 267, 268, 269, 270, 271, 272, 273, 274, 275, 276, 277, 278, 279, 280, 281, 282, 283, 284, 285, 286, 287, 288, 289, 290, 291, 292, 293, 294, 295, 296, 297, 298, 299, 300, 301, 302, 303, 304, 305, 306, 307, 308, 309, 310, 311, 312, 313, 314, 315, 316, 317, 318, 319, 320, 321, 322, 323, 324, 325, 326, 327, 328, 329, 330, 331, 332, 333, 334, 335, 336, 337, 338, 339, 340, 341, 342, 343, 344, 345, 346, 347, 348, 349, 350, 351, 352, 353, 354, 355, 356, 357, 358, 359, 360, 361, 362, 363, 364, 365, 366, 367, 368, 369, 370, 371, 372, 373, 374, 375, 376, 377, 378, 379, 380, 381, 382, 383, 384, 385, 386, 387, 388, 389, 390, 391, 392, 393, 394, 395, 396, 397, 398, 399, 400, 401, 402, 403, 404, 405, 406, 407, 408, 409, 410, 411, 412, 413, 414, 415, 416, 417, 418, 419, 420, 421, 422, 423, 424, 425, 426, 427, 428, 429, 430, 431, 432, 433, 434, 435, 436, 437, 438, 439, 440, 441, 442, 443, 444, 445, 446, 447, 448, 449, 450, 451, 452, 453, 454, 455, 456, 457, 458, 459, 460, 461, 462, 463, 464, 465, 466, 467, 468, 469, 470, 471, 472, 473, 474, 475, 476, 477, 478, 479, 480, 481, 482, 483, 484, 485, 486, 487, 488, 489, 490, 491, 492, 493, 494, 495, 496, 497, 498, 499, 500, 501, 502, 503, 504, 505, 506, 507, 508, 509, 510, 511, 512, 513, 514, 515, 516, 517, 518, 519, 520, 521, 522, 523, 524, 525, 526, 527, 528, 529, 530, 531, 532, 533, 534, 535, 536, 537, 538, 539, 540, 541, 542, 543, 544, 545, 546, 547, 548, 549, 550, 551, 552, 553, 554, 555, 556, 557, 558, 559, 560, 561, 562, 563, 564, 565, 566, 567, 568, 569, 570, 571, 572, 573, 574, 575, 576, 577, 578, 579, 580, 581],
      "AcquisitionTime": ["153940.690000", "153941.477500", "153942.265000", "153943.052500", "153943.842500", "153944.630000", "153945.417500", "153946.207500", "153946.995000", "153947.782500", "153948.570000", "153949.360000", "153950.147500", "153950.935000", "153951.722500", "153952.512500", "153953.300000", "153954.087500", "153954.875000", "153955.665000", "153956.452500", "153957.240000", "153958.027500", "153958.817500", "153959.605000", "154000.392500", "154001.180000", "154001.970000", "154002.757500", "154003.545000", "154004.335000", "154005.122500", "154005.910000", "154006.697500", "154007.487500", "154008.275000", "154009.062500", "154009.850000", "154010.640000", "154011.427500", "154012.215000", "154013.002500", "154013.792500", "154014.580000", "154015.367500", "154016.155000", "154016.945000", "154017.732500", "154018.520000", "154019.307500", "154020.097500", "154020.885000", "154021.672500", "154022.462500", "154023.250000", "154024.037500", "154024.825000", "154025.615000", "154026.402500", "154027.190000", "154027.977500", "154028.767500", "154029.555000", "154030.342500", "154031.130000", "154031.920000", "154032.707500", "154033.495000", "154034.282500", "154035.072500", "154035.860000", "154036.647500", "154037.435000", "154038.225000", "154039.012500", "154039.800000", "154040.590000", "154041.377500", "154042.165000", "154042.952500", "154043.742500", "154044.530000", "154045.317500", "154046.105000", "154046.895000", "154047.682500", "154048.470000", "154049.257500", "154050.047500", "154050.835000", "154051.622500", "154052.410000", "154053.200000", "154053.987500", "154054.775000", "154055.562500", "154056.352500", "154057.140000", "154057.927500", "154058.717500", "154059.505000", "154100.292500", "154101.080000", "154101.870000", "154102.657500", "154103.445000", "154104.232500", "154105.022500", "154105.810000", "154106.597500", "154107.385000", "154108.175000", "154108.962500", "154109.750000", "154110.537500", "154111.327500", "154112.115000", "154112.902500", "154113.690000", "154114.480000", "154115.267500", "154116.055000", "154116.845000", "154117.632500", "154118.420000", "154119.207500", "154119.997500", "154120.785000", "154121.572500", "154122.360000", "154123.150000", "154123.937500", "154124.725000", "154125.512500", "154126.302500", "154127.090000", "154127.877500", "154128.665000", "154129.455000", "154130.242500", "154131.030000", "154131.817500", "154132.607500", "154133.395000", "154134.182500", "154134.972500", "154135.760000", "154136.547500", "154137.335000", "154138.125000", "154138.912500", "154139.700000", "154140.487500", "154141.277500", "154142.065000", "154142.852500", "154143.640000", "154144.430000", "154145.217500", "154146.005000", "154146.792500", "154147.582500", "154148.370000", "154149.157500", "154149.945000", "154150.735000", "154151.522500", "154152.310000", "154153.100000", "154153.887500", "154154.675000", "154155.462500", "154156.252500", "154157.040000", "154157.827500", "154158.615000", "154159.405000", "154200.192500", "154200.980000", "154201.767500", "154202.557500", "154203.345000", "154204.132500", "154204.920000", "154205.710000", "154206.497500", "154207.285000", "154208.072500", "154208.862500", "154209.650000", "154210.437500", "154211.227500", "154212.015000", "154212.802500", "154213.590000", "154214.380000", "154215.167500", "154215.955000", "154216.742500", "154217.532500", "154218.320000", "154219.107500", "154219.895000", "154220.685000", "154221.472500", "154222.260000", "154223.047500", "154223.837500", "154224.625000", "154225.412500", "154226.200000", "154226.990000", "154227.777500", "154228.565000", "154229.355000", "154230.142500", "154230.930000", "154231.717500", "154232.507500", "154233.295000", "154234.082500", "154234.870000", "154235.660000", "154236.447500", "154237.235000", "154238.022500", "154238.812500", "154239.600000", "154240.387500", "154241.175000", "154241.965000", "154242.752500", "154243.540000", "154244.327500", "154245.117500", "154245.905000", "154246.692500", "154247.482500", "154248.270000", "154249.057500", "154249.845000", "154250.635000", "154251.422500", "154252.210000", "154252.997500", "154253.787500", "154254.575000", "154255.362500", "154256.150000", "154256.940000", "154257.727500", "154258.515000", "154259.302500", "154300.092500", "154300.880000", "154301.667500", "154302.457500", "154303.245000", "154304.032500", "154304.820000", "154305.610000", "154306.397500", "154307.185000", "154307.972500", "154308.762500", "154309.550000", "154310.337500", "154311.125000", "154311.915000", "154312.702500", "154313.490000", "154314.277500", "154315.067500", "154315.855000", "154316.642500", "154317.430000", "154318.220000", "154319.007500", "154319.795000", "154320.585000", "154321.372500", "154322.160000", "154322.947500", "154323.737500", "154324.525000", "154325.312500", "154326.100000", "154326.890000", "154327.677500", "154328.465000", "154329.252500", "154330.042500", "154330.830000", "154331.617500", "154332.405000", "154333.195000", "154333.982500", "154334.770000", "154335.557500", "154336.347500", "154337.135000", "154337.922500", "154338.712500", "154339.500000", "154340.287500", "154341.075000", "154341.865000", "154342.652500", "154343.440000", "154344.227500", "154345.017500", "154345.805000", "154346.592500", "154347.380000", "154348.170000", "154348.957500", "154349.745000", "154350.532500", "154351.322500", "154352.110000", "154352.897500", "154353.685000", "154354.475000", "154355.262500", "154356.050000", "154356.840000", "154357.627500", "154358.415000", "154359.202500", "154359.992500", "154400.780000", "154401.567500", "154402.355000", "154403.145000", "154403.932500", "154404.720000", "154405.507500", "154406.297500", "154407.085000", "154407.872500", "154408.660000", "154409.450000", "154410.237500", "154411.025000", "154411.812500", "154412.602500", "154413.390000", "154414.177500", "154414.967500", "154415.755000", "154416.542500", "154417.330000", "154418.120000", "154418.907500", "154419.695000", "154420.482500", "154421.272500", "154422.060000", "154422.847500", "154423.635000", "154424.425000", "154425.212500", "154426.000000", "154426.787500", "154427.577500", "154428.365000", "154429.152500", "154429.940000", "154430.730000", "154431.517500", "154432.305000", "154433.095000", "154433.882500", "154434.670000", "154435.457500", "154436.247500", "154437.035000", "154437.822500", "154438.610000", "154439.400000", "154440.187500", "154440.975000", "154441.762500", "154442.552500", "154443.340000", "154444.127500", "154444.915000", "154445.705000", "154446.492500", "154447.280000", "154448.067500", "154448.857500", "154449.645000", "154450.432500", "154451.222500", "154452.010000", "154452.797500", "154453.585000", "154454.375000", "154455.162500", "154455.950000", "154456.737500", "154457.527500", "154458.315000", "154459.102500", "154459.890000", "154500.680000", "154501.467500", "154502.255000", "154503.042500", "154503.832500", "154504.620000", "154505.407500", "154506.195000", "154506.985000", "154507.772500", "154508.560000", "154509.350000", "154510.137500", "154510.925000", "154511.712500", "154512.502500", "154513.290000", "154514.077500", "154514.865000", "154515.655000", "154516.442500", "154517.230000", "154518.017500", "154518.807500", "154519.595000", "154520.382500", "154521.170000", "154521.960000", "154522.747500", "154523.535000", "154524.322500", "154525.112500", "154525.900000", "154526.687500", "154527.477500", "154528.265000", "154529.052500", "154529.840000", "154530.630000", "154531.417500", "154532.205000", "154532.992500", "154533.782500", "154534.570000", "154535.357500", "154536.145000", "154536.935000", "154537.722500", "154538.510000", "154539.297500", "154540.087500", "154540.875000", "154541.662500", "154542.450000", "154543.240000", "154544.027500", "154544.815000", "154545.605000", "154546.392500", "154547.180000", "154547.967500", "154548.757500", "154549.545000", "154550.332500", "154551.120000", "154551.910000", "154552.697500", "154553.485000", "154554.272500", "154555.062500", "154555.850000", "154556.637500", "154557.425000", "154558.215000", "154559.002500", "154559.790000", "154600.577500", "154601.367500", "154602.155000", "154602.942500", "154603.732500", "154604.520000", "154605.307500", "154606.095000", "154606.885000", "154607.672500", "154608.460000", "154609.247500", "154610.037500", "154610.825000", "154611.612500", "154612.400000", "154613.190000", "154613.977500", "154614.765000", "154615.552500", "154616.342500", "154617.130000", "154617.917500", "154618.707500", "154619.495000", "154620.282500", "154621.070000", "154621.860000", "154622.647500", "154623.435000", "154624.222500", "154625.012500", "154625.800000", "154626.587500", "154627.375000", "154628.165000", "154628.952500", "154629.740000", "154630.527500", "154631.317500", "154632.105000", "154632.892500", "154633.680000", "154634.470000", "154635.257500", "154636.045000", "154636.835000", "154637.622500", "154638.410000", "154639.197500", "154639.987500", "154640.775000", "154641.562500", "154642.350000", "154643.140000", "154643.927500", "154644.715000", "154645.502500", "154646.292500", "154647.080000", "154647.867500", "154648.655000", "154649.445000", "154650.232500", "154651.020000", "154651.807500", "154652.597500", "154653.385000", "154654.172500", "154654.962500", "154655.750000", "154656.537500", "154657.325000", "154658.115000", "154658.902500", "154659.690000", "154700.477500", "154701.267500", "154702.055000", "154702.842500", "154703.630000", "154704.420000", "154705.207500", "154705.995000", "154706.782500", "154707.572500", "154708.360000", "154709.147500", "154709.935000", "154710.725000", "154711.512500", "154712.300000", "154713.090000", "154713.877500", "154714.665000", "154715.452500", "154716.242500", "154717.030000", "154717.817500"],
      "ContentTime": ["163639.359000", "163639.359000", "163639.375000", "163639.375000", "163639.375000", "163639.375000", "163639.375000", "163739.343000", "163739.343000", "163739.343000", "163739.343000", "163739.359000", "163739.359000", "163739.359000", "163739.359000", "163739.359000", "163739.359000", "163739.359000", "163739.375000", "163739.375000", "163739.375000", "163739.375000", "163739.375000", "163739.375000", "163739.375000", "163739.390000", "163739.390000", "163739.390000", "163739.390000", "163739.390000", "163739.406000", "163739.406000", "163739.406000", "163739.406000", "163739.406000", "163839.343000", "163839.343000", "163839.343000", "163839.343000", "163839.359000", "163839.359000", "163839.359000", "163839.359000", "163839.359000", "163839.359000", "163839.359000", "163839.375000", "163839.375000", "163839.375000", "163839.375000", "163839.375000", "163839.375000", "163839.375000", "163839.390000", "163839.390000", "163839.390000", "163839.390000", "163839.390000", "163839.390000", "163839.390000", "163839.406000", "163839.406000", "163839.406000", "163939.343000", "163939.343000", "163939.343000", "163939.343000", "163939.359000", "163939.359000", "163939.359000", "163939.359000", "163939.359000", "163939.359000", "163939.359000", "163939.375000", "163939.375000", "163939.375000", "163939.375000", "163939.375000", "163939.375000", "163939.375000", "163939.390000", "163939.390000", "163939.390000", "163939.390000", "163939.390000", "163939.390000", "163939.406000", "163939.406000", "163939.406000", "164039.343000", "164039.343000", "164039.343000", "164039.343000", "164039.359000", "164039.359000", "164039.359000", "164039.359000", "164039.359000", "164039.359000", "164039.359000", "164039.375000", "164039.375000", "164039.375000", "164039.375000", "164039.375000", "164039.375000", "164039.375000", "164039.390000", "164039.390000", "164039.390000", "164039.390000", "164039.390000", "164039.390000", "164039.406000", "164039.406000", "164039.406000", "164039.406000", "164139.343000", "164139.343000", "164139.343000", "164139.343000", "164139.359000", "164139.359000", "164139.359000", "164139.359000", "164139.359000", "164139.359000", "164139.359000", "164139.375000", "164139.375000", "164139.375000", "164139.375000", "164139.375000", "164139.375000", "164139.375000", "164139.390000", "164139.390000", "164139.390000", "164139.390000", "164139.390000", "164139.390000", "164139.390000", "164139.406000", "164139.406000", "164139.406000", "164239.343000", "164239.343000", "164239.343000", "164239.343000", "164239.359000", "164239.359000", "164239.359000", "164239.359000", "164239.359000", "164239.359000", "164239.359000", "164239.375000", "164239.375000", "164239.375000", "164239.375000", "164239.375000", "164239.375000", "164239.375000", "164239.390000", "164239.390000", "164239.390000", "164239.406000", "164239.406000", "164239.406000", "164239.406000", "164239.406000", "164239.406000", "164239.406000", "164339.343000", "164339.343000", "164339.343000", "164339.343000", "164339.359000", "164339.359000", "164339.359000", "164339.359000", "164339.359000", "164339.359000", "164339.359000", "164339.375000", "164339.375000", "164339.375000", "164339.375000", "164339.375000", "164339.375000", "164339.375000", "164339.390000", "164339.390000", "164339.390000", "164339.390000", "164339.390000", "164339.390000", "164339.390000", "164339.406000", "164339.406000", "164419.343000", "164419.343000", "164419.343000", "164419.343000", "164419.359000", "164419.359000", "164419.359000", "164419.359000", "164419.359000", "164419.359000", "164419.359000", "164419.375000", "164419.375000", "164419.375000", "164419.375000", "164419.375000", "164419.375000", "164419.375000", "164419.390000", "164519.343000", "164519.343000", "164519.343000", "164519.343000", "164519.359000", "164519.359000", "164519.359000", "164519.359000", "164519.359000", "164519.359000", "164519.359000", "164519.375000", "164519.375000", "164519.375000", "164519.375000", "164519.375000", "164519.375000", "164519.375000", "164519.390000", "164519.390000", "164519.390000", "164519.390000", "164519.390000", "164519.390000", "164519.390000", "164519.406000", "164519.406000", "164519.406000", "164619.343000", "164619.343000", "164619.343000", "164619.343000", "164619.359000", "164619.359000", "164619.359000", "164619.359000", "164619.359000", "164619.359000", "164619.359000", "164619.375000", "164619.375000", "164619.375000", "164619.375000", "164619.375000", "164619.375000", "164619.375000", "164619.390000", "164619.390000", "164619.390000", "164619.390000", "164619.390000", "164619.390000", "164619.390000", "164619.406000", "164619.406000", "164719.343000", "164719.343000", "164719.343000", "164719.343000", "164719.359000", "164719.359000", "164719.359000", "164719.359000", "164719.359000", "164719.359000", "164719.359000", "164719.375000", "164719.375000", "164719.375000", "164719.375000", "164719.375000", "164719.375000", "164719.390000", "164719.390000", "164719.390000", "164719.406000", "164719.406000", "164719.406000", "164719.406000", "164719.406000", "164719.406000", "164719.406000", "164719.421000", "164819.343000", "164819.343000", "164819.343000", "164819.359000", "164819.359000", "164819.359000", "164819.359000", "164819.359000", "164819.375000", "164819.375000", "164819.375000", "164819.375000", "164819.375000", "164819.375000", "164819.375000", "164819.390000", "164819.390000", "164819.390000", "164819.390000", "164819.390000", "164819.390000", "164819.390000", "164819.406000", "164819.406000", "164819.406000", "164819.406000", "164819.406000", "164819.421000", "164919.343000", "164919.343000", "164919.343000", "164919.343000", "164919.359000", "164919.359000", "164919.359000", "164919.359000", "164919.359000", "164919.359000", "164919.359000", "164919.375000", "164919.375000", "164919.375000", "164919.375000", "164919.375000", "164919.375000", "164919.390000", "164919.390000", "164919.390000", "164919.390000", "164919.390000", "164919.406000", "164919.406000", "164919.406000", "164919.406000", "164919.406000", "164919.406000", "164919.406000", "165019.343000", "165019.343000", "165019.343000", "165019.343000", "165019.359000", "165019.359000", "165019.359000", "165019.359000", "165019.359000", "165019.359000", "165019.359000", "165019.375000", "165019.375000", "165019.375000", "165019.375000", "165019.375000", "165019.375000", "165019.375000", "165019.390000", "165019.390000", "165019.390000", "165019.390000", "165019.390000", "165019.390000", "165019.390000", "165019.406000", "165019.406000", "165019.406000", "165119.343000", "165119.343000", "165119.343000", "165119.343000", "165119.359000", "165119.359000", "165119.359000", "165119.359000", "165119.359000", "165119.359000", "165119.359000", "165119.375000", "165119.375000", "165119.375000", "165119.375000", "165119.375000", "165119.375000", "165119.375000", "165119.390000", "165119.390000", "165119.390000", "165119.390000", "165119.390000", "165119.390000", "165119.390000", "165119.406000", "165119.406000", "165119.406000", "165219.343000", "165219.343000", "165219.343000", "165219.343000", "165219.359000", "165219.359000", "165219.359000", "165219.359000", "165219.359000", "165219.359000", "165219.359000", "165219.375000", "165219.375000", "165219.375000", "165219.375000", "165219.375000", "165219.375000", "165219.375000", "165219.390000", "165219.390000", "165219.390000", "165219.390000", "165219.390000", "165219.390000", "165219.390000", "165219.406000", "165219.406000", "165219.406000", "165319.343000", "165319.343000", "165319.343000", "165319.343000", "165319.359000", "165319.359000", "165319.359000", "165319.359000", "165319.359000", "165319.359000", "165319.359000", "165319.375000", "165319.375000", "165319.375000", "165319.375000", "165319.375000", "165319.375000", "165319.375000", "165319.390000", "165319.390000", "165319.390000", "165319.390000", "165319.390000", "165319.406000", "165319.406000", "165319.406000", "165319.406000", "165319.406000", "165419.343000", "165419.343000", "165419.343000", "165419.343000", "165419.359000", "165419.359000", "165419.359000", "165419.359000", "165419.359000", "165419.359000", "165419.375000", "165419.375000", "165419.375000", "165419.375000", "165419.375000", "165419.375000", "165419.390000", "165419.390000", "165419.390000", "165419.390000", "165419.390000", "165419.390000", "165419.390000", "165419.406000", "165419.406000", "165419.406000", "165419.406000", "165419.406000", "165519.343000", "165519.343000", "165519.343000", "165519.343000", "165519.359000", "165519.359000", "165519.359000", "165519.359000", "165519.359000", "165519.359000", "165519.359000", "165519.375000", "165519.375000", "165519.375000", "165519.375000", "165519.375000", "165519.375000", "165519.375000", "165519.390000", "165519.390000", "165519.390000", "165519.390000", "165519.390000", "165519.390000", "165519.406000", "165519.406000", "165519.406000", "165519.406000", "165619.343000", "165619.343000", "165619.343000", "165619.343000", "165619.359000", "165619.359000", "165619.359000", "165619.359000", "165619.359000", "165619.359000", "165619.359000", "165619.375000", "165619.375000", "165619.375000", "165619.375000", "165619.375000", "165619.375000", "165619.375000", "165619.390000", "165619.390000", "165619.390000", "165619.390000", "165619.390000", "165619.406000", "165619.406000", "165619.406000", "165619.406000", "165619.406000", "165710.625000", "165710.625000", "165710.625000", "165710.625000", "165710.625000", "165710.640000", "165710.640000", "165710.640000", "165710.640000", "165710.640000", "165710.640000", "165710.656000", "165710.656000", "165710.656000", "165710.656000", "165710.656000", "165710.671000", "165710.671000", "165710.671000", "165710.671000", "165710.671000", "165710.671000", "165710.671000", "165710.687000", "165710.687000"],
