{
  "AcquisitionMatrixPE": 104,
  "AcquisitionNumber": 1,
  "AcquisitionTime": "16:28:8.725000",
  "BandwidthPerPixelPhaseEncode": 13.935,
  "BaseResolution": 104,
  "CoilString": "C:HEA;HEP",
  "ConversionSoftware": "dcm2niix",
  "ConversionSoftwareVersion": "v1.0.20210317",
  "DerivedVendorReportedEchoSpacing": 0.000690017,
  "DeviceSerialNumber": "35450",
  "DwellTime": 2.5e-06,
  "EchoTime": 0.0348,
  "EffectiveEchoSpacing": 0.000690017,
  "FlipAngle": 55,
  "ImageComments": "Unaliased MB8/PE3",
  "ImageOrientationPatientDICOM": [1, 0, 0, 0, 0.999048, -0.0436194],
  "ImageType": [
    "ORIGINAL",
    "PRIMARY",
    "M",
    "MB",
    "ND",
    "MOSAIC"
],
  "ImagingFrequency": 123.235,
  "InPlanePhaseEncodingDirectionDICOM": "COL",
  "InstitutionAddress": "Univeristy Ave. 197,Newark,North East,US,07102-1814",
  "InstitutionName": "RUBIC",
  "InstitutionalDepartmentName": "Department",
  "MRAcquisitionType": "2D",
  "MagneticFieldStrength": 3,
  "Manufacturer": "Siemens",
  "ManufacturersModelName": "TrioTim",
  "Modality": "MR",
  "MultibandAccelerationFactor": 8,
  "PartialFourier": 0.875,
  "PatientPosition": "HFS",
  "PercentPhaseFOV": 100,
  "PercentSampling": 100,
  "PhaseEncodingDirection": "j-",
  "PhaseEncodingSteps": 91,
  "PhaseResolution": 1,
  "PixelBandwidth": 1923,
  "ProcedureStepDescription": "Cole^Michael",
  "ProtocolName": "cmrr_mbep2d_bold_2mm_MB8_Task_8x",
  "PulseSequenceDetails": "%CustomerSeq%\\cmrr_mbep2d_bold",
  "ReceiveCoilName": "32Ch_Head",
  "ReconMatrixPE": 104,
  "RepetitionTime": 0.785,
  "SAR": 0.133017,
  "ScanOptions": "PFP\\FS",
  "ScanningSequence": "EP",
  "SequenceName": "epfid2d1_104",
  "SequenceVariant": "SK\\SS",
  "SeriesDescription": "cmrr_mbep2d_bold_2mm_MB8_Task_8x",
  "SeriesNumber": 25,
  "ShimSetting": [2142, -367, -7174, 414, -121, -598, 338, -9],
  "SliceThickness": 2,
  "SliceTiming": [0, 0.4375, 0.0875, 0.525, 0.175, 0.6125, 0.2625, 0.7, 0.35, 0, 0.4375, 0.0875, 0.525, 0.175, 0.6125, 0.2625, 0.7, 0.35, 0, 0.4375, 0.0875, 0.525, 0.175, 0.6125, 0.2625, 0.7, 0.35, 0, 0.4375, 0.0875, 0.525, 0.175, 0.6125, 0.2625, 0.7, 0.35, 0, 0.4375, 0.0875, 0.525, 0.175, 0.6125, 0.2625, 0.7, 0.35, 0, 0.4375, 0.0875, 0.525, 0.175, 0.6125, 0.2625, 0.7, 0.35, 0, 0.4375, 0.0875, 0.525, 0.175, 0.6125, 0.2625, 0.7, 0.35, 0, 0.4375, 0.0875, 0.525, 0.175, 0.6125, 0.2625, 0.7, 0.35],
  "SoftwareVersions": "syngo MR B19",
  "SpacingBetweenSlices": 2,
  "StationName": "MRC35450",
  "TaskName": "cpro",
  "TotalReadoutTime": 0.0710717,
  "TxRefAmp": 378.941,
  "dcmmeta_affine": [
    [-2.0, 0.0, 0.0, 101.28813171386719],
    [0.0, 1.9980964660644531, -0.08723877370357513, -91.36768341064453],
    [0.0, 0.08723877370357513, 1.9980964660644531, -95.83680725097656],
    [0.0, 0.0, 0.0, 1.0]
],
  "dcmmeta_reorient_transform": [
    [0.0, -1.0, 0.0, 103.0],
    [1.0, 0.0, 0.0, 0.0],
    [0.0, 0.0, 1.0, 0.0],
    [0.0, 0.0, 0.0, 1.0]
],
  "dcmmeta_shape": [104, 104, 72, 581],
  "dcmmeta_slice_dim": 2,
  "dcmmeta_version": 0.6,
  "global": {
    "const": {
      "AcquisitionMatrix": [104, 0, 0, 104],
      "AngioFlag": "N",
      "BitsAllocated": 16,
      "BitsStored": 12,
      "Columns": 936,
      "EchoNumbers": 1,
      "EchoTime": 34.8,
      "EchoTrainLength": 1,
      "FlipAngle": 55.0,
      "HighBit": 11,
      "ImageOrientationPatient": [1.0, 0.0, 0.0, 0.0, 0.99904822159351, -0.0436193870985],
      "ImagePositionPatient": [-933.28813552856, -945.64436890914, -50.559880323712],
      "ImageType": [
        "ORIGINAL",
        "PRIMARY",
        "M",
        "MB",
        "ND",
        "MOSAIC"
],
      "ImagedNucleus": "1H",
      "ImagingFrequency": 123.23451,
      "InPlanePhaseEncodingDirection": "COL",
      "MRAcquisitionType": "2D",
      "MagneticFieldStrength": 3.0,
      "Manufacturer": "SIEMENS",
      "ManufacturerModelName": "TrioTim",
      "Modality": "MR",
      "NumberOfAverages": 1.0,
      "NumberOfPhaseEncodingSteps": 91,
      "PercentPhaseFieldOfView": 100.0,
      "PercentSampling": 100.0,
      "PerformedProcedureStepStartTime": "141820.562000",
      "PhotometricInterpretation": "MONOCHROME2",
      "PixelBandwidth": 1923.0,
      "PixelRepresentation": 0,
      "PixelSpacing": [2.0, 2.0],
      "ProtocolName": "cmrr_mbep2d_bold_2mm_MB8_Task_8x",
      "RepetitionTime": 785.0,
      "Rows": 936,
      "SAR": 0.13301732183379,
      "SamplesPerPixel": 1,
      "ScanOptions": [
        "PFP",
        "FS"
],
      "ScanningSequence": "EP",
      "SequenceName": "epfid2d1_104",
      "SequenceVariant": [
        "SK",
        "SS"
],
      "SeriesDescription": "cmrr_mbep2d_bold_2mm_MB8_Task_8x",
      "SeriesNumber": 25,
      "SeriesTime": "181659.859000",
      "SliceLocation": -91.760186306391,
      "SliceThickness": 2.0,
      "SmallestImagePixelValue": 0,
      "SoftwareVersions": "syngo MR B19",
      "SpacingBetweenSlices": 1.9999999692212,
      "SpecificCharacterSet": "ISO_IR 100",
      "StudyID": "1",
      "StudyTime": "141820.531000",
      "TransmitCoilName": "Body",
      "VariableFlipAngleFlag": "N",
      "WindowCenterWidthExplanation": "Algo1",
      "dBdt": 0.0},
    "slices": {}
  },
  "time": {
    "samples": {
      "AcquisitionNumber": [1, 2, 3, 4, 5, 6, 7, 8, 9, 10, 11, 12, 13, 14, 15, 16, 17, 18, 19, 20, 21, 22, 23, 24, 25, 26, 27, 28, 29, 30, 31, 32, 33, 34, 35, 36, 37, 38, 39, 40, 41, 42, 43, 44, 45, 46, 47, 48, 49, 50, 51, 52, 53, 54, 55, 56, 57, 58, 59, 60, 61, 62, 63, 64, 65, 66, 67, 68, 69, 70, 71, 72, 73, 74, 75, 76, 77, 78, 79, 80, 81, 82, 83, 84, 85, 86, 87, 88, 89, 90, 91, 92, 93, 94, 95, 96, 97, 98, 99, 100, 101, 102, 103, 104, 105, 106, 107, 108, 109, 110, 111, 112, 113, 114, 115, 116, 117, 118, 119, 120, 121, 122, 123, 124, 125, 126, 127, 128, 129, 130, 131, 132, 133, 134, 135, 136, 137, 138, 139, 140, 141, 142, 143, 144, 145, 146, 147, 148, 149, 150, 151, 152, 153, 154, 155, 156, 157, 158, 159, 160, 161, 162, 163, 164, 165, 166, 167, 168, 169, 170, 171, 172, 173, 174, 175, 176, 177, 178, 179, 180, 181, 182, 183, 184, 185, 186, 187, 188, 189, 190, 191, 192, 193, 194, 195, 196, 197, 198, 199, 200, 201, 202, 203, 204, 205, 206, 207, 208, 209, 210, 211, 212, 213, 214, 215, 216, 217, 218, 219, 220, 221, 222, 223, 224, 225, 226, 227, 228, 229, 230, 231, 232, 233, 234, 235, 236, 237, 238, 239, 240, 241, 242, 243, 244, 245, 246, 247, 248, 249, 250, 251, 252, 253, 254, 255, 256, 257, 258, 259, 260, 261, 262, 263, 264, 265, 266, 267, 268, 269, 270, 271, 272, 273, 274, 275, 276, 277, 278, 279, 280, 281, 282, 283, 284, 285, 286, 287, 288, 289, 290, 291, 292, 293, 294, 295, 296, 297, 298, 299, 300, 301, 302, 303, 304, 305, 306, 307, 308, 309, 310, 311, 312, 313, 314, 315, 316, 317, 318, 319, 320, 321, 322, 323, 324, 325, 326, 327, 328, 329, 330, 331, 332, 333, 334, 335, 336, 337, 338, 339, 340, 341, 342, 343, 344, 345, 346, 347, 348, 349, 350, 351, 352, 353, 354, 355, 356, 357, 358, 359, 360, 361, 362, 363, 364, 365, 366, 367, 368, 369, 370, 371, 372, 373, 374, 375, 376, 377, 378, 379, 380, 381, 382, 383, 384, 385, 386, 387, 388, 389, 390, 391, 392, 393, 394, 395, 396, 397, 398, 399, 400, 401, 402, 403, 404, 405, 406, 407, 408, 409, 410, 411, 412, 413, 414, 415, 416, 417, 418, 419, 420, 421, 422, 423, 424, 425, 426, 427, 428, 429, 430, 431, 432, 433, 434, 435, 436, 437, 438, 439, 440, 441, 442, 443, 444, 445, 446, 447, 448, 449, 450, 451, 452, 453, 454, 455, 456, 457, 458, 459, 460, 461, 462, 463, 464, 465, 466, 467, 468, 469, 470, 471, 472, 473, 474, 475, 476, 477, 478, 479, 480, 481, 482, 483, 484, 485, 486, 487, 488, 489, 490, 491, 492, 493, 494, 495, 496, 497, 498, 499, 500, 501, 502, 503, 504, 505, 506, 507, 508, 509, 510, 511, 512, 513, 514, 515, 516, 517, 518, 519, 520, 521, 522, 523, 524, 525, 526, 527, 528, 529, 530, 531, 532, 533, 534, 535, 536, 537, 538, 539, 540, 541, 542, 543, 544, 545, 546, 547, 548, 549, 550, 551, 552, 553, 554, 555, 556, 557, 558, 559, 560, 561, 562, 563, 564, 565, 566, 567, 568, 569, 570, 571, 572, 573, 574, 575, 576, 577, 578, 579, 580, 581],
      "AcquisitionTime": ["162808.725000", "162809.512500", "162810.300000", "162811.090000", "162811.877500", "162812.665000", "162813.452500", "162814.242500", "162815.030000", "162815.817500", "162816.607500", "162817.395000", "162818.182500", "162818.970000", "162819.760000", "162820.547500", "162821.335000", "162822.122500", "162822.912500", "162823.700000", "162824.487500", "162825.275000", "162826.065000", "162826.852500", "162827.640000", "162828.427500", "162829.217500", "162830.005000", "162830.792500", "162831.580000", "162832.370000", "162833.157500", "162833.945000", "162834.735000", "162835.522500", "162836.310000", "162837.097500", "162837.887500", "162838.675000", "162839.462500", "162840.250000", "162841.040000", "162841.827500", "162842.615000", "162843.402500", "162844.192500", "162844.980000", "162845.767500", "162846.555000", "162847.345000", "162848.132500", "162848.920000", "162849.707500", "162850.497500", "162851.285000", "162852.072500", "162852.862500", "162853.650000", "162854.437500", "162855.225000", "162856.015000", "162856.802500", "162857.590000", "162858.377500", "162859.167500", "162859.955000", "162900.742500", "162901.530000", "162902.320000", "162903.107500", "162903.895000", "162904.682500", "162905.472500", "162906.260000", "162907.047500", "162907.835000", "162908.625000", "162909.412500", "162910.200000", "162910.990000", "162911.777500", "162912.565000", "162913.352500", "162914.142500", "162914.930000", "162915.717500", "162916.505000", "162917.295000", "162918.082500", "162918.870000", "162919.657500", "162920.447500", "162921.235000", "162922.022500", "162922.810000", "162923.600000", "162924.387500", "162925.175000", "162925.962500", "162926.752500", "162927.540000", "162928.327500", "162929.117500", "162929.905000", "162930.692500", "162931.480000", "162932.270000", "162933.057500", "162933.845000", "162934.632500", "162935.422500", "162936.210000", "162936.997500", "162937.785000", "162938.575000", "162939.362500", "162940.150000", "162940.937500", "162941.727500", "162942.515000", "162943.302500", "162944.090000", "162944.880000", "162945.667500", "162946.455000", "162947.245000", "162948.032500", "162948.820000", "162949.607500", "162950.397500", "162951.185000", "162951.972500", "162952.760000", "162953.550000", "162954.337500", "162955.125000", "162955.912500", "162956.702500", "162957.490000", "162958.277500", "162959.065000", "162959.855000", "163000.642500", "163001.430000", "163002.220000", "163003.007500", "163003.795000", "163004.582500", "163005.372500", "163006.160000", "163006.947500", "163007.735000", "163008.525000", "163009.312500", "163010.100000", "163010.887500", "163011.677500", "163012.465000", "163013.252500", "163014.040000", "163014.830000", "163015.617500", "163016.405000", "163017.192500", "163017.982500", "163018.770000", "163019.557500", "163020.347500", "163021.135000", "163021.922500", "163022.710000", "163023.500000", "163024.287500", "163025.075000", "163025.862500", "163026.652500", "163027.440000", "163028.227500", "163029.015000", "163029.805000", "163030.592500", "163031.380000", "163032.167500", "163032.957500", "163033.745000", "163034.532500", "163035.320000", "163036.110000", "163036.897500", "163037.685000", "163038.475000", "163039.262500", "163040.050000", "163040.837500", "163041.627500", "163042.415000", "163043.202500", "163043.990000", "163044.780000", "163045.567500", "163046.355000", "163047.142500", "163047.932500", "163048.720000", "163049.507500", "163050.295000", "163051.085000", "163051.872500", "163052.660000", "163053.447500", "163054.237500", "163055.025000", "163055.812500", "163056.602500", "163057.390000", "163058.177500", "163058.965000", "163059.755000", "163100.542500", "163101.330000", "163102.117500", "163102.907500", "163103.695000", "163104.482500", "163105.270000", "163106.060000", "163106.847500", "163107.635000", "163108.422500", "163109.212500", "163110.000000", "163110.787500", "163111.575000", "163112.365000", "163113.152500", "163113.940000", "163114.730000", "163115.517500", "163116.305000", "163117.092500", "163117.882500", "163118.670000", "163119.457500", "163120.245000", "163121.035000", "163121.822500", "163122.610000", "163123.397500", "163124.187500", "163124.975000", "163125.762500", "163126.550000", "163127.340000", "163128.127500", "163128.915000", "163129.702500", "163130.492500", "163131.280000", "163132.067500", "163132.857500", "163133.645000", "163134.432500", "163135.220000", "163136.010000", "163136.797500", "163137.585000", "163138.372500", "163139.162500", "163139.950000", "163140.737500", "163141.525000", "163142.315000", "163143.102500", "163143.890000", "163144.677500", "163145.467500", "163146.255000", "163147.042500", "163147.830000", "163148.620000", "163149.407500", "163150.195000", "163150.985000", "163151.772500", "163152.560000", "163153.347500", "163154.137500", "163154.925000", "163155.712500", "163156.500000", "163157.290000", "163158.077500", "163158.865000", "163159.652500", "163200.442500", "163201.230000", "163202.017500", "163202.805000", "163203.595000", "163204.382500", "163205.170000", "163205.957500", "163206.747500", "163207.535000", "163208.322500", "163209.112500", "163209.900000", "163210.687500", "163211.475000", "163212.265000", "163213.052500", "163213.840000", "163214.627500", "163215.417500", "163216.205000", "163216.992500", "163217.780000", "163218.570000", "163219.357500", "163220.145000", "163220.932500", "163221.722500", "163222.510000", "163223.297500", "163224.085000", "163224.875000", "163225.662500", "163226.450000", "163227.240000", "163228.027500", "163228.815000", "163229.602500", "163230.392500", "163231.180000", "163231.967500", "163232.755000", "163233.545000", "163234.332500", "163235.120000", "163235.907500", "163236.697500", "163237.485000", "163238.272500", "163239.060000", "163239.850000", "163240.637500", "163241.425000", "163242.212500", "163243.002500", "163243.790000", "163244.577500", "163245.367500", "163246.155000", "163246.942500", "163247.730000", "163248.520000", "163249.307500", "163250.095000", "163250.882500", "163251.672500", "163252.460000", "163253.247500", "163254.035000", "163254.825000", "163255.612500", "163256.400000", "163257.187500", "163257.977500", "163258.765000", "163259.552500", "163300.340000", "163301.130000", "163301.917500", "163302.705000", "163303.495000", "163304.282500", "163305.070000", "163305.857500", "163306.647500", "163307.435000", "163308.222500", "163309.010000", "163309.800000", "163310.587500", "163311.375000", "163312.162500", "163312.952500", "163313.740000", "163314.527500", "163315.315000", "163316.105000", "163316.892500", "163317.680000", "163318.470000", "163319.257500", "163320.045000", "163320.832500", "163321.622500", "163322.410000", "163323.197500", "163323.985000", "163324.775000", "163325.562500", "163326.350000", "163327.137500", "163327.927500", "163328.715000", "163329.502500", "163330.290000", "163331.080000", "163331.867500", "163332.655000", "163333.442500", "163334.232500", "163335.020000", "163335.807500", "163336.597500", "163337.385000", "163338.172500", "163338.960000", "163339.750000", "163340.537500", "163341.325000", "163342.112500", "163342.902500", "163343.690000", "163344.477500", "163345.265000", "163346.055000", "163346.842500", "163347.630000", "163348.417500", "163349.207500", "163349.995000", "163350.782500", "163351.570000", "163352.360000", "163353.147500", "163353.935000", "163354.725000", "163355.512500", "163356.300000", "163357.087500", "163357.877500", "163358.665000", "163359.452500", "163400.240000", "163401.030000", "163401.817500", "163402.605000", "163403.392500", "163404.182500", "163404.970000", "163405.757500", "163406.545000", "163407.335000", "163408.122500", "163408.910000", "163409.697500", "163410.487500", "163411.275000", "163412.062500", "163412.852500", "163413.640000", "163414.427500", "163415.215000", "163416.005000", "163416.792500", "163417.580000", "163418.367500", "163419.157500", "163419.945000", "163420.732500", "163421.520000", "163422.310000", "163423.097500", "163423.885000", "163424.672500", "163425.462500", "163426.250000", "163427.037500", "163427.825000", "163428.615000", "163429.402500", "163430.190000", "163430.980000", "163431.767500", "163432.555000", "163433.342500", "163434.132500", "163434.920000", "163435.707500", "163436.495000", "163437.285000", "163438.072500", "163438.860000", "163439.647500", "163440.437500", "163441.225000", "163442.012500", "163442.800000", "163443.590000", "163444.377500", "163445.165000", "163445.952500", "163446.742500", "163447.530000", "163448.317500", "163449.107500", "163449.895000", "163450.682500", "163451.470000", "163452.260000", "163453.047500", "163453.835000", "163454.622500", "163455.412500", "163456.200000", "163456.987500", "163457.775000", "163458.565000", "163459.352500", "163500.140000", "163500.927500", "163501.717500", "163502.505000", "163503.292500", "163504.080000", "163504.870000", "163505.657500", "163506.445000", "163507.235000", "163508.022500", "163508.810000", "163509.597500", "163510.387500", "163511.175000", "163511.962500", "163512.750000", "163513.540000", "163514.327500", "163515.115000", "163515.902500", "163516.692500", "163517.480000", "163518.267500", "163519.055000", "163519.845000", "163520.632500", "163521.420000", "163522.207500", "163522.997500", "163523.785000", "163524.572500", "163525.362500", "163526.150000", "163526.937500", "163527.725000", "163528.515000", "163529.302500", "163530.090000", "163530.877500", "163531.667500", "163532.455000", "163533.242500", "163534.030000", "163534.820000", "163535.607500", "163536.395000", "163537.182500", "163537.972500", "163538.760000", "163539.547500", "163540.335000", "163541.125000", "163541.912500", "163542.700000", "163543.490000", "163544.277500", "163545.065000", "163545.852500"],
      "ContentTime": ["181659.859000", "181659.859000", "181659.875000", "181659.875000", "181659.875000", "181659.875000", "181659.875000", "181659.875000", "181659.875000", "181759.843000", "181759.843000", "181759.843000", "181759.843000", "181759.843000", "181759.843000", "181759.843000", "181759.859000", "181759.859000", "181759.859000", "181759.859000", "181759.859000", "181759.859000", "181759.859000", "181759.875000", "181759.875000", "181759.875000", "181759.875000", "181759.875000", "181759.875000", "181759.875000", "181759.890000", "181759.890000", "181759.890000", "181759.890000", "181759.890000", "181759.906000", "181759.906000", "181759.906000", "181819.843000", "181819.843000", "181819.843000", "181819.843000", "181819.843000", "181819.843000", "181819.859000", "181819.859000", "181819.859000", "181919.843000", "181919.843000", "181919.843000", "181919.843000", "181919.843000", "181919.843000", "181919.843000", "181919.859000", "181919.859000", "181919.859000", "181919.859000", "181919.859000", "181919.859000", "181919.875000", "181919.875000", "181919.875000", "181919.875000", "181919.875000", "181919.875000", "181919.875000", "181919.890000", "181919.890000", "181919.890000", "181919.890000", "181919.890000", "181919.890000", "181919.890000", "181919.906000", "182019.843000", "182019.843000", "182019.843000", "182019.843000", "182019.843000", "182019.843000", "182019.859000", "182019.859000", "182019.859000", "182019.859000", "182019.859000", "182019.859000", "182019.859000", "182019.875000", "182019.875000", "182019.875000", "182019.875000", "182019.875000", "182019.875000", "182019.875000", "182019.875000", "182019.890000", "182019.890000", "182019.890000", "182019.890000", "182019.890000", "182019.890000", "182019.890000", "182019.906000", "182119.843000", "182119.843000", "182119.843000", "182119.843000", "182119.843000", "182119.843000", "182119.859000", "182119.859000", "182119.859000", "182119.875000", "182119.875000", "182119.875000", "182119.875000", "182119.875000", "182119.875000", "182119.875000", "182119.890000", "182119.890000", "182119.890000", "182119.890000", "182119.890000", "182119.890000", "182119.890000", "182119.906000", "182119.906000", "182119.906000", "182119.906000", "182119.906000", "182219.843000", "182219.843000", "182219.843000", "182219.843000", "182219.843000", "182219.843000", "182219.859000", "182219.859000", "182219.859000", "182219.859000", "182219.859000", "182219.859000", "182219.859000", "182219.859000", "182219.875000", "182219.875000", "182219.875000", "182219.875000", "182219.875000", "182219.875000", "182219.875000", "182219.890000", "182219.890000", "182219.890000", "182219.890000", "182219.890000", "182219.890000", "182219.890000", "182319.843000", "182319.843000", "182319.843000", "182319.843000", "182319.843000", "182319.843000", "182319.843000", "182319.859000", "182319.859000", "182319.859000", "182319.859000", "182319.859000", "182319.859000", "182319.859000", "182319.875000", "182319.875000", "182319.875000", "182319.875000", "182319.875000", "182319.875000", "182319.890000", "182319.890000", "182319.890000", "182319.890000", "182319.890000", "182319.890000", "182319.890000", "182319.906000", "182319.906000", "182419.843000", "182419.843000", "182419.843000", "182419.843000", "182419.843000", "182419.843000", "182419.859000", "182419.859000", "182419.859000", "182419.859000", "182419.859000", "182419.859000", "182419.859000", "182419.875000", "182419.875000", "182419.875000", "182419.875000", "182419.875000", "182419.875000", "182419.875000", "182419.875000", "182419.890000", "182419.890000", "182419.890000", "182419.890000", "182419.890000", "182419.890000", "182419.890000", "182519.843000", "182519.843000", "182519.843000", "182519.843000", "182519.843000", "182519.843000", "182519.859000", "182519.859000", "182519.859000", "182519.859000", "182519.859000", "182519.859000", "182519.859000", "182519.875000", "182519.875000", "182519.875000", "182519.875000", "182519.875000", "182519.875000", "182519.875000", "182519.890000", "182519.890000", "182519.890000", "182519.890000", "182519.890000", "182519.906000", "182519.906000", "182519.906000", "182619.843000", "182619.843000", "182619.843000", "182619.843000", "182619.843000", "182619.843000", "182619.843000", "182619.859000", "182619.859000", "182619.859000", "182619.859000", "182619.859000", "182619.859000", "182619.875000", "182619.875000", "182619.875000", "182619.875000", "182619.875000", "182619.875000", "182619.875000", "182619.890000", "182619.890000", "182619.890000", "182619.890000", "182619.890000", "182619.890000", "182619.890000", "182619.906000", "182719.843000", "182719.843000", "182719.843000", "182719.843000", "182719.843000", "182719.843000", "182719.859000", "182719.859000", "182719.859000", "182719.859000", "182719.859000", "182719.859000", "182719.859000", "182719.875000", "182719.875000", "182719.875000", "182719.875000", "182719.875000", "182719.875000", "182719.875000", "182719.890000", "182719.890000", "182719.890000", "182719.890000", "182719.890000", "182719.890000", "182719.890000", "182719.906000", "182719.906000", "182819.843000", "182819.843000", "182819.843000", "182819.843000", "182819.843000", "182819.843000", "182819.859000", "182819.859000", "182819.859000", "182819.859000", "182819.859000", "182819.859000", "182819.859000", "182819.875000", "182819.875000", "182819.875000", "182819.875000", "182819.875000", "182819.875000", "182819.875000", "182819.890000", "182819.890000", "182819.890000", "182819.890000", "182819.890000", "182819.890000", "182819.890000", "182819.906000", "182919.843000", "182919.843000", "182919.843000", "182919.859000", "182919.859000", "182919.859000", "182919.859000", "182919.859000", "182919.859000", "182919.859000", "182919.875000", "182919.875000", "182919.875000", "182919.875000", "182919.875000", "182919.875000", "182919.875000", "182919.890000", "182919.890000", "182919.890000", "182919.890000", "182919.890000", "182919.890000", "182919.890000", "182919.906000", "182919.906000", "182919.906000", "182919.906000", "183019.843000", "183019.843000", "183019.843000", "183019.843000", "183019.843000", "183019.843000", "183019.859000", "183019.859000", "183019.859000", "183019.859000", "183019.859000", "183019.859000", "183019.859000", "183019.875000", "183019.875000", "183019.875000", "183019.875000", "183019.875000", "183019.875000", "183019.875000", "183019.890000", "183019.890000", "183019.890000", "183019.890000", "183019.890000", "183019.906000", "183019.906000", "183019.906000", "183019.906000", "183119.843000", "183119.843000", "183119.843000", "183119.843000", "183119.843000", "183119.843000", "183119.843000", "183119.859000", "183119.859000", "183119.859000", "183119.859000", "183119.859000", "183119.859000", "183119.875000", "183119.875000", "183119.875000", "183119.875000", "183119.875000", "183119.875000", "183119.875000", "183119.890000", "183119.890000", "183119.890000", "183119.890000", "183119.890000", "183119.890000", "183119.890000", "183119.906000", "183219.843000", "183219.843000", "183219.843000", "183219.843000", "183219.843000", "183219.843000", "183219.843000", "183219.859000", "183219.859000", "183219.859000", "183219.859000", "183219.859000", "183219.859000", "183219.859000", "183219.875000", "183219.875000", "183219.875000", "183219.875000", "183219.875000", "183219.875000", "183219.875000", "183219.890000", "183219.890000", "183219.890000", "183219.890000", "183219.906000", "183219.906000", "183219.906000", "183319.843000", "183319.843000", "183319.843000", "183319.843000", "183319.843000", "183319.843000", "183319.859000", "183319.859000", "183319.859000", "183319.859000", "183319.859000", "183319.859000", "183319.875000", "183319.875000", "183319.875000", "183319.875000", "183319.875000", "183319.875000", "183319.875000", "183319.890000", "183319.890000", "183319.890000", "183319.890000", "183319.890000", "183319.906000", "183319.906000", "183319.906000", "183319.906000", "183319.906000", "183419.843000", "183419.843000", "183419.843000", "183419.843000", "183419.843000", "183419.843000", "183419.859000", "183419.859000", "183419.859000", "183419.859000", "183419.859000", "183419.859000", "183419.859000", "183419.875000", "183419.875000", "183419.875000", "183419.875000", "183419.875000", "183419.875000", "183419.875000", "183419.890000", "183419.890000", "183419.890000", "183419.890000", "183419.890000", "183419.890000", "183419.906000", "183419.906000", "183519.843000", "183519.843000", "183519.843000", "183519.843000", "183519.843000", "183519.843000", "183519.859000", "183519.859000", "183519.859000", "183519.859000", "183519.859000", "183519.859000", "183519.859000", "183519.875000", "183519.875000", "183519.875000", "183519.875000", "183519.875000", "183519.875000", "183519.875000", "183519.890000", "183519.890000", "183519.890000", "183519.890000", "183519.890000", "183519.890000", "183519.890000", "183519.906000", "183619.843000", "183619.843000", "183619.843000", "183619.843000", "183619.843000", "183619.843000", "183619.843000", "183619.859000", "183619.859000", "183619.859000", "183619.859000", "183619.859000", "183619.859000", "183619.875000", "183619.875000", "183619.875000", "183619.875000", "183619.875000", "183619.875000", "183619.875000", "183619.890000", "183619.890000", "183619.890000", "183619.890000", "183619.890000", "183619.890000", "183619.890000", "183619.906000", "183711.093000", "183711.093000", "183711.093000", "183711.109000", "183711.109000", "183711.109000", "183711.109000", "183711.109000", "183711.109000", "183711.125000", "183711.125000", "183711.125000", "183711.125000", "183711.125000", "183711.125000", "183711.125000", "183711.140000", "183711.140000", "183711.140000", "183711.140000", "183711.140000", "183711.140000", "183711.140000", "183711.156000", "183711.156000"],
      "DataSetTrailingPadding": [
        "\u0000\u0000\u0000\u0000\u0000\u0000\u0000\u0000\u0000\u0000\u0000\u0000\u0000\u0000\u0000\u0000\u0000\u0000\u0000\u0000\u0000\u0000\u0000\u0000\u0000\u0000\u0000\u0000\u0000\u0000\u0000\u0000\u0000\u0000\u0000\u0000\u0000\u0000\u0000\u0000\u0000\u0000\u0000\u0000\u0000\u0000\u0000\u0000\u0000\u0000\u0000\u0000\u0000\u0000\u0000\u0000\u0000\u0000\u0000\u0000\u0000\u0000\u0000\u0000\u0000\u0000\u0000\u0000\u0000\u0000\u0000\u0000\u0000\u0000\u0000\u0000\u0000\u0000\u0000\u0000\u0000\u0000\u0000\u0000\u0000\u0000\u0000\u0000\u0000\u0000\u0000\u0000\u0000\u0000\u0000\u0000\u0000\u0000\u0000\u0000\u0000\u0000\u0000\u0000\u0000\u0000\u0000\u0000\u0000\u0000\u0000\u0000\u0000\u0000\u0000\u0000\u0000\u0000\u0000\u0000\u0000\u0000\u0000\u0000\u0000\u0000\u0000\u0000\u0000\u0000\u0000\u0000\u0000\u0000\u0000\u0000\u0000\u0000\u0000\u0000\u0000\u0000\u0000\u0000\u0000\u0000\u0000\u0000\u0000\u0000\u0000\u0000\u0000\u0000\u0000\u0000\u0000\u0000\u0000\u0000\u0000\u0000\u0000\u0000\u0000\u0000\u0000\u0000\u0000\u0000\u0000\u0000\u0000\u0000\u0000\u0000\u0000\u0000\u0000\u0000\u0000\u0000\u0000\u0000\u0000\u0000\u0000\u0000\u0000\u0000\u0000\u0000\u0000\u0000\u0000\u0000\u0000\u0000\u0000\u0000\u0000\u0000\u0000\u0000\u0000\u0000\u0000\u0000\u0000\u0000\u0000\u0000\u0000\u0000\u0000\u0000\u0000\u0000\u0000\u0000\u0000\u0000",
