{
  "AcquisitionMatrixPE": 104,
  "AcquisitionNumber": 1,
  "AcquisitionTime": "15:55:51.707500",
  "BandwidthPerPixelPhaseEncode": 13.935,
  "BaseResolution": 104,
  "CoilString": "C:HEA;HEP",
  "ConversionSoftware": "dcm2niix",
  "ConversionSoftwareVersion": "v1.0.20210317",
  "DerivedVendorReportedEchoSpacing": 0.000690017,
  "DeviceSerialNumber": "35450",
  "DwellTime": 2.5e-06,
  "EchoTime": 0.0348,
  "EffectiveEchoSpacing": 0.000690017,
  "FlipAngle": 55,
  "ImageComments": "Unaliased MB8/PE3",
  "ImageOrientationPatientDICOM": [1, 0, 0, 0, 0.999048, -0.0436194],
  "ImageType": [
    "ORIGINAL",
    "PRIMARY",
    "M",
    "MB",
    "ND",
    "MOSAIC"
],
  "ImagingFrequency": 123.235,
  "InPlanePhaseEncodingDirectionDICOM": "COL",
  "InstitutionAddress": "Univeristy Ave. 197,Newark,North East,US,07102-1814",
  "InstitutionName": "RUBIC",
  "InstitutionalDepartmentName": "Department",
  "MRAcquisitionType": "2D",
  "MagneticFieldStrength": 3,
  "Manufacturer": "Siemens",
  "ManufacturersModelName": "TrioTim",
  "Modality": "MR",
  "MultibandAccelerationFactor": 8,
  "PartialFourier": 0.875,
  "PatientPosition": "HFS",
  "PercentPhaseFOV": 100,
  "PercentSampling": 100,
  "PhaseEncodingDirection": "j-",
  "PhaseEncodingSteps": 91,
  "PhaseResolution": 1,
  "PixelBandwidth": 1923,
  "ProcedureStepDescription": "Cole^Michael",
  "ProtocolName": "cmrr_mbep2d_bold_2mm_MB8_Task_8x",
  "PulseSequenceDetails": "%CustomerSeq%\\cmrr_mbep2d_bold",
  "ReceiveCoilName": "32Ch_Head",
  "ReconMatrixPE": 104,
  "RepetitionTime": 0.785,
  "SAR": 0.133017,
  "ScanOptions": "PFP\\FS",
  "ScanningSequence": "EP",
  "SequenceName": "epfid2d1_104",
  "SequenceVariant": "SK\\SS",
  "SeriesDescription": "cmrr_mbep2d_bold_2mm_MB8_Task_8x",
  "SeriesNumber": 17,
  "ShimSetting": [2142, -367, -7174, 414, -121, -598, 338, -9],
  "SliceThickness": 2,
  "SliceTiming": [0, 0.4375, 0.0875, 0.525, 0.175, 0.6125, 0.2625, 0.7, 0.35, 0, 0.4375, 0.0875, 0.525, 0.175, 0.6125, 0.2625, 0.7, 0.35, 0, 0.4375, 0.0875, 0.525, 0.175, 0.6125, 0.2625, 0.7, 0.35, 0, 0.4375, 0.0875, 0.525, 0.175, 0.6125, 0.2625, 0.7, 0.35, 0, 0.4375, 0.0875, 0.525, 0.175, 0.6125, 0.2625, 0.7, 0.35, 0, 0.4375, 0.0875, 0.525, 0.175, 0.6125, 0.2625, 0.7, 0.35, 0, 0.4375, 0.0875, 0.525, 0.175, 0.6125, 0.2625, 0.7, 0.35, 0, 0.4375, 0.0875, 0.525, 0.175, 0.6125, 0.2625, 0.7, 0.35],
  "SoftwareVersions": "syngo MR B19",
  "SpacingBetweenSlices": 2,
  "StationName": "MRC35450",
  "TaskName": "cpro",
  "TotalReadoutTime": 0.0710717,
  "TxRefAmp": 378.941,
  "dcmmeta_affine": [
    [-2.0, 0.0, 0.0, 101.28813171386719],
    [0.0, 1.9980964660644531, -0.08723877370357513, -91.36768341064453],
    [0.0, 0.08723877370357513, 1.9980964660644531, -95.83680725097656],
    [0.0, 0.0, 0.0, 1.0]
],
  "dcmmeta_reorient_transform": [
    [0.0, -1.0, 0.0, 103.0],
    [1.0, 0.0, 0.0, 0.0],
    [0.0, 0.0, 1.0, 0.0],
    [0.0, 0.0, 0.0, 1.0]
],
  "dcmmeta_shape": [104, 104, 72, 581],
  "dcmmeta_slice_dim": 2,
  "dcmmeta_version": 0.6,
  "global": {
    "const": {
      "AcquisitionMatrix": [104, 0, 0, 104],
      "AngioFlag": "N",
      "BitsAllocated": 16,
      "BitsStored": 12,
      "Columns": 936,
      "EchoNumbers": 1,
      "EchoTime": 34.8,
      "EchoTrainLength": 1,
      "FlipAngle": 55.0,
      "HighBit": 11,
      "ImageOrientationPatient": [1.0, 0.0, 0.0, 0.0, 0.99904822159351, -0.0436193870985],
      "ImagePositionPatient": [-933.28813552856, -945.64436890914, -50.559880323712],
      "ImageType": [
        "ORIGINAL",
        "PRIMARY",
        "M",
        "MB",
        "ND",
        "MOSAIC"
],
      "ImagedNucleus": "1H",
      "ImagingFrequency": 123.23451,
      "InPlanePhaseEncodingDirection": "COL",
      "MRAcquisitionType": "2D",
      "MagneticFieldStrength": 3.0,
      "Manufacturer": "SIEMENS",
      "ManufacturerModelName": "TrioTim",
      "Modality": "MR",
      "NumberOfAverages": 1.0,
      "NumberOfPhaseEncodingSteps": 91,
      "PercentPhaseFieldOfView": 100.0,
      "PercentSampling": 100.0,
      "PerformedProcedureStepStartTime": "141820.562000",
      "PhotometricInterpretation": "MONOCHROME2",
      "PixelBandwidth": 1923.0,
      "PixelRepresentation": 0,
      "PixelSpacing": [2.0, 2.0],
      "ProtocolName": "cmrr_mbep2d_bold_2mm_MB8_Task_8x",
      "RepetitionTime": 785.0,
      "Rows": 936,
      "SAR": 0.13301732183379,
      "SamplesPerPixel": 1,
      "ScanOptions": [
        "PFP",
        "FS"
],
      "ScanningSequence": "EP",
      "SequenceName": "epfid2d1_104",
      "SequenceVariant": [
        "SK",
        "SS"
],
      "SeriesDescription": "cmrr_mbep2d_bold_2mm_MB8_Task_8x",
      "SeriesNumber": 17,
      "SeriesTime": "165310.937000",
      "SliceLocation": -91.760186306391,
      "SliceThickness": 2.0,
      "SmallestImagePixelValue": 0,
      "SoftwareVersions": "syngo MR B19",
      "SpacingBetweenSlices": 1.9999999692212,
      "SpecificCharacterSet": "ISO_IR 100",
      "StudyID": "1",
      "StudyTime": "141820.531000",
      "TransmitCoilName": "Body",
      "VariableFlipAngleFlag": "N",
      "WindowCenterWidthExplanation": "Algo1",
      "dBdt": 0.0},
    "slices": {}
  },
  "time": {
    "samples": {
      "AcquisitionNumber": [1, 2, 3, 4, 5, 6, 7, 8, 9, 10, 11, 12, 13, 14, 15, 16, 17, 18, 19, 20, 21, 22, 23, 24, 25, 26, 27, 28, 29, 30, 31, 32, 33, 34, 35, 36, 37, 38, 39, 40, 41, 42, 43, 44, 45, 46, 47, 48, 49, 50, 51, 52, 53, 54, 55, 56, 57, 58, 59, 60, 61, 62, 63, 64, 65, 66, 67, 68, 69, 70, 71, 72, 73, 74, 75, 76, 77, 78, 79, 80, 81, 82, 83, 84, 85, 86, 87, 88, 89, 90, 91, 92, 93, 94, 95, 96, 97, 98, 99, 100, 101, 102, 103, 104, 105, 106, 107, 108, 109, 110, 111, 112, 113, 114, 115, 116, 117, 118, 119, 120, 121, 122, 123, 124, 125, 126, 127, 128, 129, 130, 131, 132, 133, 134, 135, 136, 137, 138, 139, 140, 141, 142, 143, 144, 145, 146, 147, 148, 149, 150, 151, 152, 153, 154, 155, 156, 157, 158, 159, 160, 161, 162, 163, 164, 165, 166, 167, 168, 169, 170, 171, 172, 173, 174, 175, 176, 177, 178, 179, 180, 181, 182, 183, 184, 185, 186, 187, 188, 189, 190, 191, 192, 193, 194, 195, 196, 197, 198, 199, 200, 201, 202, 203, 204, 205, 206, 207, 208, 209, 210, 211, 212, 213, 214, 215, 216, 217, 218, 219, 220, 221, 222, 223, 224, 225, 226, 227, 228, 229, 230, 231, 232, 233, 234, 235, 236, 237, 238, 239, 240, 241, 242, 243, 244, 245, 246, 247, 248, 249, 250, 251, 252, 253, 254, 255, 256, 257, 258, 259, 260, 261, 262, 263, 264, 265, 266, 267, 268, 269, 270, 271, 272, 273, 274, 275, 276, 277, 278, 279, 280, 281, 282, 283, 284, 285, 286, 287, 288, 289, 290, 291, 292, 293, 294, 295, 296, 297, 298, 299, 300, 301, 302, 303, 304, 305, 306, 307, 308, 309, 310, 311, 312, 313, 314, 315, 316, 317, 318, 319, 320, 321, 322, 323, 324, 325, 326, 327, 328, 329, 330, 331, 332, 333, 334, 335, 336, 337, 338, 339, 340, 341, 342, 343, 344, 345, 346, 347, 348, 349, 350, 351, 352, 353, 354, 355, 356, 357, 358, 359, 360, 361, 362, 363, 364, 365, 366, 367, 368, 369, 370, 371, 372, 373, 374, 375, 376, 377, 378, 379, 380, 381, 382, 383, 384, 385, 386, 387, 388, 389, 390, 391, 392, 393, 394, 395, 396, 397, 398, 399, 400, 401, 402, 403, 404, 405, 406, 407, 408, 409, 410, 411, 412, 413, 414, 415, 416, 417, 418, 419, 420, 421, 422, 423, 424, 425, 426, 427, 428, 429, 430, 431, 432, 433, 434, 435, 436, 437, 438, 439, 440, 441, 442, 443, 444, 445, 446, 447, 448, 449, 450, 451, 452, 453, 454, 455, 456, 457, 458, 459, 460, 461, 462, 463, 464, 465, 466, 467, 468, 469, 470, 471, 472, 473, 474, 475, 476, 477, 478, 479, 480, 481, 482, 483, 484, 485, 486, 487, 488, 489, 490, 491, 492, 493, 494, 495, 496, 497, 498, 499, 500, 501, 502, 503, 504, 505, 506, 507, 508, 509, 510, 511, 512, 513, 514, 515, 516, 517, 518, 519, 520, 521, 522, 523, 524, 525, 526, 527, 528, 529, 530, 531, 532, 533, 534, 535, 536, 537, 538, 539, 540, 541, 542, 543, 544, 545, 546, 547, 548, 549, 550, 551, 552, 553, 554, 555, 556, 557, 558, 559, 560, 561, 562, 563, 564, 565, 566, 567, 568, 569, 570, 571, 572, 573, 574, 575, 576, 577, 578, 579, 580, 581],
      "AcquisitionTime": ["155551.707500", "155552.495000", "155553.282500", "155554.072500", "155554.860000", "155555.647500", "155556.435000", "155557.225000", "155558.012500", "155558.800000", "155559.587500", "155600.377500", "155601.165000", "155601.952500", "155602.740000", "155603.530000", "155604.317500", "155605.105000", "155605.892500", "155606.682500", "155607.470000", "155608.257500", "155609.047500", "155609.835000", "155610.622500", "155611.410000", "155612.200000", "155612.987500", "155613.775000", "155614.562500", "155615.352500", "155616.140000", "155616.927500", "155617.715000", "155618.505000", "155619.292500", "155620.080000", "155620.867500", "155621.657500", "155622.445000", "155623.232500", "155624.020000", "155624.810000", "155625.597500", "155626.385000", "155627.175000", "155627.962500", "155628.750000", "155629.537500", "155630.327500", "155631.115000", "155631.902500", "155632.690000", "155633.480000", "155634.267500", "155635.055000", "155635.842500", "155636.632500", "155637.420000", "155638.207500", "155638.995000", "155639.785000", "155640.572500", "155641.360000", "155642.147500", "155642.937500", "155643.725000", "155644.512500", "155645.302500", "155646.090000", "155646.877500", "155647.665000", "155648.455000", "155649.242500", "155650.030000", "155650.817500", "155651.607500", "155652.395000", "155653.182500", "155653.970000", "155654.760000", "155655.547500", "155656.335000", "155657.122500", "155657.912500", "155658.700000", "155659.487500", "155700.275000", "155701.065000", "155701.852500", "155702.640000", "155703.430000", "155704.217500", "155705.005000", "155705.792500", "155706.582500", "155707.370000", "155708.157500", "155708.945000", "155709.735000", "155710.522500", "155711.310000", "155712.097500", "155712.887500", "155713.675000", "155714.462500", "155715.250000", "155716.040000", "155716.827500", "155717.615000", "155718.402500", "155719.192500", "155719.980000", "155720.767500", "155721.557500", "155722.345000", "155723.132500", "155723.920000", "155724.710000", "155725.497500", "155726.285000", "155727.072500", "155727.862500", "155728.650000", "155729.437500", "155730.225000", "155731.015000", "155731.802500", "155732.590000", "155733.377500", "155734.167500", "155734.955000", "155735.742500", "155736.530000", "155737.320000", "155738.107500", "155738.895000", "155739.685000", "155740.472500", "155741.260000", "155742.047500", "155742.837500", "155743.625000", "155744.412500", "155745.200000", "155745.990000", "155746.777500", "155747.565000", "155748.352500", "155749.142500", "155749.930000", "155750.717500", "155751.505000", "155752.295000", "155753.082500", "155753.870000", "155754.657500", "155755.447500", "155756.235000", "155757.022500", "155757.812500", "155758.600000", "155759.387500", "155800.175000", "155800.965000", "155801.752500", "155802.540000", "155803.327500", "155804.117500", "155804.905000", "155805.692500", "155806.480000", "155807.270000", "155808.057500", "155808.845000", "155809.632500", "155810.422500", "155811.210000", "155811.997500", "155812.785000", "155813.575000", "155814.362500", "155815.150000", "155815.940000", "155816.727500", "155817.515000", "155818.302500", "155819.092500", "155819.880000", "155820.667500", "155821.455000", "155822.245000", "155823.032500", "155823.820000", "155824.607500", "155825.397500", "155826.185000", "155826.972500", "155827.760000", "155828.550000", "155829.337500", "155830.125000", "155830.912500", "155831.702500", "155832.490000", "155833.277500", "155834.067500", "155834.855000", "155835.642500", "155836.430000", "155837.220000", "155838.007500", "155838.795000", "155839.582500", "155840.372500", "155841.160000", "155841.947500", "155842.735000", "155843.525000", "155844.312500", "155845.100000", "155845.887500", "155846.677500", "155847.465000", "155848.252500", "155849.040000", "155849.830000", "155850.617500", "155851.405000", "155852.195000", "155852.982500", "155853.770000", "155854.557500", "155855.347500", "155856.135000", "155856.922500", "155857.710000", "155858.500000", "155859.287500", "155900.075000", "155900.862500", "155901.652500", "155902.440000", "155903.227500", "155904.015000", "155904.805000", "155905.592500", "155906.380000", "155907.170000", "155907.957500", "155908.745000", "155909.532500", "155910.322500", "155911.110000", "155911.897500", "155912.685000", "155913.475000", "155914.262500", "155915.050000", "155915.837500", "155916.627500", "155917.415000", "155918.202500", "155918.990000", "155919.780000", "155920.567500", "155921.355000", "155922.142500", "155922.932500", "155923.720000", "155924.507500", "155925.297500", "155926.085000", "155926.872500", "155927.660000", "155928.450000", "155929.237500", "155930.025000", "155930.812500", "155931.602500", "155932.390000", "155933.177500", "155933.965000", "155934.755000", "155935.542500", "155936.330000", "155937.117500", "155937.907500", "155938.695000", "155939.482500", "155940.270000", "155941.060000", "155941.847500", "155942.635000", "155943.425000", "155944.212500", "155945.000000", "155945.787500", "155946.577500", "155947.365000", "155948.152500", "155948.940000", "155949.730000", "155950.517500", "155951.305000", "155952.092500", "155952.882500", "155953.670000", "155954.457500", "155955.245000", "155956.035000", "155956.822500", "155957.610000", "155958.397500", "155959.187500", "155959.975000", "160000.762500", "160001.552500", "160002.340000", "160003.127500", "160003.915000", "160004.705000", "160005.492500", "160006.280000", "160007.067500", "160007.857500", "160008.645000", "160009.432500", "160010.220000", "160011.010000", "160011.797500", "160012.585000", "160013.372500", "160014.162500", "160014.950000", "160015.737500", "160016.525000", "160017.315000", "160018.102500", "160018.890000", "160019.680000", "160020.467500", "160021.255000", "160022.042500", "160022.832500", "160023.620000", "160024.407500", "160025.195000", "160025.985000", "160026.772500", "160027.560000", "160028.347500", "160029.137500", "160029.925000", "160030.712500", "160031.500000", "160032.290000", "160033.077500", "160033.865000", "160034.652500", "160035.442500", "160036.230000", "160037.017500", "160037.807500", "160038.595000", "160039.382500", "160040.170000", "160040.960000", "160041.747500", "160042.535000", "160043.322500", "160044.112500", "160044.900000", "160045.687500", "160046.475000", "160047.265000", "160048.052500", "160048.840000", "160049.627500", "160050.417500", "160051.205000", "160051.992500", "160052.780000", "160053.570000", "160054.357500", "160055.145000", "160055.935000", "160056.722500", "160057.510000", "160058.297500", "160059.087500", "160059.875000", "160100.662500", "160101.450000", "160102.240000", "160103.027500", "160103.815000", "160104.602500", "160105.392500", "160106.180000", "160106.967500", "160107.755000", "160108.545000", "160109.332500", "160110.120000", "160110.907500", "160111.697500", "160112.485000", "160113.272500", "160114.062500", "160114.850000", "160115.637500", "160116.425000", "160117.215000", "160118.002500", "160118.790000", "160119.577500", "160120.367500", "160121.155000", "160121.942500", "160122.730000", "160123.520000", "160124.307500", "160125.095000", "160125.882500", "160126.672500", "160127.460000", "160128.247500", "160129.035000", "160129.825000", "160130.612500", "160131.400000", "160132.190000", "160132.977500", "160133.765000", "160134.552500", "160135.342500", "160136.130000", "160136.917500", "160137.705000", "160138.495000", "160139.282500", "160140.070000", "160140.857500", "160141.647500", "160142.435000", "160143.222500", "160144.010000", "160144.800000", "160145.587500", "160146.375000", "160147.162500", "160147.952500", "160148.740000", "160149.527500", "160150.317500", "160151.105000", "160151.892500", "160152.680000", "160153.470000", "160154.257500", "160155.045000", "160155.832500", "160156.622500", "160157.410000", "160158.197500", "160158.985000", "160159.775000", "160200.562500", "160201.350000", "160202.137500", "160202.927500", "160203.715000", "160204.502500", "160205.290000", "160206.080000", "160206.867500", "160207.655000", "160208.445000", "160209.232500", "160210.020000", "160210.807500", "160211.597500", "160212.385000", "160213.172500", "160213.960000", "160214.750000", "160215.537500", "160216.325000", "160217.112500", "160217.902500", "160218.690000", "160219.477500", "160220.265000", "160221.055000", "160221.842500", "160222.630000", "160223.420000", "160224.207500", "160224.995000", "160225.782500", "160226.572500", "160227.360000", "160228.147500", "160228.935000", "160229.725000", "160230.512500", "160231.300000", "160232.087500", "160232.877500", "160233.665000", "160234.452500", "160235.240000", "160236.030000", "160236.817500", "160237.605000", "160238.392500", "160239.182500", "160239.970000", "160240.757500", "160241.547500", "160242.335000", "160243.122500", "160243.910000", "160244.700000", "160245.487500", "160246.275000", "160247.062500", "160247.852500", "160248.640000", "160249.427500", "160250.215000", "160251.005000", "160251.792500", "160252.580000", "160253.367500", "160254.157500", "160254.945000", "160255.732500", "160256.520000", "160257.310000", "160258.097500", "160258.885000", "160259.675000", "160300.462500", "160301.250000", "160302.037500", "160302.827500", "160303.615000", "160304.402500", "160305.190000", "160305.980000", "160306.767500", "160307.555000", "160308.342500", "160309.132500", "160309.920000", "160310.707500", "160311.495000", "160312.285000", "160313.072500", "160313.860000", "160314.647500", "160315.437500", "160316.225000", "160317.012500", "160317.802500", "160318.590000", "160319.377500", "160320.165000", "160320.955000", "160321.742500", "160322.530000", "160323.317500", "160324.107500", "160324.895000", "160325.682500", "160326.470000", "160327.260000", "160328.047500", "160328.835000"],
      "ContentTime": ["165310.937000", "165310.937000", "165310.937000", "165310.937000", "165310.953000", "165410.906000", "165410.906000", "165410.906000", "165410.906000", "165410.906000", "165410.906000", "165410.906000", "165410.921000", "165410.921000", "165410.921000", "165410.921000", "165410.921000", "165410.921000", "165410.921000", "165410.937000", "165410.937000", "165410.937000", "165410.937000", "165410.937000", "165410.937000", "165410.937000", "165410.953000", "165410.953000", "165410.953000", "165410.953000", "165410.953000", "165410.953000", "165410.953000", "165510.906000", "165510.906000", "165510.906000", "165510.906000", "165510.906000", "165510.906000", "165510.921000", "165510.921000", "165510.921000", "165510.921000", "165510.921000", "165510.921000", "165510.921000", "165510.937000", "165510.937000", "165510.937000", "165510.937000", "165510.937000", "165510.937000", "165510.937000", "165510.953000", "165510.953000", "165510.953000", "165510.953000", "165510.953000", "165510.953000", "165510.953000", "165510.968000", "165530.906000", "165530.906000", "165530.906000", "165530.906000", "165530.906000", "165530.906000", "165530.906000", "165530.921000", "165530.921000", "165630.906000", "165630.906000", "165630.906000", "165630.906000", "165630.906000", "165630.906000", "165630.906000", "165630.921000", "165630.921000", "165630.921000", "165630.921000", "165630.921000", "165630.921000", "165630.921000", "165630.937000", "165630.937000", "165630.937000", "165630.937000", "165630.937000", "165630.937000", "165630.937000", "165630.953000", "165630.953000", "165630.953000", "165630.953000", "165630.953000", "165630.953000", "165630.953000", "165730.906000", "165730.906000", "165730.906000", "165730.906000", "165730.906000", "165730.906000", "165730.921000", "165730.921000", "165730.921000", "165730.921000", "165730.921000", "165730.921000", "165730.937000", "165730.937000", "165730.937000", "165730.937000", "165730.937000", "165730.937000", "165730.953000", "165730.953000", "165730.953000", "165730.953000", "165730.953000", "165730.953000", "165730.953000", "165730.968000", "165730.968000", "165730.968000", "165830.906000", "165830.906000", "165830.906000", "165830.906000", "165830.906000", "165830.906000", "165830.906000", "165830.921000", "165830.921000", "165830.921000", "165830.921000", "165830.921000", "165830.921000", "165830.921000", "165830.937000", "165830.937000", "165830.937000", "165830.937000", "165830.937000", "165830.937000", "165830.937000", "165830.953000", "165830.953000", "165830.953000", "165830.953000", "165830.953000", "165830.968000", "165830.968000", "165930.906000", "165930.906000", "165930.906000", "165930.906000", "165930.906000", "165930.906000", "165930.906000", "165930.921000", "165930.921000", "165930.921000", "165930.921000", "165930.921000", "165930.921000", "165930.937000", "165930.937000", "165930.937000", "165930.937000", "165930.937000", "165930.937000", "165930.953000", "165930.953000", "165930.953000", "165930.953000", "165930.953000", "165930.953000", "165930.968000", "165930.968000", "165930.968000", "170030.906000", "170030.906000", "170030.906000", "170030.906000", "170030.906000", "170030.921000", "170030.921000", "170030.921000", "170030.921000", "170030.921000", "170030.921000", "170030.921000", "170030.937000", "170030.937000", "170030.937000", "170030.937000", "170030.937000", "170030.937000", "170030.937000", "170030.953000", "170030.953000", "170030.953000", "170030.953000", "170030.953000", "170030.953000", "170030.953000", "170030.968000", "170030.968000", "170130.906000", "170130.906000", "170130.906000", "170130.906000", "170130.906000", "170130.906000", "170130.921000", "170130.921000", "170130.921000", "170130.921000", "170130.921000", "170130.921000", "170130.937000", "170130.937000", "170130.937000", "170130.937000", "170130.937000", "170130.937000", "170130.937000", "170130.953000", "170130.953000", "170130.953000", "170130.953000", "170130.953000", "170130.953000", "170130.953000", "170130.968000", "170130.968000", "170230.906000", "170230.906000", "170230.906000", "170230.906000", "170230.906000", "170230.906000", "170230.906000", "170230.921000", "170230.921000", "170230.921000", "170230.921000", "170230.921000", "170230.921000", "170230.921000", "170230.937000", "170230.937000", "170230.937000", "170230.937000", "170230.937000", "170230.937000", "170230.953000", "170230.953000", "170230.953000", "170230.953000", "170230.953000", "170230.953000", "170230.953000", "170230.968000", "170330.906000", "170330.906000", "170330.906000", "170330.906000", "170330.906000", "170330.906000", "170330.906000", "170330.921000", "170330.921000", "170330.921000", "170330.921000", "170330.921000", "170330.921000", "170330.937000", "170330.937000", "170330.937000", "170330.937000", "170330.937000", "170330.937000", "170330.953000", "170330.953000", "170330.953000", "170330.953000", "170330.953000", "170330.953000", "170330.953000", "170330.968000", "170330.968000", "170430.906000", "170430.906000", "170430.906000", "170430.906000", "170430.906000", "170430.906000", "170430.921000", "170430.921000", "170430.921000", "170430.921000", "170430.921000", "170430.921000", "170430.921000", "170430.937000", "170430.937000", "170430.937000", "170430.937000", "170430.937000", "170430.937000", "170430.937000", "170430.953000", "170430.953000", "170430.953000", "170430.953000", "170430.953000", "170430.953000", "170430.953000", "170430.968000", "170530.906000", "170530.906000", "170530.906000", "170530.906000", "170530.906000", "170530.906000", "170530.906000", "170530.921000", "170530.921000", "170530.921000", "170530.921000", "170530.937000", "170530.937000", "170530.937000", "170530.937000", "170530.937000", "170530.937000", "170530.953000", "170530.953000", "170530.953000", "170530.953000", "170530.953000", "170530.953000", "170530.953000", "170530.968000", "170530.968000", "170530.968000", "170530.968000", "170530.968000", "170630.906000", "170630.906000", "170630.906000", "170630.906000", "170630.906000", "170630.906000", "170630.906000", "170630.921000", "170630.921000", "170630.921000", "170630.921000", "170630.921000", "170630.921000", "170630.921000", "170630.937000", "170630.937000", "170630.937000", "170630.937000", "170630.937000", "170630.937000", "170630.937000", "170630.953000", "170630.953000", "170630.953000", "170630.953000", "170630.953000", "170630.953000", "170630.953000", "170730.906000", "170730.906000", "170730.906000", "170730.906000", "170730.906000", "170730.906000", "170730.906000", "170730.921000", "170730.921000", "170730.921000", "170730.921000", "170730.921000", "170730.921000", "170730.921000", "170730.937000", "170730.937000", "170730.937000", "170730.937000", "170730.937000", "170730.937000", "170730.937000", "170730.953000", "170730.953000", "170730.953000", "170730.953000", "170730.953000", "170730.953000", "170730.968000", "170830.906000", "170830.906000", "170830.906000", "170830.906000", "170830.906000", "170830.906000", "170830.906000", "170830.921000", "170830.921000", "170830.921000", "170830.921000", "170830.921000", "170830.921000", "170830.921000", "170830.937000", "170830.937000", "170830.937000", "170830.937000", "170830.937000", "170830.937000", "170830.937000", "170830.953000", "170830.953000", "170830.953000", "170830.953000", "170830.953000", "170830.953000", "170830.953000", "170930.906000", "170930.906000", "170930.906000", "170930.906000", "170930.906000", "170930.906000", "170930.906000", "170930.921000", "170930.921000", "170930.921000", "170930.921000", "170930.921000", "170930.921000", "170930.921000", "170930.937000", "170930.937000", "170930.937000", "170930.937000", "170930.937000", "170930.937000", "170930.953000", "170930.953000", "170930.953000", "170930.953000", "170930.953000", "170930.953000", "170930.953000", "170930.968000", "171030.906000", "171030.906000", "171030.906000", "171030.906000", "171030.906000", "171030.906000", "171030.921000", "171030.921000", "171030.921000", "171030.921000", "171030.921000", "171030.921000", "171030.921000", "171030.937000", "171030.937000", "171030.937000", "171030.937000", "171030.937000", "171030.937000", "171030.937000", "171030.953000", "171030.953000", "171030.953000", "171030.953000", "171030.953000", "171030.953000", "171030.953000", "171030.968000", "171130.906000", "171130.906000", "171130.906000", "171130.906000", "171130.906000", "171130.906000", "171130.906000", "171130.921000", "171130.921000", "171130.921000", "171130.921000", "171130.921000", "171130.921000", "171130.921000", "171130.937000", "171130.937000", "171130.937000", "171130.937000", "171130.937000", "171130.937000", "171130.953000", "171130.953000", "171130.953000", "171130.953000", "171130.953000", "171130.953000", "171130.968000", "171130.968000", "171230.906000", "171230.906000", "171230.906000", "171230.906000", "171230.906000", "171230.906000", "171230.906000", "171230.921000", "171230.921000", "171230.921000", "171230.921000", "171230.921000", "171230.921000", "171230.937000", "171230.937000", "171230.937000", "171230.937000", "171230.937000", "171230.937000", "171230.937000", "171230.953000", "171230.953000", "171230.953000", "171230.953000", "171230.953000", "171230.953000", "171230.953000", "171230.968000", "171330.906000", "171330.906000", "171330.906000", "171330.906000", "171330.906000", "171330.906000", "171330.906000", "171330.921000", "171330.921000", "171330.921000", "171330.921000", "171330.921000", "171330.921000", "171330.921000", "171330.937000", "171330.937000", "171330.937000", "171330.937000", "171330.937000", "171330.937000", "171330.953000", "171330.953000", "171330.953000", "171330.953000", "171330.953000", "171330.953000", "171330.953000", "171330.968000", "171340.984000", "171341.000000", "171341.000000", "171341.000000", "171341.000000", "171341.000000"],
      "DataSetTrailingPadding": [
        "\u0000\u0000\u0000\u0000\u0000\u0000\u0000\u0000\u0000\u0000\u0000\u0000\u0000\u0000\u0000\u0000\u0000\u0000\u0000\u0000\u0000\u0000\u0000\u0000\u0000\u0000\u0000\u0000\u0000\u0000\u0000\u0000\u0000\u0000\u0000\u0000\u0000\u0000\u0000\u0000\u0000\u0000\u0000\u0000\u0000\u0000\u0000\u0000\u0000\u0000\u0000\u0000\u0000\u0000\u0000\u0000\u0000\u0000\u0000\u0000\u0000\u0000\u0000\u0000\u0000\u0000\u0000\u0000\u0000\u0000\u0000\u0000\u0000\u0000\u0000\u0000\u0000\u0000\u0000\u0000\u0000\u0000\u0000\u0000\u0000\u0000\u0000\u0000\u0000\u0000\u0000\u0000\u0000\u0000\u0000\u0000\u0000\u0000\u0000\u0000\u0000\u0000\u0000\u0000\u0000\u0000\u0000\u0000\u0000\u0000\u0000\u0000\u0000\u0000\u0000\u0000\u0000\u0000\u0000\u0000\u0000\u0000\u0000\u0000\u0000\u0000\u0000\u0000\u0000\u0000\u0000\u0000\u0000\u0000\u0000\u0000\u0000\u0000\u0000\u0000\u0000\u0000\u0000\u0000\u0000\u0000\u0000\u0000\u0000\u0000\u0000\u0000\u0000\u0000\u0000\u0000\u0000\u0000\u0000\u0000\u0000\u0000\u0000\u0000\u0000\u0000\u0000\u0000\u0000\u0000\u0000\u0000\u0000\u0000\u0000\u0000\u0000\u0000\u0000\u0000\u0000\u0000\u0000\u0000\u0000\u0000\u0000\u0000\u0000\u0000\u0000\u0000\u0000\u0000\u0000\u0000\u0000\u0000\u0000\u0000\u0000\u0000\u0000\u0000\u0000\u0000\u0000\u0000\u0000\u0000\u0000\u0000\u0000\u0000\u0000\u0000\u0000\u0000\u0000\u0000\u0000\u0000",
