{
  "AcquisitionMatrixPE": 104,
  "AcquisitionNumber": 1,
  "AcquisitionTime": "16:11:55.735000",
  "BandwidthPerPixelPhaseEncode": 13.935,
  "BaseResolution": 104,
  "CoilString": "C:HEA;HEP",
  "ConversionSoftware": "dcm2niix",
  "ConversionSoftwareVersion": "v1.0.20210317",
  "DerivedVendorReportedEchoSpacing": 0.000690017,
  "DeviceSerialNumber": "35450",
  "DwellTime": 2.5e-06,
  "EchoTime": 0.0348,
  "EffectiveEchoSpacing": 0.000690017,
  "FlipAngle": 55,
  "ImageComments": "Unaliased MB8/PE3",
  "ImageOrientationPatientDICOM": [1, 0, 0, 0, 0.999048, -0.0436194],
  "ImageType": [
    "ORIGINAL",
    "PRIMARY",
    "M",
    "MB",
    "ND",
    "MOSAIC"
],
  "ImagingFrequency": 123.235,
  "InPlanePhaseEncodingDirectionDICOM": "COL",
  "InstitutionAddress": "Univeristy Ave. 197,Newark,North East,US,07102-1814",
  "InstitutionName": "RUBIC",
  "InstitutionalDepartmentName": "Department",
  "MRAcquisitionType": "2D",
  "MagneticFieldStrength": 3,
  "Manufacturer": "Siemens",
  "ManufacturersModelName": "TrioTim",
  "Modality": "MR",
  "MultibandAccelerationFactor": 8,
  "PartialFourier": 0.875,
  "PatientPosition": "HFS",
  "PercentPhaseFOV": 100,
  "PercentSampling": 100,
  "PhaseEncodingDirection": "j-",
  "PhaseEncodingSteps": 91,
  "PhaseResolution": 1,
  "PixelBandwidth": 1923,
  "ProcedureStepDescription": "Cole^Michael",
  "ProtocolName": "cmrr_mbep2d_bold_2mm_MB8_Task_8x",
  "PulseSequenceDetails": "%CustomerSeq%\\cmrr_mbep2d_bold",
  "ReceiveCoilName": "32Ch_Head",
  "ReconMatrixPE": 104,
  "RepetitionTime": 0.785,
  "SAR": 0.133017,
  "ScanOptions": "PFP\\FS",
  "ScanningSequence": "EP",
  "SequenceName": "epfid2d1_104",
  "SequenceVariant": "SK\\SS",
  "SeriesDescription": "cmrr_mbep2d_bold_2mm_MB8_Task_8x",
  "SeriesNumber": 21,
  "ShimSetting": [2142, -367, -7174, 414, -121, -598, 338, -9],
  "SliceThickness": 2,
  "SliceTiming": [0, 0.4375, 0.0875, 0.525, 0.175, 0.6125, 0.2625, 0.7, 0.35, 0, 0.4375, 0.0875, 0.525, 0.175, 0.6125, 0.2625, 0.7, 0.35, 0, 0.4375, 0.0875, 0.525, 0.175, 0.6125, 0.2625, 0.7, 0.35, 0, 0.4375, 0.0875, 0.525, 0.175, 0.6125, 0.2625, 0.7, 0.35, 0, 0.4375, 0.0875, 0.525, 0.175, 0.6125, 0.2625, 0.7, 0.35, 0, 0.4375, 0.0875, 0.525, 0.175, 0.6125, 0.2625, 0.7, 0.35, 0, 0.4375, 0.0875, 0.525, 0.175, 0.6125, 0.2625, 0.7, 0.35, 0, 0.4375, 0.0875, 0.525, 0.175, 0.6125, 0.2625, 0.7, 0.35],
  "SoftwareVersions": "syngo MR B19",
  "SpacingBetweenSlices": 2,
  "StationName": "MRC35450",
  "TaskName": "cpro",
  "TotalReadoutTime": 0.0710717,
  "TxRefAmp": 378.941,
  "dcmmeta_affine": [
    [-2.0, 0.0, 0.0, 101.28813171386719],
    [0.0, 1.9980964660644531, -0.08723877370357513, -91.36768341064453],
    [0.0, 0.08723877370357513, 1.9980964660644531, -95.83680725097656],
    [0.0, 0.0, 0.0, 1.0]
],
  "dcmmeta_reorient_transform": [
    [0.0, -1.0, 0.0, 103.0],
    [1.0, 0.0, 0.0, 0.0],
    [0.0, 0.0, 1.0, 0.0],
    [0.0, 0.0, 0.0, 1.0]
],
  "dcmmeta_shape": [104, 104, 72, 581],
  "dcmmeta_slice_dim": 2,
  "dcmmeta_version": 0.6,
  "global": {
    "const": {
      "AcquisitionMatrix": [104, 0, 0, 104],
      "AngioFlag": "N",
      "BitsAllocated": 16,
      "BitsStored": 12,
      "Columns": 936,
      "EchoNumbers": 1,
      "EchoTime": 34.8,
      "EchoTrainLength": 1,
      "FlipAngle": 55.0,
      "HighBit": 11,
      "ImageOrientationPatient": [1.0, 0.0, 0.0, 0.0, 0.99904822159351, -0.0436193870985],
      "ImagePositionPatient": [-933.28813552856, -945.64436890914, -50.559880323712],
      "ImageType": [
        "ORIGINAL",
        "PRIMARY",
        "M",
        "MB",
        "ND",
        "MOSAIC"
],
      "ImagedNucleus": "1H",
      "ImagingFrequency": 123.23451,
      "InPlanePhaseEncodingDirection": "COL",
      "MRAcquisitionType": "2D",
      "MagneticFieldStrength": 3.0,
      "Manufacturer": "SIEMENS",
      "ManufacturerModelName": "TrioTim",
      "Modality": "MR",
      "NumberOfAverages": 1.0,
      "NumberOfPhaseEncodingSteps": 91,
      "PercentPhaseFieldOfView": 100.0,
      "PercentSampling": 100.0,
      "PerformedProcedureStepStartTime": "141820.562000",
      "PhotometricInterpretation": "MONOCHROME2",
      "PixelBandwidth": 1923.0,
      "PixelRepresentation": 0,
      "PixelSpacing": [2.0, 2.0],
      "ProtocolName": "cmrr_mbep2d_bold_2mm_MB8_Task_8x",
      "RepetitionTime": 785.0,
      "Rows": 936,
      "SAR": 0.13301732183379,
      "SamplesPerPixel": 1,
      "ScanOptions": [
        "PFP",
        "FS"
],
      "ScanningSequence": "EP",
      "SequenceName": "epfid2d1_104",
      "SequenceVariant": [
        "SK",
        "SS"
],
      "SeriesDescription": "cmrr_mbep2d_bold_2mm_MB8_Task_8x",
      "SeriesNumber": 21,
      "SeriesTime": "173512.718000",
      "SliceLocation": -91.760186306391,
      "SliceThickness": 2.0,
      "SmallestImagePixelValue": 0,
      "SoftwareVersions": "syngo MR B19",
      "SpacingBetweenSlices": 1.9999999692212,
      "SpecificCharacterSet": "ISO_IR 100",
      "StudyID": "1",
      "StudyTime": "141820.531000",
      "TransmitCoilName": "Body",
      "VariableFlipAngleFlag": "N",
      "WindowCenterWidthExplanation": "Algo1",
      "dBdt": 0.0},
    "slices": {}
  },
  "time": {
    "samples": {
      "AcquisitionNumber": [1, 2, 3, 4, 5, 6, 7, 8, 9, 10, 11, 12, 13, 14, 15, 16, 17, 18, 19, 20, 21, 22, 23, 24, 25, 26, 27, 28, 29, 30, 31, 32, 33, 34, 35, 36, 37, 38, 39, 40, 41, 42, 43, 44, 45, 46, 47, 48, 49, 50, 51, 52, 53, 54, 55, 56, 57, 58, 59, 60, 61, 62, 63, 64, 65, 66, 67, 68, 69, 70, 71, 72, 73, 74, 75, 76, 77, 78, 79, 80, 81, 82, 83, 84, 85, 86, 87, 88, 89, 90, 91, 92, 93, 94, 95, 96, 97, 98, 99, 100, 101, 102, 103, 104, 105, 106, 107, 108, 109, 110, 111, 112, 113, 114, 115, 116, 117, 118, 119, 120, 121, 122, 123, 124, 125, 126, 127, 128, 129, 130, 131, 132, 133, 134, 135, 136, 137, 138, 139, 140, 141, 142, 143, 144, 145, 146, 147, 148, 149, 150, 151, 152, 153, 154, 155, 156, 157, 158, 159, 160, 161, 162, 163, 164, 165, 166, 167, 168, 169, 170, 171, 172, 173, 174, 175, 176, 177, 178, 179, 180, 181, 182, 183, 184, 185, 186, 187, 188, 189, 190, 191, 192, 193, 194, 195, 196, 197, 198, 199, 200, 201, 202, 203, 204, 205, 206, 207, 208, 209, 210, 211, 212, 213, 214, 215, 216, 217, 218, 219, 220, 221, 222, 223, 224, 225, 226, 227, 228, 229, 230, 231, 232, 233, 234, 235, 236, 237, 238, 239, 240, 241, 242, 243, 244, 245, 246, 247, 248, 249, 250, 251, 252, 253, 254, 255, 256, 257, 258, 259, 260, 261, 262, 263, 264, 265, 266, 267, 268, 269, 270, 271, 272, 273, 274, 275, 276, 277, 278, 279, 280, 281, 282, 283, 284, 285, 286, 287, 288, 289, 290, 291, 292, 293, 294, 295, 296, 297, 298, 299, 300, 301, 302, 303, 304, 305, 306, 307, 308, 309, 310, 311, 312, 313, 314, 315, 316, 317, 318, 319, 320, 321, 322, 323, 324, 325, 326, 327, 328, 329, 330, 331, 332, 333, 334, 335, 336, 337, 338, 339, 340, 341, 342, 343, 344, 345, 346, 347, 348, 349, 350, 351, 352, 353, 354, 355, 356, 357, 358, 359, 360, 361, 362, 363, 364, 365, 366, 367, 368, 369, 370, 371, 372, 373, 374, 375, 376, 377, 378, 379, 380, 381, 382, 383, 384, 385, 386, 387, 388, 389, 390, 391, 392, 393, 394, 395, 396, 397, 398, 399, 400, 401, 402, 403, 404, 405, 406, 407, 408, 409, 410, 411, 412, 413, 414, 415, 416, 417, 418, 419, 420, 421, 422, 423, 424, 425, 426, 427, 428, 429, 430, 431, 432, 433, 434, 435, 436, 437, 438, 439, 440, 441, 442, 443, 444, 445, 446, 447, 448, 449, 450, 451, 452, 453, 454, 455, 456, 457, 458, 459, 460, 461, 462, 463, 464, 465, 466, 467, 468, 469, 470, 471, 472, 473, 474, 475, 476, 477, 478, 479, 480, 481, 482, 483, 484, 485, 486, 487, 488, 489, 490, 491, 492, 493, 494, 495, 496, 497, 498, 499, 500, 501, 502, 503, 504, 505, 506, 507, 508, 509, 510, 511, 512, 513, 514, 515, 516, 517, 518, 519, 520, 521, 522, 523, 524, 525, 526, 527, 528, 529, 530, 531, 532, 533, 534, 535, 536, 537, 538, 539, 540, 541, 542, 543, 544, 545, 546, 547, 548, 549, 550, 551, 552, 553, 554, 555, 556, 557, 558, 559, 560, 561, 562, 563, 564, 565, 566, 567, 568, 569, 570, 571, 572, 573, 574, 575, 576, 577, 578, 579, 580, 581],
      "AcquisitionTime": ["161155.735000", "161156.525000", "161157.312500", "161158.100000", "161158.887500", "161159.677500", "161200.465000", "161201.252500", "161202.040000", "161202.830000", "161203.617500", "161204.405000", "161205.195000", "161205.982500", "161206.770000", "161207.557500", "161208.347500", "161209.135000", "161209.922500", "161210.710000", "161211.500000", "161212.287500", "161213.075000", "161213.862500", "161214.652500", "161215.440000", "161216.227500", "161217.015000", "161217.805000", "161218.592500", "161219.380000", "161220.167500", "161220.957500", "161221.745000", "161222.532500", "161223.322500", "161224.110000", "161224.897500", "161225.685000", "161226.475000", "161227.262500", "161228.050000", "161228.837500", "161229.627500", "161230.415000", "161231.202500", "161231.990000", "161232.780000", "161233.567500", "161234.355000", "161235.142500", "161235.932500", "161236.720000", "161237.507500", "161238.295000", "161239.085000", "161239.872500", "161240.660000", "161241.450000", "161242.237500", "161243.025000", "161243.812500", "161244.602500", "161245.390000", "161246.177500", "161246.965000", "161247.755000", "161248.542500", "161249.330000", "161250.117500", "161250.907500", "161251.695000", "161252.482500", "161253.270000", "161254.060000", "161254.847500", "161255.635000", "161256.422500", "161257.212500", "161258.000000", "161258.787500", "161259.577500", "161300.365000", "161301.152500", "161301.940000", "161302.730000", "161303.517500", "161304.305000", "161305.092500", "161305.882500", "161306.670000", "161307.457500", "161308.245000", "161309.035000", "161309.822500", "161310.610000", "161311.397500", "161312.187500", "161312.975000", "161313.762500", "161314.550000", "161315.340000", "161316.127500", "161316.915000", "161317.705000", "161318.492500", "161319.280000", "161320.067500", "161320.857500", "161321.645000", "161322.432500", "161323.220000", "161324.010000", "161324.797500", "161325.585000", "161326.372500", "161327.162500", "161327.950000", "161328.737500", "161329.525000", "161330.315000", "161331.102500", "161331.890000", "161332.677500", "161333.467500", "161334.255000", "161335.042500", "161335.832500", "161336.620000", "161337.407500", "161338.195000", "161338.985000", "161339.772500", "161340.560000", "161341.347500", "161342.137500", "161342.925000", "161343.712500", "161344.500000", "161345.290000", "161346.077500", "161346.865000", "161347.652500", "161348.442500", "161349.230000", "161350.017500", "161350.805000", "161351.595000", "161352.382500", "161353.170000", "161353.960000", "161354.747500", "161355.535000", "161356.322500", "161357.112500", "161357.900000", "161358.687500", "161359.475000", "161400.265000", "161401.052500", "161401.840000", "161402.627500", "161403.417500", "161404.205000", "161404.992500", "161405.780000", "161406.570000", "161407.357500", "161408.145000", "161408.932500", "161409.722500", "161410.510000", "161411.297500", "161412.087500", "161412.875000", "161413.662500", "161414.450000", "161415.240000", "161416.027500", "161416.815000", "161417.602500", "161418.392500", "161419.180000", "161419.967500", "161420.755000", "161421.545000", "161422.332500", "161423.120000", "161423.907500", "161424.697500", "161425.485000", "161426.272500", "161427.060000", "161427.850000", "161428.637500", "161429.425000", "161430.215000", "161431.002500", "161431.790000", "161432.577500", "161433.367500", "161434.155000", "161434.942500", "161435.730000", "161436.520000", "161437.307500", "161438.095000", "161438.882500", "161439.672500", "161440.460000", "161441.247500", "161442.035000", "161442.825000", "161443.612500", "161444.400000", "161445.187500", "161445.977500", "161446.765000", "161447.552500", "161448.342500", "161449.130000", "161449.917500", "161450.705000", "161451.495000", "161452.282500", "161453.070000", "161453.857500", "161454.647500", "161455.435000", "161456.222500", "161457.010000", "161457.800000", "161458.587500", "161459.375000", "161500.162500", "161500.952500", "161501.740000", "161502.527500", "161503.317500", "161504.105000", "161504.892500", "161505.680000", "161506.470000", "161507.257500", "161508.045000", "161508.832500", "161509.622500", "161510.410000", "161511.197500", "161511.985000", "161512.775000", "161513.562500", "161514.350000", "161515.137500", "161515.927500", "161516.715000", "161517.502500", "161518.290000", "161519.080000", "161519.867500", "161520.655000", "161521.445000", "161522.232500", "161523.020000", "161523.807500", "161524.597500", "161525.385000", "161526.172500", "161526.960000", "161527.750000", "161528.537500", "161529.325000", "161530.112500", "161530.902500", "161531.690000", "161532.477500", "161533.265000", "161534.055000", "161534.842500", "161535.630000", "161536.417500", "161537.207500", "161537.995000", "161538.782500", "161539.572500", "161540.360000", "161541.147500", "161541.935000", "161542.725000", "161543.512500", "161544.300000", "161545.087500", "161545.877500", "161546.665000", "161547.452500", "161548.240000", "161549.030000", "161549.817500", "161550.605000", "161551.392500", "161552.182500", "161552.970000", "161553.757500", "161554.545000", "161555.335000", "161556.122500", "161556.910000", "161557.700000", "161558.487500", "161559.275000", "161600.062500", "161600.852500", "161601.640000", "161602.427500", "161603.215000", "161604.005000", "161604.792500", "161605.580000", "161606.367500", "161607.157500", "161607.945000", "161608.732500", "161609.520000", "161610.310000", "161611.097500", "161611.885000", "161612.672500", "161613.462500", "161614.250000", "161615.037500", "161615.827500", "161616.615000", "161617.402500", "161618.190000", "161618.980000", "161619.767500", "161620.555000", "161621.342500", "161622.132500", "161622.920000", "161623.707500", "161624.495000", "161625.285000", "161626.072500", "161626.860000", "161627.647500", "161628.437500", "161629.225000", "161630.012500", "161630.800000", "161631.590000", "161632.377500", "161633.165000", "161633.955000", "161634.742500", "161635.530000", "161636.317500", "161637.107500", "161637.895000", "161638.682500", "161639.470000", "161640.260000", "161641.047500", "161641.835000", "161642.622500", "161643.412500", "161644.200000", "161644.987500", "161645.775000", "161646.565000", "161647.352500", "161648.140000", "161648.927500", "161649.717500", "161650.505000", "161651.292500", "161652.082500", "161652.870000", "161653.657500", "161654.445000", "161655.235000", "161656.022500", "161656.810000", "161657.597500", "161658.387500", "161659.175000", "161659.962500", "161700.750000", "161701.540000", "161702.327500", "161703.115000", "161703.902500", "161704.692500", "161705.480000", "161706.267500", "161707.055000", "161707.845000", "161708.632500", "161709.420000", "161710.210000", "161710.997500", "161711.785000", "161712.572500", "161713.362500", "161714.150000", "161714.937500", "161715.725000", "161716.515000", "161717.302500", "161718.090000", "161718.877500", "161719.667500", "161720.455000", "161721.242500", "161722.030000", "161722.820000", "161723.607500", "161724.395000", "161725.182500", "161725.972500", "161726.760000", "161727.547500", "161728.337500", "161729.125000", "161729.912500", "161730.700000", "161731.490000", "161732.277500", "161733.065000", "161733.852500", "161734.642500", "161735.430000", "161736.217500", "161737.005000", "161737.795000", "161738.582500", "161739.370000", "161740.157500", "161740.947500", "161741.735000", "161742.522500", "161743.310000", "161744.100000", "161744.887500", "161745.675000", "161746.465000", "161747.252500", "161748.040000", "161748.827500", "161749.617500", "161750.405000", "161751.192500", "161751.980000", "161752.770000", "161753.557500", "161754.345000", "161755.132500", "161755.922500", "161756.710000", "161757.497500", "161758.285000", "161759.075000", "161759.862500", "161800.650000", "161801.437500", "161802.227500", "161803.015000", "161803.802500", "161804.592500", "161805.380000", "161806.167500", "161806.955000", "161807.745000", "161808.532500", "161809.320000", "161810.107500", "161810.897500", "161811.685000", "161812.472500", "161813.260000", "161814.050000", "161814.837500", "161815.625000", "161816.412500", "161817.202500", "161817.990000", "161818.777500", "161819.567500", "161820.355000", "161821.142500", "161821.930000", "161822.720000", "161823.507500", "161824.295000", "161825.082500", "161825.872500", "161826.660000", "161827.447500", "161828.235000", "161829.025000", "161829.812500", "161830.600000", "161831.387500", "161832.177500", "161832.965000", "161833.752500", "161834.540000", "161835.330000", "161836.117500", "161836.905000", "161837.695000", "161838.482500", "161839.270000", "161840.057500", "161840.847500", "161841.635000", "161842.422500", "161843.210000", "161844.000000", "161844.787500", "161845.575000", "161846.362500", "161847.152500", "161847.940000", "161848.727500", "161849.515000", "161850.305000", "161851.092500", "161851.880000", "161852.667500", "161853.457500", "161854.245000", "161855.032500", "161855.822500", "161856.610000", "161857.397500", "161858.185000", "161858.975000", "161859.762500", "161900.550000", "161901.337500", "161902.127500", "161902.915000", "161903.702500", "161904.490000", "161905.280000", "161906.067500", "161906.855000", "161907.642500", "161908.432500", "161909.220000", "161910.007500", "161910.795000", "161911.585000", "161912.372500", "161913.160000", "161913.950000", "161914.737500", "161915.525000", "161916.312500", "161917.102500", "161917.890000", "161918.677500", "161919.465000", "161920.255000", "161921.042500", "161921.830000", "161922.617500", "161923.407500", "161924.195000", "161924.982500", "161925.770000", "161926.560000", "161927.347500", "161928.135000", "161928.922500", "161929.712500", "161930.500000", "161931.287500", "161932.077500", "161932.865000"],
      "ContentTime": ["173512.718000", "173512.718000", "173512.718000", "173512.718000", "173512.718000", "173512.734000", "173512.734000", "173512.734000", "173512.734000", "173532.703000", "173532.703000", "173532.703000", "173532.703000", "173532.703000", "173532.703000", "173532.703000", "173532.718000", "173532.718000", "173532.718000", "173632.703000", "173632.703000", "173632.703000", "173632.703000", "173632.703000", "173632.703000", "173632.703000", "173632.718000", "173632.718000", "173632.718000", "173632.718000", "173632.718000", "173632.734000", "173632.734000", "173632.734000", "173632.734000", "173632.734000", "173632.734000", "173632.734000", "173632.750000", "173632.750000", "173632.750000", "173632.750000", "173632.750000", "173632.765000", "173632.765000", "173632.765000", "173632.765000", "173732.703000", "173732.703000", "173732.703000", "173732.703000", "173732.703000", "173732.703000", "173732.718000", "173732.718000", "173732.718000", "173732.718000", "173732.718000", "173732.718000", "173732.718000", "173732.734000", "173732.734000", "173732.734000", "173732.734000", "173732.734000", "173732.734000", "173732.734000", "173732.750000", "173732.750000", "173732.750000", "173732.750000", "173732.750000", "173732.750000", "173732.750000", "173732.765000", "173832.703000", "173832.703000", "173832.703000", "173832.703000", "173832.703000", "173832.703000", "173832.703000", "173832.718000", "173832.718000", "173832.718000", "173832.718000", "173832.718000", "173832.718000", "173832.734000", "173832.734000", "173832.734000", "173832.734000", "173832.734000", "173832.734000", "173832.734000", "173832.750000", "173832.750000", "173832.750000", "173832.750000", "173832.750000", "173832.750000", "173832.750000", "173832.765000", "173932.703000", "173932.703000", "173932.703000", "173932.703000", "173932.703000", "173932.703000", "173932.703000", "173932.718000", "173932.718000", "173932.718000", "173932.718000", "173932.718000", "173932.718000", "173932.734000", "173932.734000", "173932.734000", "173932.734000", "173932.734000", "173932.734000", "173932.734000", "173932.750000", "173932.750000", "173932.750000", "173932.750000", "173932.750000", "173932.750000", "173932.750000", "173932.765000", "173932.765000", "174032.703000", "174032.703000", "174032.703000", "174032.703000", "174032.703000", "174032.703000", "174032.718000", "174032.718000", "174032.718000", "174032.718000", "174032.718000", "174032.718000", "174032.718000", "174032.734000", "174032.734000", "174032.734000", "174032.734000", "174032.734000", "174032.750000", "174032.750000", "174032.750000", "174032.750000", "174032.750000", "174032.750000", "174032.750000", "174032.765000", "174032.765000", "174032.765000", "174132.703000", "174132.703000", "174132.703000", "174132.703000", "174132.703000", "174132.703000", "174132.703000", "174132.718000", "174132.718000", "174132.718000", "174132.718000", "174132.718000", "174132.718000", "174132.718000", "174132.734000", "174132.734000", "174132.734000", "174132.734000", "174132.734000", "174132.750000", "174132.750000", "174132.750000", "174132.750000", "174132.750000", "174132.765000", "174132.765000", "174132.765000", "174132.765000", "174232.703000", "174232.703000", "174232.703000", "174232.703000", "174232.703000", "174232.703000", "174232.703000", "174232.718000", "174232.718000", "174232.718000", "174232.718000", "174232.718000", "174232.718000", "174232.734000", "174232.734000", "174232.734000", "174232.734000", "174232.734000", "174232.734000", "174232.734000", "174232.750000", "174232.750000", "174232.750000", "174232.750000", "174232.750000", "174232.765000", "174232.765000", "174232.765000", "174332.703000", "174332.703000", "174332.703000", "174332.703000", "174332.703000", "174332.703000", "174332.703000", "174332.718000", "174332.718000", "174332.718000", "174332.718000", "174332.718000", "174332.718000", "174332.718000", "174332.734000", "174332.734000", "174332.734000", "174332.734000", "174332.734000", "174332.734000", "174332.734000", "174332.750000", "174332.750000", "174332.750000", "174332.750000", "174332.750000", "174332.750000", "174332.765000", "174432.703000", "174432.703000", "174432.703000", "174432.703000", "174432.703000", "174432.703000", "174432.703000", "174432.718000", "174432.718000", "174432.718000", "174432.718000", "174432.718000", "174432.718000", "174432.734000", "174432.734000", "174432.734000", "174432.734000", "174432.734000", "174432.734000", "174432.734000", "174432.750000", "174432.750000", "174432.750000", "174432.750000", "174432.750000", "174432.750000", "174432.750000", "174432.765000", "174532.703000", "174532.703000", "174532.703000", "174532.703000", "174532.703000", "174532.703000", "174532.703000", "174532.718000", "174532.718000", "174532.718000", "174532.718000", "174532.718000", "174532.718000", "174532.734000", "174532.734000", "174532.734000", "174532.734000", "174532.734000", "174532.734000", "174532.734000", "174532.750000", "174532.750000", "174532.750000", "174532.750000", "174532.750000", "174532.750000", "174532.750000", "174532.765000", "174532.765000", "174632.703000", "174632.703000", "174632.703000", "174632.703000", "174632.703000", "174632.703000", "174632.703000", "174632.718000", "174632.718000", "174632.718000", "174632.718000", "174632.718000", "174632.718000", "174632.718000", "174632.734000", "174632.734000", "174632.734000", "174632.734000", "174632.734000", "174632.734000", "174632.734000", "174632.750000", "174632.750000", "174632.750000", "174632.750000", "174632.750000", "174632.750000", "174632.750000", "174732.703000", "174732.703000", "174732.703000", "174732.703000", "174732.703000", "174732.703000", "174732.718000", "174732.718000", "174732.718000", "174732.718000", "174732.718000", "174732.718000", "174732.718000", "174732.734000", "174732.734000", "174732.734000", "174732.734000", "174732.734000", "174732.734000", "174732.734000", "174732.750000", "174732.750000", "174732.750000", "174732.750000", "174732.750000", "174732.750000", "174732.750000", "174732.765000", "174832.703000", "174832.703000", "174832.703000", "174832.703000", "174832.703000", "174832.703000", "174832.703000", "174832.718000", "174832.718000", "174832.718000", "174832.718000", "174832.718000", "174832.718000", "174832.718000", "174832.734000", "174832.734000", "174832.734000", "174832.734000", "174832.734000", "174832.734000", "174832.734000", "174832.750000", "174832.750000", "174832.750000", "174832.750000", "174832.750000", "174832.750000", "174832.750000", "174932.703000", "174932.703000", "174932.703000", "174932.703000", "174932.703000", "174932.703000", "174932.718000", "174932.718000", "174932.718000", "174932.718000", "174932.718000", "174932.718000", "174932.718000", "174932.734000", "174932.734000", "174932.734000", "174932.734000", "174932.734000", "174932.734000", "174932.734000", "174932.750000", "174932.750000", "174932.750000", "174932.750000", "174932.750000", "174932.750000", "174932.750000", "174932.765000", "175032.703000", "175032.703000", "175032.703000", "175032.703000", "175032.703000", "175032.703000", "175032.718000", "175032.718000", "175032.718000", "175032.718000", "175032.718000", "175032.718000", "175032.718000", "175032.734000", "175032.734000", "175032.734000", "175032.734000", "175032.734000", "175032.734000", "175032.734000", "175032.750000", "175032.750000", "175032.750000", "175032.750000", "175032.750000", "175032.765000", "175032.765000", "175032.765000", "175032.765000", "175132.703000", "175132.703000", "175132.703000", "175132.703000", "175132.703000", "175132.703000", "175132.718000", "175132.718000", "175132.718000", "175132.718000", "175132.718000", "175132.718000", "175132.718000", "175132.734000", "175132.734000", "175132.734000", "175132.734000", "175132.734000", "175132.734000", "175132.734000", "175132.750000", "175132.750000", "175132.750000", "175132.750000", "175132.750000", "175132.750000", "175132.750000", "175132.765000", "175232.703000", "175232.703000", "175232.703000", "175232.703000", "175232.703000", "175232.703000", "175232.703000", "175232.718000", "175232.718000", "175232.718000", "175232.718000", "175232.718000", "175232.718000", "175232.734000", "175232.734000", "175232.734000", "175232.734000", "175232.734000", "175232.734000", "175232.734000", "175232.750000", "175232.750000", "175232.750000", "175232.750000", "175232.750000", "175232.750000", "175232.750000", "175232.765000", "175332.703000", "175332.703000", "175332.703000", "175332.703000", "175332.703000", "175332.703000", "175332.718000", "175332.718000", "175332.718000", "175332.718000", "175332.718000", "175332.718000", "175332.718000", "175332.734000", "175332.734000", "175332.734000", "175332.734000", "175332.734000", "175332.734000", "175332.734000", "175332.750000", "175332.750000", "175332.750000", "175332.750000", "175332.750000", "175332.750000", "175332.750000", "175332.765000", "175432.703000", "175432.703000", "175432.703000", "175432.703000", "175432.703000", "175432.703000", "175432.703000", "175432.718000", "175432.718000", "175432.718000", "175432.718000", "175432.718000", "175432.718000", "175432.734000", "175432.734000", "175432.734000", "175432.734000", "175432.734000", "175432.750000", "175432.750000", "175432.750000", "175432.750000", "175432.750000", "175432.750000", "175432.750000", "175432.765000", "175432.765000", "175432.765000", "175432.765000", "175527.453000", "175527.453000", "175527.468000", "175527.468000", "175527.468000", "175527.468000", "175527.484000", "175527.484000", "175527.484000", "175527.484000", "175527.484000", "175527.484000", "175527.484000", "175527.500000", "175527.500000", "175527.500000", "175527.500000", "175527.500000", "175527.500000", "175527.500000", "175527.515000", "175527.515000", "175527.515000", "175527.515000", "175527.515000", "175527.515000"],
      "DataSetTrailingPadding": [
        "\u0000\u0000\u0000\u0000\u0000\u0000\u0000\u0000\u0000\u0000\u0000\u0000\u0000\u0000\u0000\u0000\u0000\u0000\u0000\u0000\u0000\u0000\u0000\u0000\u0000\u0000\u0000\u0000\u0000\u0000\u0000\u0000\u0000\u0000\u0000\u0000\u0000\u0000\u0000\u0000\u0000\u0000\u0000\u0000\u0000\u0000\u0000\u0000\u0000\u0000\u0000\u0000\u0000\u0000\u0000\u0000\u0000\u0000\u0000\u0000\u0000\u0000\u0000\u0000\u0000\u0000\u0000\u0000\u0000\u0000\u0000\u0000\u0000\u0000\u0000\u0000\u0000\u0000\u0000\u0000\u0000\u0000\u0000\u0000\u0000\u0000\u0000\u0000\u0000\u0000\u0000\u0000\u0000\u0000\u0000\u0000\u0000\u0000\u0000\u0000\u0000\u0000\u0000\u0000\u0000\u0000\u0000\u0000\u0000\u0000\u0000\u0000\u0000\u0000\u0000\u0000\u0000\u0000\u0000\u0000\u0000\u0000\u0000\u0000\u0000\u0000\u0000\u0000\u0000\u0000\u0000\u0000\u0000\u0000\u0000\u0000\u0000\u0000\u0000\u0000\u0000\u0000\u0000\u0000\u0000\u0000\u0000\u0000\u0000\u0000\u0000\u0000\u0000\u0000\u0000\u0000\u0000\u0000\u0000\u0000\u0000\u0000\u0000\u0000\u0000\u0000\u0000\u0000\u0000\u0000\u0000\u0000\u0000\u0000\u0000\u0000\u0000\u0000\u0000\u0000\u0000\u0000\u0000\u0000\u0000\u0000\u0000\u0000\u0000\u0000\u0000\u0000\u0000\u0000\u0000\u0000\u0000\u0000\u0000\u0000\u0000\u0000\u0000\u0000\u0000\u0000\u0000\u0000\u0000\u0000\u0000\u0000\u0000\u0000\u0000\u0000\u0000\u0000\u0000\u0000\u0000\u0000\u0000\u0000",
