{
  "AcquisitionMatrixPE": 104,
  "AcquisitionNumber": 1,
  "AcquisitionTime": "15:47:53.755000",
  "BandwidthPerPixelPhaseEncode": 13.935,
  "BaseResolution": 104,
  "CoilString": "C:HEA;HEP",
  "ConversionSoftware": "dcm2niix",
  "ConversionSoftwareVersion": "v1.0.20210317",
  "DerivedVendorReportedEchoSpacing": 0.000690017,
  "DeviceSerialNumber": "35450",
  "DwellTime": 2.5e-06,
  "EchoTime": 0.0348,
  "EffectiveEchoSpacing": 0.000690017,
  "FlipAngle": 55,
  "ImageComments": "Unaliased MB8/PE3",
  "ImageOrientationPatientDICOM": [1, 0, 0, 0, 0.999048, -0.0436194],
  "ImageType": [
    "ORIGINAL",
    "PRIMARY",
    "M",
    "MB",
    "ND",
    "MOSAIC"
],
  "ImagingFrequency": 123.235,
  "InPlanePhaseEncodingDirectionDICOM": "COL",
  "InstitutionAddress": "Univeristy Ave. 197,Newark,North East,US,07102-1814",
  "InstitutionName": "RUBIC",
  "InstitutionalDepartmentName": "Department",
  "MRAcquisitionType": "2D",
  "MagneticFieldStrength": 3,
  "Manufacturer": "Siemens",
  "ManufacturersModelName": "TrioTim",
  "Modality": "MR",
  "MultibandAccelerationFactor": 8,
  "PartialFourier": 0.875,
  "PatientPosition": "HFS",
  "PercentPhaseFOV": 100,
  "PercentSampling": 100,
  "PhaseEncodingDirection": "j-",
  "PhaseEncodingSteps": 91,
  "PhaseResolution": 1,
  "PixelBandwidth": 1923,
  "ProcedureStepDescription": "Cole^Michael",
  "ProtocolName": "cmrr_mbep2d_bold_2mm_MB8_Task_8x",
  "PulseSequenceDetails": "%CustomerSeq%\\cmrr_mbep2d_bold",
  "ReceiveCoilName": "32Ch_Head",
  "ReconMatrixPE": 104,
  "RepetitionTime": 0.785,
  "SAR": 0.133017,
  "ScanOptions": "PFP\\FS",
  "ScanningSequence": "EP",
  "SequenceName": "epfid2d1_104",
  "SequenceVariant": "SK\\SS",
  "SeriesDescription": "cmrr_mbep2d_bold_2mm_MB8_Task_8x",
  "SeriesNumber": 15,
  "ShimSetting": [2142, -367, -7174, 414, -121, -598, 338, -9],
  "SliceThickness": 2,
  "SliceTiming": [0, 0.4375, 0.0875, 0.525, 0.175, 0.6125, 0.2625, 0.7, 0.35, 0, 0.4375, 0.0875, 0.525, 0.175, 0.6125, 0.2625, 0.7, 0.35, 0, 0.4375, 0.0875, 0.525, 0.175, 0.6125, 0.2625, 0.7, 0.35, 0, 0.4375, 0.0875, 0.525, 0.175, 0.6125, 0.2625, 0.7, 0.35, 0, 0.4375, 0.0875, 0.525, 0.175, 0.6125, 0.2625, 0.7, 0.35, 0, 0.4375, 0.0875, 0.525, 0.175, 0.6125, 0.2625, 0.7, 0.35, 0, 0.4375, 0.0875, 0.525, 0.175, 0.6125, 0.2625, 0.7, 0.35, 0, 0.4375, 0.0875, 0.525, 0.175, 0.6125, 0.2625, 0.7, 0.35],
  "SoftwareVersions": "syngo MR B19",
  "SpacingBetweenSlices": 2,
  "StationName": "MRC35450",
  "TaskName": "cpro",
  "TotalReadoutTime": 0.0710717,
  "TxRefAmp": 378.941,
  "dcmmeta_affine": [
    [-2.0, 0.0, 0.0, 101.28813171386719],
    [0.0, 1.9980964660644531, -0.08723877370357513, -91.36768341064453],
    [0.0, 0.08723877370357513, 1.9980964660644531, -95.83680725097656],
    [0.0, 0.0, 0.0, 1.0]
],
  "dcmmeta_reorient_transform": [
    [0.0, -1.0, 0.0, 103.0],
    [1.0, 0.0, 0.0, 0.0],
    [0.0, 0.0, 1.0, 0.0],
    [0.0, 0.0, 0.0, 1.0]
],
  "dcmmeta_shape": [104, 104, 72, 581],
  "dcmmeta_slice_dim": 2,
  "dcmmeta_version": 0.6,
  "global": {
    "const": {
      "AcquisitionMatrix": [104, 0, 0, 104],
      "AngioFlag": "N",
      "BitsAllocated": 16,
      "BitsStored": 12,
      "Columns": 936,
      "EchoNumbers": 1,
      "EchoTime": 34.8,
      "EchoTrainLength": 1,
      "FlipAngle": 55.0,
      "HighBit": 11,
      "ImageOrientationPatient": [1.0, 0.0, 0.0, 0.0, 0.99904822159351, -0.0436193870985],
      "ImagePositionPatient": [-933.28813552856, -945.64436890914, -50.559880323712],
      "ImageType": [
        "ORIGINAL",
        "PRIMARY",
        "M",
        "MB",
        "ND",
        "MOSAIC"
],
      "ImagedNucleus": "1H",
      "ImagingFrequency": 123.23451,
      "InPlanePhaseEncodingDirection": "COL",
      "MRAcquisitionType": "2D",
      "MagneticFieldStrength": 3.0,
      "Manufacturer": "SIEMENS",
      "ManufacturerModelName": "TrioTim",
      "Modality": "MR",
      "NumberOfAverages": 1.0,
      "NumberOfPhaseEncodingSteps": 91,
      "PercentPhaseFieldOfView": 100.0,
      "PercentSampling": 100.0,
      "PerformedProcedureStepStartTime": "141820.562000",
      "PhotometricInterpretation": "MONOCHROME2",
      "PixelBandwidth": 1923.0,
      "PixelRepresentation": 0,
      "PixelSpacing": [2.0, 2.0],
      "ProtocolName": "cmrr_mbep2d_bold_2mm_MB8_Task_8x",
      "RepetitionTime": 785.0,
      "Rows": 936,
      "SAR": 0.13301732183379,
      "SamplesPerPixel": 1,
      "ScanOptions": [
        "PFP",
        "FS"
],
      "ScanningSequence": "EP",
      "SequenceName": "epfid2d1_104",
      "SequenceVariant": [
        "SK",
        "SS"
],
      "SeriesDescription": "cmrr_mbep2d_bold_2mm_MB8_Task_8x",
      "SeriesNumber": 15,
      "SeriesTime": "163145.125000",
      "SliceLocation": -91.760186306391,
      "SliceThickness": 2.0,
      "SmallestImagePixelValue": 0,
      "SoftwareVersions": "syngo MR B19",
      "SpacingBetweenSlices": 1.9999999692212,
      "SpecificCharacterSet": "ISO_IR 100",
      "StudyID": "1",
      "StudyTime": "141820.531000",
      "TransmitCoilName": "Body",
      "VariableFlipAngleFlag": "N",
      "WindowCenterWidthExplanation": "Algo1",
      "dBdt": 0.0},
    "slices": {}
  },
  "time": {
    "samples": {
      "AcquisitionNumber": [1, 2, 3, 4, 5, 6, 7, 8, 9, 10, 11, 12, 13, 14, 15, 16, 17, 18, 19, 20, 21, 22, 23, 24, 25, 26, 27, 28, 29, 30, 31, 32, 33, 34, 35, 36, 37, 38, 39, 40, 41, 42, 43, 44, 45, 46, 47, 48, 49, 50, 51, 52, 53, 54, 55, 56, 57, 58, 59, 60, 61, 62, 63, 64, 65, 66, 67, 68, 69, 70, 71, 72, 73, 74, 75, 76, 77, 78, 79, 80, 81, 82, 83, 84, 85, 86, 87, 88, 89, 90, 91, 92, 93, 94, 95, 96, 97, 98, 99, 100, 101, 102, 103, 104, 105, 106, 107, 108, 109, 110, 111, 112, 113, 114, 115, 116, 117, 118, 119, 120, 121, 122, 123, 124, 125, 126, 127, 128, 129, 130, 131, 132, 133, 134, 135, 136, 137, 138, 139, 140, 141, 142, 143, 144, 145, 146, 147, 148, 149, 150, 151, 152, 153, 154, 155, 156, 157, 158, 159, 160, 161, 162, 163, 164, 165, 166, 167, 168, 169, 170, 171, 172, 173, 174, 175, 176, 177, 178, 179, 180, 181, 182, 183, 184, 185, 186, 187, 188, 189, 190, 191, 192, 193, 194, 195, 196, 197, 198, 199, 200, 201, 202, 203, 204, 205, 206, 207, 208, 209, 210, 211, 212, 213, 214, 215, 216, 217, 218, 219, 220, 221, 222, 223, 224, 225, 226, 227, 228, 229, 230, 231, 232, 233, 234, 235, 236, 237, 238, 239, 240, 241, 242, 243, 244, 245, 246, 247, 248, 249, 250, 251, 252, 253, 254, 255, 256, 257, 258, 259, 260, 261, 262, 263, 264, 265, 266, 267, 268, 269, 270, 271, 272, 273, 274, 275, 276, 277, 278, 279, 280, 281, 282, 283, 284, 285, 286, 287, 288, 289, 290, 291, 292, 293, 294, 295, 296, 297, 298, 299, 300, 301, 302, 303, 304, 305, 306, 307, 308, 309, 310, 311, 312, 313, 314, 315, 316, 317, 318, 319, 320, 321, 322, 323, 324, 325, 326, 327, 328, 329, 330, 331, 332, 333, 334, 335, 336, 337, 338, 339, 340, 341, 342, 343, 344, 345, 346, 347, 348, 349, 350, 351, 352, 353, 354, 355, 356, 357, 358, 359, 360, 361, 362, 363, 364, 365, 366, 367, 368, 369, 370, 371, 372, 373, 374, 375, 376, 377, 378, 379, 380, 381, 382, 383, 384, 385, 386, 387, 388, 389, 390, 391, 392, 393, 394, 395, 396, 397, 398, 399, 400, 401, 402, 403, 404, 405, 406, 407, 408, 409, 410, 411, 412, 413, 414, 415, 416, 417, 418, 419, 420, 421, 422, 423, 424, 425, 426, 427, 428, 429, 430, 431, 432, 433, 434, 435, 436, 437, 438, 439, 440, 441, 442, 443, 444, 445, 446, 447, 448, 449, 450, 451, 452, 453, 454, 455, 456, 457, 458, 459, 460, 461, 462, 463, 464, 465, 466, 467, 468, 469, 470, 471, 472, 473, 474, 475, 476, 477, 478, 479, 480, 481, 482, 483, 484, 485, 486, 487, 488, 489, 490, 491, 492, 493, 494, 495, 496, 497, 498, 499, 500, 501, 502, 503, 504, 505, 506, 507, 508, 509, 510, 511, 512, 513, 514, 515, 516, 517, 518, 519, 520, 521, 522, 523, 524, 525, 526, 527, 528, 529, 530, 531, 532, 533, 534, 535, 536, 537, 538, 539, 540, 541, 542, 543, 544, 545, 546, 547, 548, 549, 550, 551, 552, 553, 554, 555, 556, 557, 558, 559, 560, 561, 562, 563, 564, 565, 566, 567, 568, 569, 570, 571, 572, 573, 574, 575, 576, 577, 578, 579, 580, 581],
      "AcquisitionTime": ["154753.755000", "154754.542500", "154755.332500", "154756.120000", "154756.907500", "154757.695000", "154758.485000", "154759.272500", "154800.060000", "154800.847500", "154801.637500", "154802.425000", "154803.212500", "154804.002500", "154804.790000", "154805.577500", "154806.365000", "154807.155000", "154807.942500", "154808.730000", "154809.517500", "154810.307500", "154811.095000", "154811.882500", "154812.670000", "154813.460000", "154814.247500", "154815.035000", "154815.822500", "154816.612500", "154817.400000", "154818.187500", "154818.975000", "154819.765000", "154820.552500", "154821.340000", "154822.130000", "154822.917500", "154823.705000", "154824.492500", "154825.282500", "154826.070000", "154826.857500", "154827.645000", "154828.435000", "154829.222500", "154830.010000", "154830.797500", "154831.587500", "154832.375000", "154833.162500", "154833.950000", "154834.740000", "154835.527500", "154836.315000", "154837.102500", "154837.892500", "154838.680000", "154839.467500", "154840.257500", "154841.045000", "154841.832500", "154842.620000", "154843.410000", "154844.197500", "154844.985000", "154845.772500", "154846.562500", "154847.350000", "154848.137500", "154848.925000", "154849.715000", "154850.502500", "154851.290000", "154852.077500", "154852.867500", "154853.655000", "154854.442500", "154855.230000", "154856.020000", "154856.807500", "154857.595000", "154858.385000", "154859.172500", "154859.960000", "154900.747500", "154901.537500", "154902.325000", "154903.112500", "154903.900000", "154904.690000", "154905.477500", "154906.265000", "154907.052500", "154907.842500", "154908.630000", "154909.417500", "154910.205000", "154910.995000", "154911.782500", "154912.570000", "154913.357500", "154914.147500", "154914.935000", "154915.722500", "154916.512500", "154917.300000", "154918.087500", "154918.875000", "154919.665000", "154920.452500", "154921.240000", "154922.027500", "154922.817500", "154923.605000", "154924.392500", "154925.180000", "154925.970000", "154926.757500", "154927.545000", "154928.332500", "154929.122500", "154929.910000", "154930.697500", "154931.485000", "154932.275000", "154933.062500", "154933.850000", "154934.640000", "154935.427500", "154936.215000", "154937.002500", "154937.792500", "154938.580000", "154939.367500", "154940.155000", "154940.945000", "154941.732500", "154942.520000", "154943.307500", "154944.097500", "154944.885000", "154945.672500", "154946.460000", "154947.250000", "154948.037500", "154948.825000", "154949.612500", "154950.402500", "154951.190000", "154951.977500", "154952.767500", "154953.555000", "154954.342500", "154955.130000", "154955.920000", "154956.707500", "154957.495000", "154958.282500", "154959.072500", "154959.860000", "155000.647500", "155001.435000", "155002.225000", "155003.012500", "155003.800000", "155004.587500", "155005.377500", "155006.165000", "155006.952500", "155007.740000", "155008.530000", "155009.317500", "155010.105000", "155010.895000", "155011.682500", "155012.470000", "155013.257500", "155014.047500", "155014.835000", "155015.622500", "155016.410000", "155017.200000", "155017.987500", "155018.775000", "155019.562500", "155020.352500", "155021.140000", "155021.927500", "155022.715000", "155023.505000", "155024.292500", "155025.080000", "155025.867500", "155026.657500", "155027.445000", "155028.232500", "155029.022500", "155029.810000", "155030.597500", "155031.385000", "155032.175000", "155032.962500", "155033.750000", "155034.537500", "155035.327500", "155036.115000", "155036.902500", "155037.690000", "155038.480000", "155039.267500", "155040.055000", "155040.842500", "155041.632500", "155042.420000", "155043.207500", "155043.997500", "155044.785000", "155045.572500", "155046.360000", "155047.150000", "155047.937500", "155048.725000", "155049.512500", "155050.302500", "155051.090000", "155051.877500", "155052.665000", "155053.455000", "155054.242500", "155055.030000", "155055.817500", "155056.607500", "155057.395000", "155058.182500", "155058.970000", "155059.760000", "155100.547500", "155101.335000", "155102.125000", "155102.912500", "155103.700000", "155104.487500", "155105.277500", "155106.065000", "155106.852500", "155107.640000", "155108.430000", "155109.217500", "155110.005000", "155110.792500", "155111.582500", "155112.370000", "155113.157500", "155113.945000", "155114.735000", "155115.522500", "155116.310000", "155117.097500", "155117.887500", "155118.675000", "155119.462500", "155120.252500", "155121.040000", "155121.827500", "155122.615000", "155123.405000", "155124.192500", "155124.980000", "155125.767500", "155126.557500", "155127.345000", "155128.132500", "155128.920000", "155129.710000", "155130.497500", "155131.285000", "155132.072500", "155132.862500", "155133.650000", "155134.437500", "155135.225000", "155136.015000", "155136.802500", "155137.590000", "155138.380000", "155139.167500", "155139.955000", "155140.742500", "155141.532500", "155142.320000", "155143.107500", "155143.895000", "155144.685000", "155145.472500", "155146.260000", "155147.047500", "155147.837500", "155148.625000", "155149.412500", "155150.200000", "155150.990000", "155151.777500", "155152.565000", "155153.352500", "155154.142500", "155154.930000", "155155.717500", "155156.507500", "155157.295000", "155158.082500", "155158.870000", "155159.660000", "155200.447500", "155201.235000", "155202.022500", "155202.812500", "155203.600000", "155204.387500", "155205.175000", "155205.965000", "155206.752500", "155207.540000", "155208.327500", "155209.117500", "155209.905000", "155210.692500", "155211.480000", "155212.270000", "155213.057500", "155213.845000", "155214.635000", "155215.422500", "155216.210000", "155216.997500", "155217.787500", "155218.575000", "155219.362500", "155220.150000", "155220.940000", "155221.727500", "155222.515000", "155223.302500", "155224.092500", "155224.880000", "155225.667500", "155226.455000", "155227.245000", "155228.032500", "155228.820000", "155229.607500", "155230.397500", "155231.185000", "155231.972500", "155232.762500", "155233.550000", "155234.337500", "155235.125000", "155235.915000", "155236.702500", "155237.490000", "155238.277500", "155239.067500", "155239.855000", "155240.642500", "155241.430000", "155242.220000", "155243.007500", "155243.795000", "155244.582500", "155245.372500", "155246.160000", "155246.947500", "155247.735000", "155248.525000", "155249.312500", "155250.100000", "155250.890000", "155251.677500", "155252.465000", "155253.252500", "155254.042500", "155254.830000", "155255.617500", "155256.405000", "155257.195000", "155257.982500", "155258.770000", "155259.557500", "155300.347500", "155301.135000", "155301.922500", "155302.710000", "155303.500000", "155304.287500", "155305.075000", "155305.862500", "155306.652500", "155307.440000", "155308.227500", "155309.017500", "155309.805000", "155310.592500", "155311.380000", "155312.170000", "155312.957500", "155313.745000", "155314.532500", "155315.322500", "155316.110000", "155316.897500", "155317.685000", "155318.475000", "155319.262500", "155320.050000", "155320.837500", "155321.627500", "155322.415000", "155323.202500", "155323.990000", "155324.780000", "155325.567500", "155326.355000", "155327.145000", "155327.932500", "155328.720000", "155329.507500", "155330.297500", "155331.085000", "155331.872500", "155332.660000", "155333.450000", "155334.237500", "155335.025000", "155335.812500", "155336.602500", "155337.390000", "155338.177500", "155338.965000", "155339.755000", "155340.542500", "155341.330000", "155342.117500", "155342.907500", "155343.695000", "155344.482500", "155345.272500", "155346.060000", "155346.847500", "155347.635000", "155348.425000", "155349.212500", "155350.000000", "155350.787500", "155351.577500", "155352.365000", "155353.152500", "155353.940000", "155354.730000", "155355.517500", "155356.305000", "155357.092500", "155357.882500", "155358.670000", "155359.457500", "155400.247500", "155401.035000", "155401.822500", "155402.610000", "155403.400000", "155404.187500", "155404.975000", "155405.762500", "155406.552500", "155407.340000", "155408.127500", "155408.915000", "155409.705000", "155410.492500", "155411.280000", "155412.067500", "155412.857500", "155413.645000", "155414.432500", "155415.220000", "155416.010000", "155416.797500", "155417.585000", "155418.375000", "155419.162500", "155419.950000", "155420.737500", "155421.527500", "155422.315000", "155423.102500", "155423.890000", "155424.680000", "155425.467500", "155426.255000", "155427.042500", "155427.832500", "155428.620000", "155429.407500", "155430.195000", "155430.985000", "155431.772500", "155432.560000", "155433.347500", "155434.137500", "155434.925000", "155435.712500", "155436.502500", "155437.290000", "155438.077500", "155438.865000", "155439.655000", "155440.442500", "155441.230000", "155442.017500", "155442.807500", "155443.595000", "155444.382500", "155445.170000", "155445.960000", "155446.747500", "155447.535000", "155448.322500", "155449.112500", "155449.900000", "155450.687500", "155451.475000", "155452.265000", "155453.052500", "155453.840000", "155454.630000", "155455.417500", "155456.205000", "155456.992500", "155457.782500", "155458.570000", "155459.357500", "155500.145000", "155500.935000", "155501.722500", "155502.510000", "155503.297500", "155504.087500", "155504.875000", "155505.662500", "155506.450000", "155507.240000", "155508.027500", "155508.815000", "155509.602500", "155510.392500", "155511.180000", "155511.967500", "155512.757500", "155513.545000", "155514.332500", "155515.120000", "155515.910000", "155516.697500", "155517.485000", "155518.272500", "155519.062500", "155519.850000", "155520.637500", "155521.425000", "155522.215000", "155523.002500", "155523.790000", "155524.577500", "155525.367500", "155526.155000", "155526.942500", "155527.730000", "155528.520000", "155529.307500", "155530.095000", "155530.885000"],
      "ContentTime": ["163145.125000", "163145.125000", "163145.125000", "163245.093000", "163245.093000", "163245.093000", "163245.093000", "163245.093000", "163245.109000", "163245.109000", "163245.109000", "163245.109000", "163245.109000", "163245.125000", "163245.125000", "163245.125000", "163245.125000", "163245.125000", "163245.125000", "163245.125000", "163245.140000", "163245.140000", "163245.140000", "163245.140000", "163245.140000", "163245.140000", "163245.140000", "163245.156000", "163245.156000", "163245.156000", "163345.093000", "163345.093000", "163345.093000", "163345.093000", "163345.093000", "163345.109000", "163345.109000", "163345.109000", "163345.109000", "163345.109000", "163345.109000", "163345.109000", "163345.125000", "163345.125000", "163345.125000", "163345.125000", "163345.125000", "163345.125000", "163345.140000", "163345.140000", "163345.140000", "163345.140000", "163345.140000", "163345.140000", "163345.140000", "163345.156000", "163345.156000", "163445.093000", "163445.093000", "163445.093000", "163445.093000", "163445.093000", "163445.109000", "163445.109000", "163445.109000", "163445.109000", "163445.109000", "163445.125000", "163445.125000", "163445.125000", "163445.125000", "163445.125000", "163445.140000", "163445.140000", "163445.140000", "163445.140000", "163445.140000", "163445.140000", "163445.140000", "163445.156000", "163445.156000", "163445.156000", "163445.156000", "163445.156000", "163445.156000", "163545.093000", "163545.093000", "163545.093000", "163545.093000", "163545.093000", "163545.109000", "163545.109000", "163545.109000", "163545.109000", "163545.109000", "163545.109000", "163545.109000", "163545.125000", "163545.125000", "163545.125000", "163545.125000", "163545.125000", "163545.125000", "163545.140000", "163545.140000", "163545.140000", "163545.140000", "163545.140000", "163545.140000", "163545.140000", "163545.156000", "163545.156000", "163645.093000", "163645.093000", "163645.093000", "163645.093000", "163645.093000", "163645.109000", "163645.109000", "163645.109000", "163645.109000", "163645.109000", "163645.109000", "163645.109000", "163645.125000", "163645.125000", "163645.125000", "163645.125000", "163645.140000", "163645.140000", "163645.140000", "163645.140000", "163645.140000", "163645.140000", "163645.140000", "163645.156000", "163645.156000", "163645.156000", "163645.156000", "163645.156000", "163745.093000", "163745.093000", "163745.093000", "163745.093000", "163745.093000", "163745.109000", "163745.109000", "163745.109000", "163745.109000", "163745.109000", "163745.109000", "163745.109000", "163745.125000", "163745.125000", "163745.125000", "163745.125000", "163745.125000", "163745.125000", "163745.140000", "163745.140000", "163745.140000", "163745.140000", "163745.140000", "163745.140000", "163745.156000", "163745.156000", "163745.156000", "163805.093000", "163805.093000", "163805.093000", "163805.093000", "163805.093000", "163805.109000", "163805.109000", "163805.109000", "163805.109000", "163905.093000", "163905.093000", "163905.093000", "163905.093000", "163905.093000", "163905.109000", "163905.109000", "163905.109000", "163905.109000", "163905.109000", "163905.109000", "163905.109000", "163905.125000", "163905.125000", "163905.125000", "163905.125000", "163905.125000", "163905.125000", "163905.125000", "163905.140000", "163905.140000", "163905.140000", "163905.140000", "163905.140000", "163905.140000", "163905.140000", "163905.156000", "163905.156000", "164005.093000", "164005.093000", "164005.093000", "164005.093000", "164005.093000", "164005.109000", "164005.109000", "164005.109000", "164005.109000", "164005.109000", "164005.109000", "164005.109000", "164005.125000", "164005.125000", "164005.125000", "164005.125000", "164005.125000", "164005.125000", "164005.125000", "164005.140000", "164005.140000", "164005.140000", "164005.140000", "164005.140000", "164005.140000", "164005.140000", "164005.156000", "164105.093000", "164105.093000", "164105.093000", "164105.093000", "164105.093000", "164105.109000", "164105.109000", "164105.109000", "164105.109000", "164105.109000", "164105.109000", "164105.109000", "164105.125000", "164105.125000", "164105.125000", "164105.125000", "164105.125000", "164105.125000", "164105.125000", "164105.140000", "164105.140000", "164105.140000", "164105.140000", "164105.140000", "164105.140000", "164105.140000", "164105.156000", "164105.156000", "164205.093000", "164205.093000", "164205.093000", "164205.093000", "164205.093000", "164205.109000", "164205.109000", "164205.109000", "164205.109000", "164205.109000", "164205.125000", "164205.125000", "164205.125000", "164205.125000", "164205.125000", "164205.125000", "164205.125000", "164205.140000", "164205.140000", "164205.140000", "164205.140000", "164205.140000", "164205.156000", "164205.156000", "164205.156000", "164205.156000", "164205.156000", "164305.093000", "164305.093000", "164305.093000", "164305.093000", "164305.093000", "164305.109000", "164305.109000", "164305.109000", "164305.109000", "164305.109000", "164305.109000", "164305.109000", "164305.125000", "164305.125000", "164305.125000", "164305.125000", "164305.125000", "164305.125000", "164305.125000", "164305.140000", "164305.140000", "164305.140000", "164305.140000", "164305.140000", "164305.140000", "164305.140000", "164305.156000", "164405.093000", "164405.093000", "164405.093000", "164405.109000", "164405.109000", "164405.109000", "164405.109000", "164405.109000", "164405.109000", "164405.109000", "164405.125000", "164405.125000", "164405.125000", "164405.125000", "164405.125000", "164405.125000", "164405.125000", "164405.140000", "164405.140000", "164405.140000", "164405.140000", "164405.140000", "164405.140000", "164405.156000", "164405.156000", "164405.156000", "164405.156000", "164405.156000", "164505.093000", "164505.093000", "164505.093000", "164505.109000", "164505.109000", "164505.109000", "164505.109000", "164505.109000", "164505.109000", "164505.109000", "164505.125000", "164505.125000", "164505.125000", "164505.125000", "164505.125000", "164505.125000", "164505.125000", "164505.140000", "164505.140000", "164505.140000", "164505.140000", "164505.156000", "164505.156000", "164505.156000", "164505.156000", "164505.156000", "164505.156000", "164505.156000", "164605.093000", "164605.093000", "164605.093000", "164605.109000", "164605.109000", "164605.109000", "164605.109000", "164605.109000", "164605.109000", "164605.109000", "164605.125000", "164605.125000", "164605.125000", "164605.125000", "164605.125000", "164605.125000", "164605.125000", "164605.140000", "164605.140000", "164605.140000", "164605.140000", "164605.140000", "164605.140000", "164605.140000", "164605.156000", "164605.156000", "164605.156000", "164705.093000", "164705.093000", "164705.093000", "164705.109000", "164705.109000", "164705.109000", "164705.109000", "164705.109000", "164705.109000", "164705.125000", "164705.125000", "164705.125000", "164705.125000", "164705.125000", "164705.125000", "164705.125000", "164705.140000", "164705.140000", "164705.140000", "164705.140000", "164705.140000", "164705.140000", "164705.140000", "164705.156000", "164705.156000", "164705.156000", "164705.156000", "164705.156000", "164805.093000", "164805.093000", "164805.093000", "164805.093000", "164805.109000", "164805.109000", "164805.109000", "164805.109000", "164805.109000", "164805.109000", "164805.109000", "164805.125000", "164805.125000", "164805.125000", "164805.125000", "164805.125000", "164805.125000", "164805.140000", "164805.140000", "164805.140000", "164805.140000", "164805.140000", "164805.156000", "164805.156000", "164805.156000", "164805.156000", "164805.156000", "164905.093000", "164905.093000", "164905.093000", "164905.093000", "164905.109000", "164905.109000", "164905.109000", "164905.109000", "164905.109000", "164905.109000", "164905.109000", "164905.125000", "164905.125000", "164905.125000", "164905.125000", "164905.125000", "164905.125000", "164905.125000", "164905.140000", "164905.140000", "164905.140000", "164905.140000", "164905.140000", "164905.140000", "164905.140000", "164905.156000", "164905.156000", "164905.156000", "165005.093000", "165005.093000", "165005.093000", "165005.093000", "165005.109000", "165005.109000", "165005.109000", "165005.109000", "165005.109000", "165005.109000", "165005.125000", "165005.125000", "165005.125000", "165005.125000", "165005.125000", "165005.125000", "165005.125000", "165005.140000", "165005.140000", "165005.140000", "165005.140000", "165005.140000", "165005.140000", "165005.140000", "165005.156000", "165005.156000", "165005.156000", "165005.156000", "165105.093000", "165105.093000", "165105.093000", "165105.093000", "165105.109000", "165105.109000", "165105.109000", "165105.109000", "165105.125000", "165105.125000", "165105.125000", "165105.125000", "165105.125000", "165105.125000", "165105.125000", "165105.140000", "165105.140000", "165105.140000", "165105.140000", "165105.140000", "165105.140000", "165105.140000", "165105.156000", "165105.156000", "165105.156000", "165105.156000", "165105.156000", "165105.156000", "165205.093000", "165205.093000", "165205.093000", "165205.109000", "165205.109000", "165205.109000", "165205.109000", "165205.125000", "165205.125000", "165205.125000", "165205.125000", "165205.125000", "165205.125000", "165205.125000", "165205.140000", "165205.140000", "165205.140000", "165205.140000", "165205.140000", "165205.140000", "165205.156000", "165205.156000", "165205.156000", "165205.156000", "165205.156000", "165205.156000", "165205.171000", "165243.625000", "165243.640000", "165243.640000", "165243.640000", "165243.640000", "165243.640000", "165243.656000", "165243.656000", "165243.656000", "165243.656000", "165243.656000", "165243.656000", "165243.656000", "165243.671000", "165243.671000", "165243.671000", "165243.671000", "165243.671000", "165243.671000"],
      "DataSetTrailingPadding": [
        "\u0000\u0000\u0000\u0000\u0000\u0000\u0000\u0000\u0000\u0000\u0000\u0000\u0000\u0000\u0000\u0000\u0000\u0000\u0000\u0000\u0000\u0000\u0000\u0000\u0000\u0000\u0000\u0000\u0000\u0000\u0000\u0000\u0000\u0000\u0000\u0000\u0000\u0000\u0000\u0000\u0000\u0000\u0000\u0000\u0000\u0000\u0000\u0000\u0000\u0000\u0000\u0000\u0000\u0000\u0000\u0000\u0000\u0000\u0000\u0000\u0000\u0000\u0000\u0000\u0000\u0000\u0000\u0000\u0000\u0000\u0000\u0000\u0000\u0000\u0000\u0000\u0000\u0000\u0000\u0000\u0000\u0000\u0000\u0000\u0000\u0000\u0000\u0000\u0000\u0000\u0000\u0000\u0000\u0000\u0000\u0000\u0000\u0000\u0000\u0000\u0000\u0000\u0000\u0000\u0000\u0000\u0000\u0000\u0000\u0000\u0000\u0000\u0000\u0000\u0000\u0000\u0000\u0000\u0000\u0000\u0000\u0000\u0000\u0000\u0000\u0000\u0000\u0000\u0000\u0000\u0000\u0000\u0000\u0000\u0000\u0000\u0000\u0000\u0000\u0000\u0000\u0000\u0000\u0000\u0000\u0000\u0000\u0000\u0000\u0000\u0000\u0000\u0000\u0000\u0000\u0000\u0000\u0000\u0000\u0000\u0000\u0000\u0000\u0000\u0000\u0000\u0000\u0000\u0000\u0000\u0000\u0000\u0000\u0000\u0000\u0000\u0000\u0000\u0000\u0000\u0000\u0000\u0000\u0000\u0000\u0000\u0000\u0000\u0000\u0000\u0000\u0000\u0000\u0000\u0000\u0000\u0000\u0000\u0000\u0000\u0000\u0000\u0000\u0000\u0000\u0000\u0000\u0000\u0000\u0000\u0000\u0000\u0000\u0000\u0000\u0000\u0000\u0000\u0000\u0000\u0000\u0000",
