{
  "AcquisitionMatrixPE": 104,
  "AcquisitionNumber": 1,
  "AcquisitionTime": "15:06:21.695000",
  "BandwidthPerPixelPhaseEncode": 13.935,
  "BaseResolution": 104,
  "CoilString": "C:HEA;HEP",
  "ConversionSoftware": "dcm2niix",
  "ConversionSoftwareVersion": "v1.0.20210317",
  "DerivedVendorReportedEchoSpacing": 0.000690017,
  "DeviceSerialNumber": "35450",
  "DwellTime": 2.5e-06,
  "EchoTime": 0.0348,
  "EffectiveEchoSpacing": 0.000690017,
  "FlipAngle": 55,
  "ImageComments": "Unaliased MB8/PE3 (remote)",
  "ImageOrientationPatientDICOM": [0.999722, 0.00932383, 0.0216481, -6.79189e-09, 0.918436, -0.395569],
  "ImageType": [
    "ORIGINAL",
    "PRIMARY",
    "M",
    "MB",
    "ND",
    "MOSAIC"
],
  "ImagingFrequency": 123.235,
  "InPlanePhaseEncodingDirectionDICOM": "COL",
  "InstitutionAddress": "Univeristy Ave. 197,Newark,North East,US,07102-1814",
  "InstitutionName": "RUBIC",
  "InstitutionalDepartmentName": "Department",
  "MRAcquisitionType": "2D",
  "MagneticFieldStrength": 3,
  "Manufacturer": "Siemens",
  "ManufacturersModelName": "TrioTim",
  "Modality": "MR",
  "MultibandAccelerationFactor": 8,
  "PartialFourier": 0.875,
  "PatientPosition": "HFS",
  "PercentPhaseFOV": 100,
  "PercentSampling": 100,
  "PhaseEncodingDirection": "j-",
  "PhaseEncodingSteps": 91,
  "PhaseResolution": 1,
  "PixelBandwidth": 1923,
  "ProcedureStepDescription": "Cole^Michael",
  "ProtocolName": "cmrr_mbep2d_bold_2mm_MB8_Task_8x",
  "PulseSequenceDetails": "%CustomerSeq%\\cmrr_mbep2d_bold",
  "ReceiveCoilName": "32Ch_Head",
  "ReconMatrixPE": 104,
  "RepetitionTime": 0.785,
  "SAR": 0.123727,
  "ScanOptions": "PFP\\FS",
  "ScanningSequence": "EP",
  "SequenceName": "epfid2d1_104",
  "SequenceVariant": "SK\\SS",
  "SeriesDescription": "cmrr_mbep2d_bold_2mm_MB8_Task_8x",
  "SeriesNumber": 23,
  "ShimSetting": [2138, -300, -7257, 491, -126, -497, -3, 3],
  "SliceThickness": 2,
  "SliceTiming": [0, 0.4375, 0.0875, 0.525, 0.175, 0.6125, 0.2625, 0.7, 0.35, 0, 0.4375, 0.0875, 0.525, 0.175, 0.6125, 0.2625, 0.7, 0.35, 0, 0.4375, 0.0875, 0.525, 0.175, 0.6125, 0.2625, 0.7, 0.35, 0, 0.4375, 0.0875, 0.525, 0.175, 0.6125, 0.2625, 0.7, 0.35, 0, 0.4375, 0.0875, 0.525, 0.175, 0.6125, 0.2625, 0.7, 0.35, 0, 0.4375, 0.0875, 0.525, 0.175, 0.6125, 0.2625, 0.7, 0.35, 0, 0.4375, 0.0875, 0.525, 0.175, 0.6125, 0.2625, 0.7, 0.35, 0, 0.4375, 0.0875, 0.525, 0.175, 0.6125, 0.2625, 0.7, 0.35],
  "SoftwareVersions": "syngo MR B19",
  "SpacingBetweenSlices": 2,
  "StationName": "MRC35450",
  "TaskName": "cpro",
  "TotalReadoutTime": 0.0710717,
  "TxRefAmp": 330.704,
  "dcmmeta_affine": [
    [-1.9994443655014038, -1.3583782099146902e-08, 0.04714132100343704, 103.60768127441406],
    [-0.018647652119398117, 1.8368725776672363, -0.7909179925918579, -56.409793853759766],
    [0.043296296149492264, 0.7911378145217896, 1.8363622426986694, -146.95257568359375],
    [0.0, 0.0, 0.0, 1.0]
],
  "dcmmeta_reorient_transform": [
    [0.0, -1.0, 0.0, 103.0],
    [1.0, 0.0, 0.0, 0.0],
    [0.0, 0.0, 1.0, 0.0],
    [0.0, 0.0, 0.0, 1.0]
],
  "dcmmeta_shape": [104, 104, 72, 581],
  "dcmmeta_slice_dim": 2,
  "dcmmeta_version": 0.6,
  "global": {
    "const": {
      "AcquisitionMatrix": [104, 0, 0, 104],
      "AngioFlag": "N",
      "BitsAllocated": 16,
      "BitsStored": 12,
      "Columns": 936,
      "EchoNumbers": 1,
      "EchoTime": 34.8,
      "EchoTrainLength": 1,
      "FlipAngle": 55.0,
      "HighBit": 11,
      "ImageOrientationPatient": [0.99972217338402, 0.00932382652313, 0.02164814780285, -6.791891e-09, 0.91843630493256, -0.3955688989062],
      "ImagePositionPatient": [-935.37652270521, -904.68451606254, 245.63668124803],
      "ImageType": [
        "ORIGINAL",
        "PRIMARY",
        "M",
        "MB",
        "ND",
        "MOSAIC"
],
      "ImagedNucleus": "1H",
      "ImagingFrequency": 123.234506,
      "InPlanePhaseEncodingDirection": "COL",
      "MRAcquisitionType": "2D",
      "MagneticFieldStrength": 3.0,
      "Manufacturer": "SIEMENS",
      "ManufacturerModelName": "TrioTim",
      "Modality": "MR",
      "NumberOfAverages": 1.0,
      "NumberOfPhaseEncodingSteps": 91,
      "PercentPhaseFieldOfView": 100.0,
      "PercentSampling": 100.0,
      "PerformedProcedureStepStartTime": "131805.812000",
      "PhotometricInterpretation": "MONOCHROME2",
      "PixelBandwidth": 1923.0,
      "PixelRepresentation": 0,
      "PixelSpacing": [2.0, 2.0],
      "ProtocolName": "cmrr_mbep2d_bold_2mm_MB8_Task_8x",
      "RepetitionTime": 785.0,
      "Rows": 936,
      "SAR": 0.12372655592324,
      "SamplesPerPixel": 1,
      "ScanOptions": [
        "PFP",
        "FS"
],
      "ScanningSequence": "EP",
      "SequenceName": "epfid2d1_104",
      "SequenceVariant": [
        "SK",
        "SS"
],
      "SeriesDescription": "cmrr_mbep2d_bold_2mm_MB8_Task_8x",
      "SeriesNumber": 23,
      "SeriesTime": "150656.000000",
      "SliceLocation": -110.1792229367,
      "SliceThickness": 2.0,
      "SmallestImagePixelValue": 0,
      "SoftwareVersions": "syngo MR B19",
      "SpacingBetweenSlices": 1.999999962605,
      "SpecificCharacterSet": "ISO_IR 100",
      "StudyID": "1",
      "StudyTime": "131805.781000",
      "TransmitCoilName": "Body",
      "VariableFlipAngleFlag": "N",
      "WindowCenterWidthExplanation": "Algo1",
      "dBdt": 0.0},
    "slices": {}
  },
  "time": {
    "samples": {
      "AcquisitionNumber": [1, 2, 3, 4, 5, 6, 7, 8, 9, 10, 11, 12, 13, 14, 15, 16, 17, 18, 19, 20, 21, 22, 23, 24, 25, 26, 27, 28, 29, 30, 31, 32, 33, 34, 35, 36, 37, 38, 39, 40, 41, 42, 43, 44, 45, 46, 47, 48, 49, 50, 51, 52, 53, 54, 55, 56, 57, 58, 59, 60, 61, 62, 63, 64, 65, 66, 67, 68, 69, 70, 71, 72, 73, 74, 75, 76, 77, 78, 79, 80, 81, 82, 83, 84, 85, 86, 87, 88, 89, 90, 91, 92, 93, 94, 95, 96, 97, 98, 99, 100, 101, 102, 103, 104, 105, 106, 107, 108, 109, 110, 111, 112, 113, 114, 115, 116, 117, 118, 119, 120, 121, 122, 123, 124, 125, 126, 127, 128, 129, 130, 131, 132, 133, 134, 135, 136, 137, 138, 139, 140, 141, 142, 143, 144, 145, 146, 147, 148, 149, 150, 151, 152, 153, 154, 155, 156, 157, 158, 159, 160, 161, 162, 163, 164, 165, 166, 167, 168, 169, 170, 171, 172, 173, 174, 175, 176, 177, 178, 179, 180, 181, 182, 183, 184, 185, 186, 187, 188, 189, 190, 191, 192, 193, 194, 195, 196, 197, 198, 199, 200, 201, 202, 203, 204, 205, 206, 207, 208, 209, 210, 211, 212, 213, 214, 215, 216, 217, 218, 219, 220, 221, 222, 223, 224, 225, 226, 227, 228, 229, 230, 231, 232, 233, 234, 235, 236, 237, 238, 239, 240, 241, 242, 243, 244, 245, 246, 247, 248, 249, 250, 251, 252, 253, 254, 255, 256, 257, 258, 259, 260, 261, 262, 263, 264, 265, 266, 267, 268, 269, 270, 271, 272, 273, 274, 275, 276, 277, 278, 279, 280, 281, 282, 283, 284, 285, 286, 287, 288, 289, 290, 291, 292, 293, 294, 295, 296, 297, 298, 299, 300, 301, 302, 303, 304, 305, 306, 307, 308, 309, 310, 311, 312, 313, 314, 315, 316, 317, 318, 319, 320, 321, 322, 323, 324, 325, 326, 327, 328, 329, 330, 331, 332, 333, 334, 335, 336, 337, 338, 339, 340, 341, 342, 343, 344, 345, 346, 347, 348, 349, 350, 351, 352, 353, 354, 355, 356, 357, 358, 359, 360, 361, 362, 363, 364, 365, 366, 367, 368, 369, 370, 371, 372, 373, 374, 375, 376, 377, 378, 379, 380, 381, 382, 383, 384, 385, 386, 387, 388, 389, 390, 391, 392, 393, 394, 395, 396, 397, 398, 399, 400, 401, 402, 403, 404, 405, 406, 407, 408, 409, 410, 411, 412, 413, 414, 415, 416, 417, 418, 419, 420, 421, 422, 423, 424, 425, 426, 427, 428, 429, 430, 431, 432, 433, 434, 435, 436, 437, 438, 439, 440, 441, 442, 443, 444, 445, 446, 447, 448, 449, 450, 451, 452, 453, 454, 455, 456, 457, 458, 459, 460, 461, 462, 463, 464, 465, 466, 467, 468, 469, 470, 471, 472, 473, 474, 475, 476, 477, 478, 479, 480, 481, 482, 483, 484, 485, 486, 487, 488, 489, 490, 491, 492, 493, 494, 495, 496, 497, 498, 499, 500, 501, 502, 503, 504, 505, 506, 507, 508, 509, 510, 511, 512, 513, 514, 515, 516, 517, 518, 519, 520, 521, 522, 523, 524, 525, 526, 527, 528, 529, 530, 531, 532, 533, 534, 535, 536, 537, 538, 539, 540, 541, 542, 543, 544, 545, 546, 547, 548, 549, 550, 551, 552, 553, 554, 555, 556, 557, 558, 559, 560, 561, 562, 563, 564, 565, 566, 567, 568, 569, 570, 571, 572, 573, 574, 575, 576, 577, 578, 579, 580, 581],
      "AcquisitionTime": ["150621.695000", "150622.482500", "150623.272500", "150624.060000", "150624.847500", "150625.637500", "150626.425000", "150627.212500", "150628.000000", "150628.790000", "150629.577500", "150630.365000", "150631.152500", "150631.942500", "150632.730000", "150633.517500", "150634.305000", "150635.095000", "150635.882500", "150636.670000", "150637.457500", "150638.247500", "150639.035000", "150639.822500", "150640.610000", "150641.400000", "150642.187500", "150642.975000", "150643.765000", "150644.552500", "150645.340000", "150646.127500", "150646.917500", "150647.705000", "150648.492500", "150649.280000", "150650.070000", "150650.857500", "150651.645000", "150652.432500", "150653.222500", "150654.010000", "150654.797500", "150655.585000", "150656.375000", "150657.162500", "150657.950000", "150658.737500", "150659.527500", "150700.315000", "150701.102500", "150701.892500", "150702.680000", "150703.467500", "150704.255000", "150705.045000", "150705.832500", "150706.620000", "150707.407500", "150708.197500", "150708.985000", "150709.772500", "150710.560000", "150711.350000", "150712.137500", "150712.925000", "150713.712500", "150714.502500", "150715.290000", "150716.077500", "150716.865000", "150717.655000", "150718.442500", "150719.230000", "150720.020000", "150720.807500", "150721.595000", "150722.382500", "150723.172500", "150723.960000", "150724.747500", "150725.535000", "150726.325000", "150727.112500", "150727.900000", "150728.687500", "150729.477500", "150730.265000", "150731.052500", "150731.840000", "150732.630000", "150733.417500", "150734.205000", "150734.992500", "150735.782500", "150736.570000", "150737.357500", "150738.147500", "150738.935000", "150739.722500", "150740.510000", "150741.300000", "150742.087500", "150742.875000", "150743.662500", "150744.452500", "150745.240000", "150746.027500", "150746.815000", "150747.605000", "150748.392500", "150749.180000", "150749.967500", "150750.757500", "150751.545000", "150752.332500", "150753.120000", "150753.910000", "150754.697500", "150755.485000", "150756.275000", "150757.062500", "150757.850000", "150758.637500", "150759.427500", "150800.215000", "150801.002500", "150801.790000", "150802.580000", "150803.367500", "150804.155000", "150804.942500", "150805.732500", "150806.520000", "150807.307500", "150808.095000", "150808.885000", "150809.672500", "150810.460000", "150811.247500", "150812.037500", "150812.825000", "150813.612500", "150814.402500", "150815.190000", "150815.977500", "150816.765000", "150817.555000", "150818.342500", "150819.130000", "150819.917500", "150820.707500", "150821.495000", "150822.282500", "150823.070000", "150823.860000", "150824.647500", "150825.435000", "150826.222500", "150827.012500", "150827.800000", "150828.587500", "150829.375000", "150830.165000", "150830.952500", "150831.740000", "150832.530000", "150833.317500", "150834.105000", "150834.892500", "150835.682500", "150836.470000", "150837.257500", "150838.045000", "150838.835000", "150839.622500", "150840.410000", "150841.197500", "150841.987500", "150842.775000", "150843.562500", "150844.350000", "150845.140000", "150845.927500", "150846.715000", "150847.502500", "150848.292500", "150849.080000", "150849.867500", "150850.657500", "150851.445000", "150852.232500", "150853.020000", "150853.810000", "150854.597500", "150855.385000", "150856.172500", "150856.962500", "150857.750000", "150858.537500", "150859.325000", "150900.115000", "150900.902500", "150901.690000", "150902.477500", "150903.267500", "150904.055000", "150904.842500", "150905.630000", "150906.420000", "150907.207500", "150907.995000", "150908.785000", "150909.572500", "150910.360000", "150911.147500", "150911.937500", "150912.725000", "150913.512500", "150914.300000", "150915.090000", "150915.877500", "150916.665000", "150917.452500", "150918.242500", "150919.030000", "150919.817500", "150920.605000", "150921.395000", "150922.182500", "150922.970000", "150923.757500", "150924.547500", "150925.335000", "150926.122500", "150926.912500", "150927.700000", "150928.487500", "150929.275000", "150930.065000", "150930.852500", "150931.640000", "150932.427500", "150933.217500", "150934.005000", "150934.792500", "150935.580000", "150936.370000", "150937.157500", "150937.945000", "150938.732500", "150939.522500", "150940.310000", "150941.097500", "150941.887500", "150942.675000", "150943.462500", "150944.250000", "150945.040000", "150945.827500", "150946.615000", "150947.402500", "150948.192500", "150948.980000", "150949.767500", "150950.555000", "150951.345000", "150952.132500", "150952.920000", "150953.707500", "150954.497500", "150955.285000", "150956.072500", "150956.860000", "150957.650000", "150958.437500", "150959.225000", "151000.015000", "151000.802500", "151001.590000", "151002.377500", "151003.167500", "151003.955000", "151004.742500", "151005.530000", "151006.320000", "151007.107500", "151007.895000", "151008.682500", "151009.472500", "151010.260000", "151011.047500", "151011.835000", "151012.625000", "151013.412500", "151014.200000", "151014.987500", "151015.777500", "151016.565000", "151017.352500", "151018.142500", "151018.930000", "151019.717500", "151020.505000", "151021.295000", "151022.082500", "151022.870000", "151023.657500", "151024.447500", "151025.235000", "151026.022500", "151026.810000", "151027.600000", "151028.387500", "151029.175000", "151029.962500", "151030.752500", "151031.540000", "151032.327500", "151033.115000", "151033.905000", "151034.692500", "151035.480000", "151036.270000", "151037.057500", "151037.845000", "151038.632500", "151039.422500", "151040.210000", "151040.997500", "151041.785000", "151042.575000", "151043.362500", "151044.150000", "151044.937500", "151045.727500", "151046.515000", "151047.302500", "151048.090000", "151048.880000", "151049.667500", "151050.455000", "151051.242500", "151052.032500", "151052.820000", "151053.607500", "151054.397500", "151055.185000", "151055.972500", "151056.760000", "151057.550000", "151058.337500", "151059.125000", "151059.912500", "151100.702500", "151101.490000", "151102.277500", "151103.065000", "151103.855000", "151104.642500", "151105.430000", "151106.217500", "151107.007500", "151107.795000", "151108.582500", "151109.370000", "151110.160000", "151110.947500", "151111.735000", "151112.525000", "151113.312500", "151114.100000", "151114.887500", "151115.677500", "151116.465000", "151117.252500", "151118.040000", "151118.830000", "151119.617500", "151120.405000", "151121.192500", "151121.982500", "151122.770000", "151123.557500", "151124.345000", "151125.135000", "151125.922500", "151126.710000", "151127.497500", "151128.287500", "151129.075000", "151129.862500", "151130.652500", "151131.440000", "151132.227500", "151133.015000", "151133.805000", "151134.592500", "151135.380000", "151136.167500", "151136.957500", "151137.745000", "151138.532500", "151139.320000", "151140.110000", "151140.897500", "151141.685000", "151142.472500", "151143.262500", "151144.050000", "151144.837500", "151145.625000", "151146.415000", "151147.202500", "151147.990000", "151148.780000", "151149.567500", "151150.355000", "151151.142500", "151151.932500", "151152.720000", "151153.507500", "151154.295000", "151155.085000", "151155.872500", "151156.660000", "151157.447500", "151158.237500", "151159.025000", "151159.812500", "151200.600000", "151201.390000", "151202.177500", "151202.965000", "151203.752500", "151204.542500", "151205.330000", "151206.117500", "151206.907500", "151207.695000", "151208.482500", "151209.270000", "151210.060000", "151210.847500", "151211.635000", "151212.422500", "151213.212500", "151214.000000", "151214.787500", "151215.575000", "151216.365000", "151217.152500", "151217.940000", "151218.727500", "151219.517500", "151220.305000", "151221.092500", "151221.880000", "151222.670000", "151223.457500", "151224.245000", "151225.035000", "151225.822500", "151226.610000", "151227.397500", "151228.187500", "151228.975000", "151229.762500", "151230.550000", "151231.340000", "151232.127500", "151232.915000", "151233.702500", "151234.492500", "151235.280000", "151236.067500", "151236.855000", "151237.645000", "151238.432500", "151239.220000", "151240.007500", "151240.797500", "151241.585000", "151242.372500", "151243.162500", "151243.950000", "151244.737500", "151245.525000", "151246.315000", "151247.102500", "151247.890000", "151248.677500", "151249.467500", "151250.255000", "151251.042500", "151251.830000", "151252.620000", "151253.407500", "151254.195000", "151254.982500", "151255.772500", "151256.560000", "151257.347500", "151258.137500", "151258.925000", "151259.712500", "151300.500000", "151301.290000", "151302.077500", "151302.865000", "151303.652500", "151304.442500", "151305.230000", "151306.017500", "151306.805000", "151307.595000", "151308.382500", "151309.170000", "151309.957500", "151310.747500", "151311.535000", "151312.322500", "151313.110000", "151313.900000", "151314.687500", "151315.475000", "151316.265000", "151317.052500", "151317.840000", "151318.627500", "151319.417500", "151320.205000", "151320.992500", "151321.780000", "151322.570000", "151323.357500", "151324.145000", "151324.932500", "151325.722500", "151326.510000", "151327.297500", "151328.085000", "151328.875000", "151329.662500", "151330.450000", "151331.237500", "151332.027500", "151332.815000", "151333.602500", "151334.392500", "151335.180000", "151335.967500", "151336.755000", "151337.545000", "151338.332500", "151339.120000", "151339.907500", "151340.697500", "151341.485000", "151342.272500", "151343.060000", "151343.850000", "151344.637500", "151345.425000", "151346.212500", "151347.002500", "151347.790000", "151348.577500", "151349.365000", "151350.155000", "151350.942500", "151351.730000", "151352.520000", "151353.307500", "151354.095000", "151354.882500", "151355.672500", "151356.460000", "151357.247500", "151358.035000", "151358.825000"],
      "ContentTime": ["150656.000000", "150656.000000", "150656.000000", "150656.000000", "150656.015000", "150656.015000", "150656.015000", "150656.015000", "150656.015000", "150656.015000", "150656.015000", "150656.015000", "150656.031000", "150656.031000", "150656.031000", "150656.031000", "150656.031000", "150656.031000", "150656.031000", "150656.046000", "150656.046000", "150656.046000", "150656.046000", "150656.046000", "150656.046000", "150656.046000", "150656.046000", "150656.062000", "150656.062000", "150656.062000", "150656.062000", "150656.062000", "150656.062000", "150656.062000", "150656.062000", "150656.078000", "150656.078000", "150656.078000", "150656.078000", "150656.078000", "150715.968000", "150715.984000", "150715.984000", "150715.984000", "150715.984000", "150715.984000", "150715.984000", "150715.984000", "150715.984000", "150716.000000", "150716.000000", "150716.000000", "150716.000000", "150716.000000", "150716.000000", "150716.000000", "150716.000000", "150716.015000", "150716.015000", "150716.015000", "150716.015000", "150716.015000", "150716.015000", "150716.015000", "150716.031000", "150735.968000", "150735.984000", "150735.984000", "150735.984000", "150735.984000", "150735.984000", "150735.984000", "150735.984000", "150735.984000", "150736.000000", "150736.000000", "150736.000000", "150736.000000", "150736.000000", "150736.000000", "150736.000000", "150736.000000", "150736.015000", "150736.015000", "150736.015000", "150736.015000", "150736.015000", "150736.015000", "150736.015000", "150736.015000", "150736.031000", "150755.968000", "150755.984000", "150755.984000", "150755.984000", "150755.984000", "150755.984000", "150755.984000", "150755.984000", "150755.984000", "150756.000000", "150756.000000", "150756.000000", "150756.000000", "150756.000000", "150756.000000", "150756.000000", "150756.000000", "150756.015000", "150756.015000", "150756.015000", "150756.015000", "150756.015000", "150756.015000", "150756.015000", "150756.015000", "150815.968000", "150815.984000", "150815.984000", "150815.984000", "150815.984000", "150815.984000", "150815.984000", "150815.984000", "150815.984000", "150816.000000", "150816.000000", "150816.000000", "150816.000000", "150816.000000", "150816.000000", "150816.000000", "150816.000000", "150816.015000", "150816.015000", "150816.015000", "150816.015000", "150816.015000", "150816.015000", "150816.015000", "150816.015000", "150816.031000", "150835.968000", "150835.984000", "150835.984000", "150835.984000", "150835.984000", "150835.984000", "150835.984000", "150835.984000", "150835.984000", "150836.000000", "150836.000000", "150836.000000", "150836.000000", "150836.000000", "150836.000000", "150836.000000", "150836.000000", "150836.015000", "150836.015000", "150836.015000", "150836.015000", "150836.015000", "150836.015000", "150836.015000", "150836.015000", "150855.968000", "150855.984000", "150855.984000", "150855.984000", "150855.984000", "150855.984000", "150855.984000", "150855.984000", "150855.984000", "150856.000000", "150856.000000", "150856.000000", "150856.000000", "150856.000000", "150856.000000", "150856.000000", "150856.015000", "150856.015000", "150856.015000", "150856.015000", "150856.015000", "150856.015000", "150856.015000", "150856.015000", "150856.031000", "150856.031000", "150915.968000", "150915.984000", "150915.984000", "150915.984000", "150915.984000", "150915.984000", "150915.984000", "150915.984000", "150915.984000", "150916.000000", "150916.000000", "150916.000000", "150916.000000", "150916.000000", "150916.000000", "150916.000000", "150916.000000", "150916.015000", "150916.015000", "150916.015000", "150916.015000", "150916.015000", "150916.015000", "150916.015000", "150916.031000", "150935.968000", "150935.984000", "150935.984000", "150935.984000", "150935.984000", "150935.984000", "150935.984000", "150935.984000", "150935.984000", "150936.000000", "150936.000000", "150936.000000", "150936.000000", "150936.000000", "150936.000000", "150936.000000", "150936.000000", "150936.015000", "150936.015000", "150936.015000", "150936.015000", "150936.015000", "150936.015000", "150936.015000", "150936.031000", "150936.031000", "150955.968000", "150955.984000", "150955.984000", "150955.984000", "150955.984000", "150955.984000", "150955.984000", "150955.984000", "150955.984000", "150956.000000", "150956.000000", "150956.000000", "150956.000000", "150956.000000", "150956.000000", "150956.000000", "150956.000000", "150956.015000", "150956.015000", "150956.015000", "150956.015000", "150956.015000", "150956.015000", "150956.015000", "150956.031000", "151015.968000", "151015.984000", "151015.984000", "151015.984000", "151015.984000", "151015.984000", "151015.984000", "151015.984000", "151015.984000", "151016.000000", "151016.000000", "151016.000000", "151016.000000", "151016.000000", "151016.000000", "151016.000000", "151016.000000", "151016.015000", "151016.015000", "151016.015000", "151016.015000", "151016.015000", "151016.015000", "151016.015000", "151016.031000", "151016.031000", "151035.968000", "151035.984000", "151035.984000", "151035.984000", "151035.984000", "151035.984000", "151035.984000", "151035.984000", "151035.984000", "151036.000000", "151036.000000", "151036.000000", "151036.000000", "151036.000000", "151036.000000", "151036.000000", "151036.000000", "151036.015000", "151036.015000", "151036.015000", "151036.015000", "151036.015000", "151036.015000", "151036.015000", "151036.031000", "151055.968000", "151055.984000", "151055.984000", "151055.984000", "151055.984000", "151055.984000", "151055.984000", "151055.984000", "151055.984000", "151056.000000", "151056.000000", "151056.000000", "151056.000000", "151056.000000", "151056.000000", "151056.000000", "151056.000000", "151056.015000", "151056.015000", "151056.015000", "151056.015000", "151056.015000", "151056.031000", "151056.031000", "151056.031000", "151056.031000", "151115.968000", "151115.984000", "151115.984000", "151115.984000", "151115.984000", "151115.984000", "151115.984000", "151115.984000", "151115.984000", "151116.000000", "151116.000000", "151116.000000", "151116.000000", "151116.000000", "151116.000000", "151116.000000", "151116.015000", "151116.015000", "151116.015000", "151116.015000", "151116.015000", "151116.015000", "151116.015000", "151116.015000", "151116.031000", "151135.968000", "151135.984000", "151135.984000", "151135.984000", "151135.984000", "151135.984000", "151135.984000", "151135.984000", "151135.984000", "151136.000000", "151136.000000", "151136.000000", "151136.000000", "151136.000000", "151136.000000", "151136.000000", "151136.000000", "151136.015000", "151136.015000", "151136.015000", "151136.015000", "151136.015000", "151136.015000", "151136.015000", "151136.031000", "151136.031000", "151155.968000", "151155.984000", "151155.984000", "151155.984000", "151155.984000", "151155.984000", "151155.984000", "151155.984000", "151155.984000", "151156.000000", "151156.000000", "151156.000000", "151156.000000", "151156.000000", "151156.000000", "151156.000000", "151156.015000", "151156.015000", "151156.015000", "151156.015000", "151156.015000", "151156.015000", "151156.015000", "151156.015000", "151156.031000", "151215.968000", "151215.984000", "151215.984000", "151215.984000", "151215.984000", "151215.984000", "151215.984000", "151215.984000", "151216.000000", "151216.000000", "151216.000000", "151216.000000", "151216.000000", "151216.000000", "151216.000000", "151216.000000", "151216.015000", "151216.015000", "151216.015000", "151216.015000", "151216.015000", "151216.015000", "151216.015000", "151216.031000", "151216.031000", "151216.031000", "151235.968000", "151235.984000", "151235.984000", "151235.984000", "151235.984000", "151235.984000", "151236.000000", "151236.000000", "151236.000000", "151236.000000", "151236.000000", "151236.000000", "151236.000000", "151236.015000", "151236.015000", "151236.015000", "151236.015000", "151236.015000", "151236.015000", "151236.015000", "151236.015000", "151236.031000", "151236.031000", "151236.031000", "151236.031000", "151255.968000", "151255.984000", "151255.984000", "151255.984000", "151255.984000", "151255.984000", "151255.984000", "151255.984000", "151255.984000", "151256.000000", "151256.000000", "151256.000000", "151256.000000", "151256.000000", "151256.000000", "151256.000000", "151256.000000", "151256.015000", "151256.015000", "151256.015000", "151256.015000", "151256.015000", "151256.015000", "151256.015000", "151256.015000", "151256.031000", "151315.968000", "151315.984000", "151315.984000", "151315.984000", "151315.984000", "151315.984000", "151315.984000", "151315.984000", "151315.984000", "151316.000000", "151316.000000", "151316.000000", "151316.000000", "151316.000000", "151316.000000", "151316.000000", "151316.015000", "151316.015000", "151316.015000", "151316.015000", "151316.015000", "151316.015000", "151316.015000", "151316.015000", "151316.031000", "151335.968000", "151335.984000", "151335.984000", "151335.984000", "151335.984000", "151335.984000", "151335.984000", "151335.984000", "151335.984000", "151336.000000", "151336.000000", "151336.000000", "151336.000000", "151336.000000", "151336.000000", "151336.000000", "151336.000000", "151336.015000", "151336.015000", "151336.015000", "151336.015000", "151336.015000", "151336.015000", "151336.015000", "151336.031000", "151336.031000", "151355.968000", "151355.984000", "151355.984000", "151355.984000", "151355.984000", "151355.984000", "151355.984000", "151355.984000", "151355.984000", "151356.000000", "151356.000000", "151356.000000", "151356.000000", "151356.000000", "151356.000000", "151356.000000", "151356.015000", "151356.015000", "151356.015000", "151356.015000", "151356.015000", "151356.015000", "151356.015000", "151356.015000", "151356.031000", "151400.312000", "151400.312000", "151400.312000", "151400.312000", "151400.328000", "151400.328000"],
