{
  "AcquisitionMatrixPE": 104,
  "AcquisitionNumber": 1,
  "AcquisitionTime": "14:45:57.722500",
  "BandwidthPerPixelPhaseEncode": 13.935,
  "BaseResolution": 104,
  "CoilString": "C:HEA;HEP",
  "ConversionSoftware": "dcm2niix",
  "ConversionSoftwareVersion": "v1.0.20210317",
  "DerivedVendorReportedEchoSpacing": 0.000690017,
  "DeviceSerialNumber": "35450",
  "DwellTime": 2.5e-06,
  "EchoTime": 0.0348,
  "EffectiveEchoSpacing": 0.000690017,
  "FlipAngle": 55,
  "ImageComments": "Unaliased MB8/PE3 (remote)",
  "ImageOrientationPatientDICOM": [1, 0, 0, 0, 0.990024, -0.140901],
  "ImageType": [
    "ORIGINAL",
    "PRIMARY",
    "M",
    "MB",
    "ND",
    "MOSAIC"
],
  "ImagingFrequency": 123.235,
  "InPlanePhaseEncodingDirectionDICOM": "COL",
  "InstitutionAddress": "Univeristy Ave. 197,Newark,North East,US,07102-1814",
  "InstitutionName": "RUBIC",
  "InstitutionalDepartmentName": "Department",
  "MRAcquisitionType": "2D",
  "MagneticFieldStrength": 3,
  "Manufacturer": "Siemens",
  "ManufacturersModelName": "TrioTim",
  "Modality": "MR",
  "MultibandAccelerationFactor": 8,
  "PartialFourier": 0.875,
  "PatientPosition": "HFS",
  "PercentPhaseFOV": 100,
  "PercentSampling": 100,
  "PhaseEncodingDirection": "j-",
  "PhaseEncodingSteps": 91,
  "PhaseResolution": 1,
  "PixelBandwidth": 1923,
  "ProcedureStepDescription": "Cole^Michael",
  "ProtocolName": "cmrr_mbep2d_bold_2mm_MB8_Task_8x",
  "PulseSequenceDetails": "%CustomerSeq%\\cmrr_mbep2d_bold",
  "ReceiveCoilName": "32Ch_Head",
  "ReconMatrixPE": 104,
  "RepetitionTime": 0.785,
  "SAR": 0.112743,
  "ScanOptions": "PFP\\FS",
  "ScanningSequence": "EP",
  "SequenceName": "epfid2d1_104",
  "SequenceVariant": "SK\\SS",
  "SeriesDescription": "cmrr_mbep2d_bold_2mm_MB8_Task_8x",
  "SeriesNumber": 17,
  "ShimSetting": [2139, -400, -7204, 318, -61, -177, 4, -87],
  "SliceThickness": 2,
  "SliceTiming": [0, 0.4375, 0.0875, 0.525, 0.175, 0.6125, 0.2625, 0.7, 0.35, 0, 0.4375, 0.0875, 0.525, 0.175, 0.6125, 0.2625, 0.7, 0.35, 0, 0.4375, 0.0875, 0.525, 0.175, 0.6125, 0.2625, 0.7, 0.35, 0, 0.4375, 0.0875, 0.525, 0.175, 0.6125, 0.2625, 0.7, 0.35, 0, 0.4375, 0.0875, 0.525, 0.175, 0.6125, 0.2625, 0.7, 0.35, 0, 0.4375, 0.0875, 0.525, 0.175, 0.6125, 0.2625, 0.7, 0.35, 0, 0.4375, 0.0875, 0.525, 0.175, 0.6125, 0.2625, 0.7, 0.35, 0, 0.4375, 0.0875, 0.525, 0.175, 0.6125, 0.2625, 0.7, 0.35],
  "SoftwareVersions": "syngo MR B19",
  "SpacingBetweenSlices": 2,
  "StationName": "MRC35450",
  "TaskName": "cpro",
  "TotalReadoutTime": 0.0710717,
  "TxRefAmp": 319.515,
  "dcmmeta_affine": [
    [-2.0, 0.0, 0.0, 100.61016845703125],
    [0.0, 1.980047345161438, -0.2818024754524231, -76.82847595214844],
    [0.0, 0.2818024754524231, 1.980047345161438, -105.8349609375],
    [0.0, 0.0, 0.0, 1.0]
],
  "dcmmeta_reorient_transform": [
    [0.0, -1.0, 0.0, 103.0],
    [1.0, 0.0, 0.0, 0.0],
    [0.0, 0.0, 1.0, 0.0],
    [0.0, 0.0, 0.0, 1.0]
],
  "dcmmeta_shape": [104, 104, 72, 581],
  "dcmmeta_slice_dim": 2,
  "dcmmeta_version": 0.6,
  "global": {
    "const": {
      "AcquisitionMatrix": [104, 0, 0, 104],
      "AngioFlag": "N",
      "BitsAllocated": 16,
      "BitsStored": 12,
      "Columns": 936,
      "EchoNumbers": 1,
      "EchoTime": 34.8,
      "EchoTrainLength": 1,
      "FlipAngle": 55.0,
      "HighBit": 11,
      "ImageOrientationPatient": [1.0, 0.0, 0.0, 0.0, 0.99002365739342, -0.1409012342081],
      "ImagePositionPatient": [-932.61016941071, -950.8160816137, 40.420519635276],
      "ImageType": [
        "ORIGINAL",
        "PRIMARY",
        "M",
        "MB",
        "ND",
        "MOSAIC"
],
      "ImagedNucleus": "1H",
      "ImagingFrequency": 123.234512,
      "InPlanePhaseEncodingDirection": "COL",
      "MRAcquisitionType": "2D",
      "MagneticFieldStrength": 3.0,
      "Manufacturer": "SIEMENS",
      "ManufacturerModelName": "TrioTim",
      "Modality": "MR",
      "NumberOfAverages": 1.0,
      "NumberOfPhaseEncodingSteps": 91,
      "PercentPhaseFieldOfView": 100.0,
      "PercentSampling": 100.0,
      "PerformedProcedureStepStartTime": "133429.765000",
      "PhotometricInterpretation": "MONOCHROME2",
      "PixelBandwidth": 1923.0,
      "PixelRepresentation": 0,
      "PixelSpacing": [2.0, 2.0],
      "ProtocolName": "cmrr_mbep2d_bold_2mm_MB8_Task_8x",
      "RepetitionTime": 785.0,
      "Rows": 936,
      "SAR": 0.11274323485112,
      "SamplesPerPixel": 1,
      "ScanOptions": [
        "PFP",
        "FS"
],
      "ScanningSequence": "EP",
      "SequenceName": "epfid2d1_104",
      "SequenceVariant": [
        "SK",
        "SS"
],
      "SeriesDescription": "cmrr_mbep2d_bold_2mm_MB8_Task_8x",
      "SeriesNumber": 17,
      "SeriesTime": "144632.703000",
      "SliceLocation": -93.953888721211,
      "SliceThickness": 2.0,
      "SmallestImagePixelValue": 0,
      "SoftwareVersions": "syngo MR B19",
      "SpacingBetweenSlices": 1.99999999153,
      "SpecificCharacterSet": "ISO_IR 100",
      "StudyID": "1",
      "StudyTime": "133429.687000",
      "TransmitCoilName": "Body",
      "VariableFlipAngleFlag": "N",
      "WindowCenterWidthExplanation": "Algo1",
      "dBdt": 0.0},
    "slices": {}
  },
  "time": {
    "samples": {
      "AcquisitionNumber": [1, 2, 3, 4, 5, 6, 7, 8, 9, 10, 11, 12, 13, 14, 15, 16, 17, 18, 19, 20, 21, 22, 23, 24, 25, 26, 27, 28, 29, 30, 31, 32, 33, 34, 35, 36, 37, 38, 39, 40, 41, 42, 43, 44, 45, 46, 47, 48, 49, 50, 51, 52, 53, 54, 55, 56, 57, 58, 59, 60, 61, 62, 63, 64, 65, 66, 67, 68, 69, 70, 71, 72, 73, 74, 75, 76, 77, 78, 79, 80, 81, 82, 83, 84, 85, 86, 87, 88, 89, 90, 91, 92, 93, 94, 95, 96, 97, 98, 99, 100, 101, 102, 103, 104, 105, 106, 107, 108, 109, 110, 111, 112, 113, 114, 115, 116, 117, 118, 119, 120, 121, 122, 123, 124, 125, 126, 127, 128, 129, 130, 131, 132, 133, 134, 135, 136, 137, 138, 139, 140, 141, 142, 143, 144, 145, 146, 147, 148, 149, 150, 151, 152, 153, 154, 155, 156, 157, 158, 159, 160, 161, 162, 163, 164, 165, 166, 167, 168, 169, 170, 171, 172, 173, 174, 175, 176, 177, 178, 179, 180, 181, 182, 183, 184, 185, 186, 187, 188, 189, 190, 191, 192, 193, 194, 195, 196, 197, 198, 199, 200, 201, 202, 203, 204, 205, 206, 207, 208, 209, 210, 211, 212, 213, 214, 215, 216, 217, 218, 219, 220, 221, 222, 223, 224, 225, 226, 227, 228, 229, 230, 231, 232, 233, 234, 235, 236, 237, 238, 239, 240, 241, 242, 243, 244, 245, 246, 247, 248, 249, 250, 251, 252, 253, 254, 255, 256, 257, 258, 259, 260, 261, 262, 263, 264, 265, 266, 267, 268, 269, 270, 271, 272, 273, 274, 275, 276, 277, 278, 279, 280, 281, 282, 283, 284, 285, 286, 287, 288, 289, 290, 291, 292, 293, 294, 295, 296, 297, 298, 299, 300, 301, 302, 303, 304, 305, 306, 307, 308, 309, 310, 311, 312, 313, 314, 315, 316, 317, 318, 319, 320, 321, 322, 323, 324, 325, 326, 327, 328, 329, 330, 331, 332, 333, 334, 335, 336, 337, 338, 339, 340, 341, 342, 343, 344, 345, 346, 347, 348, 349, 350, 351, 352, 353, 354, 355, 356, 357, 358, 359, 360, 361, 362, 363, 364, 365, 366, 367, 368, 369, 370, 371, 372, 373, 374, 375, 376, 377, 378, 379, 380, 381, 382, 383, 384, 385, 386, 387, 388, 389, 390, 391, 392, 393, 394, 395, 396, 397, 398, 399, 400, 401, 402, 403, 404, 405, 406, 407, 408, 409, 410, 411, 412, 413, 414, 415, 416, 417, 418, 419, 420, 421, 422, 423, 424, 425, 426, 427, 428, 429, 430, 431, 432, 433, 434, 435, 436, 437, 438, 439, 440, 441, 442, 443, 444, 445, 446, 447, 448, 449, 450, 451, 452, 453, 454, 455, 456, 457, 458, 459, 460, 461, 462, 463, 464, 465, 466, 467, 468, 469, 470, 471, 472, 473, 474, 475, 476, 477, 478, 479, 480, 481, 482, 483, 484, 485, 486, 487, 488, 489, 490, 491, 492, 493, 494, 495, 496, 497, 498, 499, 500, 501, 502, 503, 504, 505, 506, 507, 508, 509, 510, 511, 512, 513, 514, 515, 516, 517, 518, 519, 520, 521, 522, 523, 524, 525, 526, 527, 528, 529, 530, 531, 532, 533, 534, 535, 536, 537, 538, 539, 540, 541, 542, 543, 544, 545, 546, 547, 548, 549, 550, 551, 552, 553, 554, 555, 556, 557, 558, 559, 560, 561, 562, 563, 564, 565, 566, 567, 568, 569, 570, 571, 572, 573, 574, 575, 576, 577, 578, 579, 580, 581],
      "AcquisitionTime": ["144557.722500", "144558.510000", "144559.300000", "144600.087500", "144600.875000", "144601.662500", "144602.452500", "144603.240000", "144604.027500", "144604.817500", "144605.605000", "144606.392500", "144607.180000", "144607.970000", "144608.757500", "144609.545000", "144610.332500", "144611.122500", "144611.910000", "144612.697500", "144613.485000", "144614.275000", "144615.062500", "144615.850000", "144616.637500", "144617.427500", "144618.215000", "144619.002500", "144619.790000", "144620.580000", "144621.367500", "144622.155000", "144622.945000", "144623.732500", "144624.520000", "144625.307500", "144626.097500", "144626.885000", "144627.672500", "144628.460000", "144629.250000", "144630.037500", "144630.825000", "144631.612500", "144632.402500", "144633.190000", "144633.977500", "144634.765000", "144635.555000", "144636.342500", "144637.130000", "144637.917500", "144638.707500", "144639.495000", "144640.282500", "144641.072500", "144641.860000", "144642.647500", "144643.435000", "144644.225000", "144645.012500", "144645.800000", "144646.587500", "144647.377500", "144648.165000", "144648.952500", "144649.740000", "144650.530000", "144651.317500", "144652.105000", "144652.892500", "144653.682500", "144654.470000", "144655.257500", "144656.045000", "144656.835000", "144657.622500", "144658.410000", "144659.200000", "144659.987500", "144700.775000", "144701.562500", "144702.352500", "144703.140000", "144703.927500", "144704.715000", "144705.505000", "144706.292500", "144707.080000", "144707.867500", "144708.657500", "144709.445000", "144710.232500", "144711.020000", "144711.810000", "144712.597500", "144713.385000", "144714.172500", "144714.962500", "144715.750000", "144716.537500", "144717.327500", "144718.115000", "144718.902500", "144719.690000", "144720.480000", "144721.267500", "144722.055000", "144722.842500", "144723.632500", "144724.420000", "144725.207500", "144725.995000", "144726.785000", "144727.572500", "144728.360000", "144729.147500", "144729.937500", "144730.725000", "144731.512500", "144732.300000", "144733.090000", "144733.877500", "144734.665000", "144735.455000", "144736.242500", "144737.030000", "144737.817500", "144738.607500", "144739.395000", "144740.182500", "144740.970000", "144741.760000", "144742.547500", "144743.335000", "144744.122500", "144744.912500", "144745.700000", "144746.487500", "144747.275000", "144748.065000", "144748.852500", "144749.640000", "144750.427500", "144751.217500", "144752.005000", "144752.792500", "144753.582500", "144754.370000", "144755.157500", "144755.945000", "144756.735000", "144757.522500", "144758.310000", "144759.097500", "144759.887500", "144800.675000", "144801.462500", "144802.250000", "144803.040000", "144803.827500", "144804.615000", "144805.402500", "144806.192500", "144806.980000", "144807.767500", "144808.555000", "144809.345000", "144810.132500", "144810.920000", "144811.710000", "144812.497500", "144813.285000", "144814.072500", "144814.862500", "144815.650000", "144816.437500", "144817.225000", "144818.015000", "144818.802500", "144819.590000", "144820.377500", "144821.167500", "144821.955000", "144822.742500", "144823.530000", "144824.320000", "144825.107500", "144825.895000", "144826.682500", "144827.472500", "144828.260000", "144829.047500", "144829.837500", "144830.625000", "144831.412500", "144832.200000", "144832.990000", "144833.777500", "144834.565000", "144835.352500", "144836.142500", "144836.930000", "144837.717500", "144838.505000", "144839.295000", "144840.082500", "144840.870000", "144841.657500", "144842.447500", "144843.235000", "144844.022500", "144844.812500", "144845.600000", "144846.387500", "144847.175000", "144847.965000", "144848.752500", "144849.540000", "144850.327500", "144851.117500", "144851.905000", "144852.692500", "144853.480000", "144854.270000", "144855.057500", "144855.845000", "144856.632500", "144857.422500", "144858.210000", "144858.997500", "144859.785000", "144900.575000", "144901.362500", "144902.150000", "144902.940000", "144903.727500", "144904.515000", "144905.302500", "144906.092500", "144906.880000", "144907.667500", "144908.455000", "144909.245000", "144910.032500", "144910.820000", "144911.607500", "144912.397500", "144913.185000", "144913.972500", "144914.760000", "144915.550000", "144916.337500", "144917.125000", "144917.912500", "144918.702500", "144919.490000", "144920.277500", "144921.067500", "144921.855000", "144922.642500", "144923.430000", "144924.220000", "144925.007500", "144925.795000", "144926.582500", "144927.372500", "144928.160000", "144928.947500", "144929.735000", "144930.525000", "144931.312500", "144932.100000", "144932.887500", "144933.677500", "144934.465000", "144935.252500", "144936.040000", "144936.830000", "144937.617500", "144938.405000", "144939.195000", "144939.982500", "144940.770000", "144941.557500", "144942.347500", "144943.135000", "144943.922500", "144944.710000", "144945.500000", "144946.287500", "144947.075000", "144947.862500", "144948.652500", "144949.440000", "144950.227500", "144951.015000", "144951.805000", "144952.592500", "144953.380000", "144954.167500", "144954.957500", "144955.745000", "144956.532500", "144957.322500", "144958.110000", "144958.897500", "144959.685000", "145000.475000", "145001.262500", "145002.050000", "145002.837500", "145003.627500", "145004.415000", "145005.202500", "145005.990000", "145006.780000", "145007.567500", "145008.355000", "145009.142500", "145009.932500", "145010.720000", "145011.507500", "145012.295000", "145013.085000", "145013.872500", "145014.660000", "145015.450000", "145016.237500", "145017.025000", "145017.812500", "145018.602500", "145019.390000", "145020.177500", "145020.965000", "145021.755000", "145022.542500", "145023.330000", "145024.117500", "145024.907500", "145025.695000", "145026.482500", "145027.270000", "145028.060000", "145028.847500", "145029.635000", "145030.422500", "145031.212500", "145032.000000", "145032.787500", "145033.577500", "145034.365000", "145035.152500", "145035.940000", "145036.730000", "145037.517500", "145038.305000", "145039.092500", "145039.882500", "145040.670000", "145041.457500", "145042.245000", "145043.035000", "145043.822500", "145044.610000", "145045.397500", "145046.187500", "145046.975000", "145047.762500", "145048.550000", "145049.340000", "145050.127500", "145050.915000", "145051.705000", "145052.492500", "145053.280000", "145054.067500", "145054.857500", "145055.645000", "145056.432500", "145057.220000", "145058.010000", "145058.797500", "145059.585000", "145100.372500", "145101.162500", "145101.950000", "145102.737500", "145103.525000", "145104.315000", "145105.102500", "145105.890000", "145106.677500", "145107.467500", "145108.255000", "145109.042500", "145109.832500", "145110.620000", "145111.407500", "145112.195000", "145112.985000", "145113.772500", "145114.560000", "145115.347500", "145116.137500", "145116.925000", "145117.712500", "145118.500000", "145119.290000", "145120.077500", "145120.865000", "145121.652500", "145122.442500", "145123.230000", "145124.017500", "145124.805000", "145125.595000", "145126.382500", "145127.170000", "145127.960000", "145128.747500", "145129.535000", "145130.322500", "145131.112500", "145131.900000", "145132.687500", "145133.475000", "145134.265000", "145135.052500", "145135.840000", "145136.627500", "145137.417500", "145138.205000", "145138.992500", "145139.780000", "145140.570000", "145141.357500", "145142.145000", "145142.932500", "145143.722500", "145144.510000", "145145.297500", "145146.087500", "145146.875000", "145147.662500", "145148.450000", "145149.240000", "145150.027500", "145150.815000", "145151.602500", "145152.392500", "145153.180000", "145153.967500", "145154.755000", "145155.545000", "145156.332500", "145157.120000", "145157.907500", "145158.697500", "145159.485000", "145200.272500", "145201.062500", "145201.850000", "145202.637500", "145203.425000", "145204.215000", "145205.002500", "145205.790000", "145206.577500", "145207.367500", "145208.155000", "145208.942500", "145209.730000", "145210.520000", "145211.307500", "145212.095000", "145212.882500", "145213.672500", "145214.460000", "145215.247500", "145216.035000", "145216.825000", "145217.612500", "145218.400000", "145219.190000", "145219.977500", "145220.765000", "145221.552500", "145222.342500", "145223.130000", "145223.917500", "145224.705000", "145225.495000", "145226.282500", "145227.070000", "145227.857500", "145228.647500", "145229.435000", "145230.222500", "145231.010000", "145231.800000", "145232.587500", "145233.375000", "145234.162500", "145234.952500", "145235.740000", "145236.527500", "145237.317500", "145238.105000", "145238.892500", "145239.680000", "145240.470000", "145241.257500", "145242.045000", "145242.832500", "145243.622500", "145244.410000", "145245.197500", "145245.985000", "145246.775000", "145247.562500", "145248.350000", "145249.137500", "145249.927500", "145250.715000", "145251.502500", "145252.290000", "145253.080000", "145253.867500", "145254.655000", "145255.445000", "145256.232500", "145257.020000", "145257.807500", "145258.597500", "145259.385000", "145300.172500", "145300.960000", "145301.750000", "145302.537500", "145303.325000", "145304.112500", "145304.902500", "145305.690000", "145306.477500", "145307.265000", "145308.055000", "145308.842500", "145309.630000", "145310.417500", "145311.207500", "145311.995000", "145312.782500", "145313.572500", "145314.360000", "145315.147500", "145315.935000", "145316.725000", "145317.512500", "145318.300000", "145319.087500", "145319.877500", "145320.665000", "145321.452500", "145322.240000", "145323.030000", "145323.817500", "145324.605000", "145325.392500", "145326.182500", "145326.970000", "145327.757500", "145328.545000", "145329.335000", "145330.122500", "145330.910000", "145331.700000", "145332.487500", "145333.275000", "145334.062500", "145334.852500"],
      "ContentTime": ["144632.703000", "144632.703000", "144632.703000", "144632.703000", "144632.718000", "144632.718000", "144632.718000", "144632.718000", "144632.718000", "144632.718000", "144632.718000", "144632.718000", "144632.734000", "144632.734000", "144632.734000", "144632.734000", "144632.734000", "144632.734000", "144632.750000", "144632.750000", "144632.750000", "144632.750000", "144632.750000", "144632.750000", "144632.765000", "144632.765000", "144632.765000", "144632.765000", "144632.765000", "144632.765000", "144632.765000", "144632.781000", "144632.781000", "144632.781000", "144632.781000", "144632.781000", "144632.781000", "144632.781000", "144632.796000", "144632.796000", "144632.796000", "144652.671000", "144652.671000", "144652.671000", "144652.687000", "144652.687000", "144652.687000", "144652.687000", "144652.687000", "144652.687000", "144652.687000", "144652.703000", "144652.703000", "144652.703000", "144652.703000", "144652.703000", "144652.703000", "144652.703000", "144652.703000", "144652.718000", "144652.718000", "144652.718000", "144652.718000", "144652.718000", "144652.718000", "144652.718000", "144652.734000", "144712.671000", "144712.671000", "144712.687000", "144712.687000", "144712.687000", "144712.687000", "144712.687000", "144712.687000", "144712.687000", "144712.687000", "144712.703000", "144712.703000", "144712.703000", "144712.703000", "144712.703000", "144712.703000", "144712.703000", "144712.703000", "144712.718000", "144712.718000", "144712.718000", "144712.718000", "144712.718000", "144712.718000", "144712.734000", "144732.671000", "144732.671000", "144732.671000", "144732.687000", "144732.687000", "144732.687000", "144732.687000", "144732.687000", "144732.687000", "144732.687000", "144732.703000", "144732.703000", "144732.703000", "144732.703000", "144732.703000", "144732.703000", "144732.703000", "144732.718000", "144732.718000", "144732.718000", "144732.718000", "144732.718000", "144732.718000", "144732.718000", "144732.718000", "144732.734000", "144752.671000", "144752.671000", "144752.671000", "144752.687000", "144752.687000", "144752.687000", "144752.687000", "144752.687000", "144752.687000", "144752.703000", "144752.703000", "144752.703000", "144752.703000", "144752.703000", "144752.703000", "144752.703000", "144752.703000", "144752.718000", "144752.718000", "144752.718000", "144752.718000", "144752.718000", "144752.718000", "144752.718000", "144752.734000", "144812.671000", "144812.671000", "144812.671000", "144812.687000", "144812.687000", "144812.687000", "144812.687000", "144812.687000", "144812.687000", "144812.687000", "144812.703000", "144812.703000", "144812.703000", "144812.703000", "144812.703000", "144812.703000", "144812.703000", "144812.703000", "144812.718000", "144812.718000", "144812.718000", "144812.718000", "144812.718000", "144812.718000", "144812.734000", "144812.734000", "144832.671000", "144832.671000", "144832.687000", "144832.687000", "144832.687000", "144832.687000", "144832.687000", "144832.687000", "144832.687000", "144832.687000", "144832.703000", "144832.703000", "144832.703000", "144832.703000", "144832.703000", "144832.703000", "144832.703000", "144832.703000", "144832.718000", "144832.718000", "144832.718000", "144832.718000", "144832.718000", "144832.718000", "144832.718000", "144852.671000", "144852.671000", "144852.687000", "144852.687000", "144852.687000", "144852.687000", "144852.687000", "144852.687000", "144852.687000", "144852.687000", "144852.703000", "144852.703000", "144852.703000", "144852.703000", "144852.703000", "144852.703000", "144852.703000", "144852.703000", "144852.718000", "144852.718000", "144852.718000", "144852.718000", "144852.718000", "144852.718000", "144852.718000", "144852.734000", "144912.671000", "144912.671000", "144912.687000", "144912.687000", "144912.687000", "144912.687000", "144912.687000", "144912.687000", "144912.687000", "144912.687000", "144912.703000", "144912.703000", "144912.703000", "144912.703000", "144912.703000", "144912.718000", "144912.718000", "144912.718000", "144912.718000", "144912.718000", "144912.718000", "144912.734000", "144912.734000", "144912.734000", "144912.734000", "144932.671000", "144932.671000", "144932.671000", "144932.687000", "144932.687000", "144932.687000", "144932.687000", "144932.687000", "144932.687000", "144932.687000", "144932.703000", "144932.703000", "144932.703000", "144932.703000", "144932.703000", "144932.703000", "144932.703000", "144932.703000", "144932.718000", "144932.718000", "144932.718000", "144932.718000", "144932.718000", "144932.718000", "144932.718000", "144932.734000", "144952.671000", "144952.671000", "144952.671000", "144952.687000", "144952.687000", "144952.687000", "144952.687000", "144952.687000", "144952.687000", "144952.687000", "144952.703000", "144952.703000", "144952.703000", "144952.703000", "144952.703000", "144952.703000", "144952.703000", "144952.703000", "144952.718000", "144952.718000", "144952.718000", "144952.718000", "144952.718000", "144952.734000", "144952.734000", "145012.671000", "145012.671000", "145012.671000", "145012.687000", "145012.687000", "145012.687000", "145012.687000", "145012.687000", "145012.687000", "145012.687000", "145012.703000", "145012.703000", "145012.703000", "145012.703000", "145012.703000", "145012.703000", "145012.703000", "145012.703000", "145012.718000", "145012.718000", "145012.718000", "145012.718000", "145012.718000", "145012.718000", "145012.734000", "145012.734000", "145032.671000", "145032.671000", "145032.671000", "145032.687000", "145032.687000", "145032.687000", "145032.687000", "145032.687000", "145032.687000", "145032.687000", "145032.703000", "145032.703000", "145032.703000", "145032.703000", "145032.703000", "145032.703000", "145032.703000", "145032.703000", "145032.718000", "145032.718000", "145032.718000", "145032.718000", "145032.718000", "145032.734000", "145032.734000", "145052.671000", "145052.671000", "145052.671000", "145052.687000", "145052.687000", "145052.687000", "145052.687000", "145052.687000", "145052.687000", "145052.687000", "145052.703000", "145052.703000", "145052.703000", "145052.703000", "145052.703000", "145052.703000", "145052.703000", "145052.718000", "145052.718000", "145052.718000", "145052.718000", "145052.718000", "145052.718000", "145052.718000", "145052.718000", "145052.734000", "145112.671000", "145112.671000", "145112.687000", "145112.687000", "145112.687000", "145112.687000", "145112.687000", "145112.687000", "145112.687000", "145112.687000", "145112.703000", "145112.703000", "145112.703000", "145112.703000", "145112.703000", "145112.703000", "145112.703000", "145112.718000", "145112.718000", "145112.718000", "145112.718000", "145112.718000", "145112.718000", "145112.718000", "145112.734000", "145132.671000", "145132.671000", "145132.687000", "145132.687000", "145132.687000", "145132.687000", "145132.687000", "145132.687000", "145132.687000", "145132.703000", "145132.703000", "145132.703000", "145132.703000", "145132.703000", "145132.703000", "145132.718000", "145132.718000", "145132.718000", "145132.718000", "145132.718000", "145132.718000", "145132.718000", "145132.734000", "145132.734000", "145132.734000", "145132.734000", "145152.671000", "145152.671000", "145152.687000", "145152.687000", "145152.687000", "145152.687000", "145152.687000", "145152.687000", "145152.687000", "145152.687000", "145152.703000", "145152.703000", "145152.703000", "145152.703000", "145152.703000", "145152.703000", "145152.718000", "145152.718000", "145152.718000", "145152.718000", "145152.718000", "145152.718000", "145152.718000", "145152.718000", "145152.734000", "145212.671000", "145212.671000", "145212.671000", "145212.687000", "145212.687000", "145212.687000", "145212.687000", "145212.687000", "145212.687000", "145212.687000", "145212.703000", "145212.703000", "145212.703000", "145212.703000", "145212.703000", "145212.703000", "145212.703000", "145212.718000", "145212.718000", "145212.718000", "145212.718000", "145212.718000", "145212.718000", "145212.718000", "145212.734000", "145232.671000", "145232.671000", "145232.671000", "145232.687000", "145232.687000", "145232.687000", "145232.687000", "145232.687000", "145232.687000", "145232.687000", "145232.703000", "145232.703000", "145232.703000", "145232.703000", "145232.703000", "145232.703000", "145232.703000", "145232.718000", "145232.718000", "145232.718000", "145232.718000", "145232.718000", "145232.734000", "145232.734000", "145232.734000", "145232.734000", "145252.671000", "145252.671000", "145252.671000", "145252.687000", "145252.687000", "145252.687000", "145252.687000", "145252.687000", "145252.687000", "145252.687000", "145252.703000", "145252.703000", "145252.703000", "145252.703000", "145252.703000", "145252.703000", "145252.703000", "145252.703000", "145252.718000", "145252.718000", "145252.718000", "145252.718000", "145252.718000", "145252.718000", "145252.718000", "145312.671000", "145312.671000", "145312.671000", "145312.687000", "145312.687000", "145312.687000", "145312.687000", "145312.687000", "145312.687000", "145312.687000", "145312.703000", "145312.703000", "145312.703000", "145312.703000", "145312.703000", "145312.703000", "145312.703000", "145312.703000", "145312.718000", "145312.718000", "145312.718000", "145312.718000", "145312.718000", "145312.718000", "145312.734000", "145312.734000", "145332.671000", "145332.671000", "145332.671000", "145332.687000", "145332.687000", "145332.687000", "145332.687000", "145332.687000", "145332.687000", "145332.687000", "145332.703000", "145332.703000", "145332.703000", "145332.703000", "145332.703000", "145332.703000", "145332.703000", "145332.718000", "145332.718000", "145332.718000", "145332.718000", "145332.718000", "145332.718000", "145332.734000", "145332.734000", "145335.953000", "145335.953000", "145335.968000", "145335.968000", "145335.968000"],
