{
  "AcquisitionMatrixPE": 104,
  "AcquisitionNumber": 1,
  "AcquisitionTime": "15:18:4.725000",
  "BandwidthPerPixelPhaseEncode": 13.935,
  "BaseResolution": 104,
  "CoilString": "C:HEA;HEP",
  "ConversionSoftware": "dcm2niix",
  "ConversionSoftwareVersion": "v1.0.20210317",
  "DerivedVendorReportedEchoSpacing": 0.000690017,
  "DeviceSerialNumber": "35450",
  "DwellTime": 2.5e-06,
  "EchoTime": 0.0348,
  "EffectiveEchoSpacing": 0.000690017,
  "FlipAngle": 55,
  "ImageComments": "Unaliased MB8/PE3 (remote)",
  "ImageOrientationPatientDICOM": [1, 0, 0, 0, 0.990024, -0.140901],
  "ImageType": [
    "ORIGINAL",
    "PRIMARY",
    "M",
    "MB",
    "ND",
    "MOSAIC"
],
  "ImagingFrequency": 123.235,
  "InPlanePhaseEncodingDirectionDICOM": "COL",
  "InstitutionAddress": "Univeristy Ave. 197,Newark,North East,US,07102-1814",
  "InstitutionName": "RUBIC",
  "InstitutionalDepartmentName": "Department",
  "MRAcquisitionType": "2D",
  "MagneticFieldStrength": 3,
  "Manufacturer": "Siemens",
  "ManufacturersModelName": "TrioTim",
  "Modality": "MR",
  "MultibandAccelerationFactor": 8,
  "PartialFourier": 0.875,
  "PatientPosition": "HFS",
  "PercentPhaseFOV": 100,
  "PercentSampling": 100,
  "PhaseEncodingDirection": "j-",
  "PhaseEncodingSteps": 91,
  "PhaseResolution": 1,
  "PixelBandwidth": 1923,
  "ProcedureStepDescription": "Cole^Michael",
  "ProtocolName": "cmrr_mbep2d_bold_2mm_MB8_Task_8x",
  "PulseSequenceDetails": "%CustomerSeq%\\cmrr_mbep2d_bold",
  "ReceiveCoilName": "32Ch_Head",
  "ReconMatrixPE": 104,
  "RepetitionTime": 0.785,
  "SAR": 0.112743,
  "ScanOptions": "PFP\\FS",
  "ScanningSequence": "EP",
  "SequenceName": "epfid2d1_104",
  "SequenceVariant": "SK\\SS",
  "SeriesDescription": "cmrr_mbep2d_bold_2mm_MB8_Task_8x",
  "SeriesNumber": 25,
  "ShimSetting": [2139, -400, -7204, 318, -61, -177, 4, -87],
  "SliceThickness": 2,
  "SliceTiming": [0, 0.4375, 0.0875, 0.525, 0.175, 0.6125, 0.2625, 0.7, 0.35, 0, 0.4375, 0.0875, 0.525, 0.175, 0.6125, 0.2625, 0.7, 0.35, 0, 0.4375, 0.0875, 0.525, 0.175, 0.6125, 0.2625, 0.7, 0.35, 0, 0.4375, 0.0875, 0.525, 0.175, 0.6125, 0.2625, 0.7, 0.35, 0, 0.4375, 0.0875, 0.525, 0.175, 0.6125, 0.2625, 0.7, 0.35, 0, 0.4375, 0.0875, 0.525, 0.175, 0.6125, 0.2625, 0.7, 0.35, 0, 0.4375, 0.0875, 0.525, 0.175, 0.6125, 0.2625, 0.7, 0.35, 0, 0.4375, 0.0875, 0.525, 0.175, 0.6125, 0.2625, 0.7, 0.35],
  "SoftwareVersions": "syngo MR B19",
  "SpacingBetweenSlices": 2,
  "StationName": "MRC35450",
  "TaskName": "cpro",
  "TotalReadoutTime": 0.0710717,
  "TxRefAmp": 319.515,
  "dcmmeta_affine": [
    [-2.0, 0.0, 0.0, 100.61016845703125],
    [0.0, 1.980047345161438, -0.2818024754524231, -76.82847595214844],
    [0.0, 0.2818024754524231, 1.980047345161438, -105.8349609375],
    [0.0, 0.0, 0.0, 1.0]
],
  "dcmmeta_reorient_transform": [
    [0.0, -1.0, 0.0, 103.0],
    [1.0, 0.0, 0.0, 0.0],
    [0.0, 0.0, 1.0, 0.0],
    [0.0, 0.0, 0.0, 1.0]
],
  "dcmmeta_shape": [104, 104, 72, 581],
  "dcmmeta_slice_dim": 2,
  "dcmmeta_version": 0.6,
  "global": {
    "const": {
      "AcquisitionMatrix": [104, 0, 0, 104],
      "AngioFlag": "N",
      "BitsAllocated": 16,
      "BitsStored": 12,
      "Columns": 936,
      "EchoNumbers": 1,
      "EchoTime": 34.8,
      "EchoTrainLength": 1,
      "FlipAngle": 55.0,
      "HighBit": 11,
      "ImageOrientationPatient": [1.0, 0.0, 0.0, 0.0, 0.99002365739342, -0.1409012342081],
      "ImagePositionPatient": [-932.61016941071, -950.8160816137, 40.420519635276],
      "ImageType": [
        "ORIGINAL",
        "PRIMARY",
        "M",
        "MB",
        "ND",
        "MOSAIC"
],
      "ImagedNucleus": "1H",
      "ImagingFrequency": 123.234512,
      "InPlanePhaseEncodingDirection": "COL",
      "MRAcquisitionType": "2D",
      "MagneticFieldStrength": 3.0,
      "Manufacturer": "SIEMENS",
      "ManufacturerModelName": "TrioTim",
      "Modality": "MR",
      "NumberOfAverages": 1.0,
      "NumberOfPhaseEncodingSteps": 91,
      "PercentPhaseFieldOfView": 100.0,
      "PercentSampling": 100.0,
      "PerformedProcedureStepStartTime": "133429.765000",
      "PhotometricInterpretation": "MONOCHROME2",
      "PixelBandwidth": 1923.0,
      "PixelRepresentation": 0,
      "PixelSpacing": [2.0, 2.0],
      "ProtocolName": "cmrr_mbep2d_bold_2mm_MB8_Task_8x",
      "RepetitionTime": 785.0,
      "Rows": 936,
      "SAR": 0.11274323485112,
      "SamplesPerPixel": 1,
      "ScanOptions": [
        "PFP",
        "FS"
],
      "ScanningSequence": "EP",
      "SequenceName": "epfid2d1_104",
      "SequenceVariant": [
        "SK",
        "SS"
],
      "SeriesDescription": "cmrr_mbep2d_bold_2mm_MB8_Task_8x",
      "SeriesNumber": 25,
      "SeriesTime": "151824.031000",
      "SliceLocation": -93.953888721211,
      "SliceThickness": 2.0,
      "SmallestImagePixelValue": 0,
      "SoftwareVersions": "syngo MR B19",
      "SpacingBetweenSlices": 1.99999999153,
      "SpecificCharacterSet": "ISO_IR 100",
      "StudyID": "1",
      "StudyTime": "133429.687000",
      "TransmitCoilName": "Body",
      "VariableFlipAngleFlag": "N",
      "WindowCenterWidthExplanation": "Algo1",
      "dBdt": 0.0},
    "slices": {}
  },
  "time": {
    "samples": {
      "AcquisitionNumber": [1, 2, 3, 4, 5, 6, 7, 8, 9, 10, 11, 12, 13, 14, 15, 16, 17, 18, 19, 20, 21, 22, 23, 24, 25, 26, 27, 28, 29, 30, 31, 32, 33, 34, 35, 36, 37, 38, 39, 40, 41, 42, 43, 44, 45, 46, 47, 48, 49, 50, 51, 52, 53, 54, 55, 56, 57, 58, 59, 60, 61, 62, 63, 64, 65, 66, 67, 68, 69, 70, 71, 72, 73, 74, 75, 76, 77, 78, 79, 80, 81, 82, 83, 84, 85, 86, 87, 88, 89, 90, 91, 92, 93, 94, 95, 96, 97, 98, 99, 100, 101, 102, 103, 104, 105, 106, 107, 108, 109, 110, 111, 112, 113, 114, 115, 116, 117, 118, 119, 120, 121, 122, 123, 124, 125, 126, 127, 128, 129, 130, 131, 132, 133, 134, 135, 136, 137, 138, 139, 140, 141, 142, 143, 144, 145, 146, 147, 148, 149, 150, 151, 152, 153, 154, 155, 156, 157, 158, 159, 160, 161, 162, 163, 164, 165, 166, 167, 168, 169, 170, 171, 172, 173, 174, 175, 176, 177, 178, 179, 180, 181, 182, 183, 184, 185, 186, 187, 188, 189, 190, 191, 192, 193, 194, 195, 196, 197, 198, 199, 200, 201, 202, 203, 204, 205, 206, 207, 208, 209, 210, 211, 212, 213, 214, 215, 216, 217, 218, 219, 220, 221, 222, 223, 224, 225, 226, 227, 228, 229, 230, 231, 232, 233, 234, 235, 236, 237, 238, 239, 240, 241, 242, 243, 244, 245, 246, 247, 248, 249, 250, 251, 252, 253, 254, 255, 256, 257, 258, 259, 260, 261, 262, 263, 264, 265, 266, 267, 268, 269, 270, 271, 272, 273, 274, 275, 276, 277, 278, 279, 280, 281, 282, 283, 284, 285, 286, 287, 288, 289, 290, 291, 292, 293, 294, 295, 296, 297, 298, 299, 300, 301, 302, 303, 304, 305, 306, 307, 308, 309, 310, 311, 312, 313, 314, 315, 316, 317, 318, 319, 320, 321, 322, 323, 324, 325, 326, 327, 328, 329, 330, 331, 332, 333, 334, 335, 336, 337, 338, 339, 340, 341, 342, 343, 344, 345, 346, 347, 348, 349, 350, 351, 352, 353, 354, 355, 356, 357, 358, 359, 360, 361, 362, 363, 364, 365, 366, 367, 368, 369, 370, 371, 372, 373, 374, 375, 376, 377, 378, 379, 380, 381, 382, 383, 384, 385, 386, 387, 388, 389, 390, 391, 392, 393, 394, 395, 396, 397, 398, 399, 400, 401, 402, 403, 404, 405, 406, 407, 408, 409, 410, 411, 412, 413, 414, 415, 416, 417, 418, 419, 420, 421, 422, 423, 424, 425, 426, 427, 428, 429, 430, 431, 432, 433, 434, 435, 436, 437, 438, 439, 440, 441, 442, 443, 444, 445, 446, 447, 448, 449, 450, 451, 452, 453, 454, 455, 456, 457, 458, 459, 460, 461, 462, 463, 464, 465, 466, 467, 468, 469, 470, 471, 472, 473, 474, 475, 476, 477, 478, 479, 480, 481, 482, 483, 484, 485, 486, 487, 488, 489, 490, 491, 492, 493, 494, 495, 496, 497, 498, 499, 500, 501, 502, 503, 504, 505, 506, 507, 508, 509, 510, 511, 512, 513, 514, 515, 516, 517, 518, 519, 520, 521, 522, 523, 524, 525, 526, 527, 528, 529, 530, 531, 532, 533, 534, 535, 536, 537, 538, 539, 540, 541, 542, 543, 544, 545, 546, 547, 548, 549, 550, 551, 552, 553, 554, 555, 556, 557, 558, 559, 560, 561, 562, 563, 564, 565, 566, 567, 568, 569, 570, 571, 572, 573, 574, 575, 576, 577, 578, 579, 580, 581],
      "AcquisitionTime": ["151804.725000", "151805.512500", "151806.300000", "151807.087500", "151807.877500", "151808.665000", "151809.452500", "151810.240000", "151811.030000", "151811.817500", "151812.605000", "151813.392500", "151814.182500", "151814.970000", "151815.757500", "151816.545000", "151817.335000", "151818.122500", "151818.910000", "151819.697500", "151820.487500", "151821.275000", "151822.062500", "151822.852500", "151823.640000", "151824.427500", "151825.215000", "151826.005000", "151826.792500", "151827.580000", "151828.367500", "151829.157500", "151829.945000", "151830.732500", "151831.520000", "151832.310000", "151833.097500", "151833.885000", "151834.672500", "151835.462500", "151836.250000", "151837.037500", "151837.825000", "151838.615000", "151839.402500", "151840.190000", "151840.980000", "151841.767500", "151842.555000", "151843.342500", "151844.132500", "151844.920000", "151845.707500", "151846.495000", "151847.285000", "151848.072500", "151848.860000", "151849.647500", "151850.437500", "151851.225000", "151852.012500", "151852.800000", "151853.590000", "151854.377500", "151855.165000", "151855.955000", "151856.742500", "151857.530000", "151858.317500", "151859.107500", "151859.895000", "151900.682500", "151901.470000", "151902.260000", "151903.047500", "151903.835000", "151904.622500", "151905.412500", "151906.200000", "151906.987500", "151907.775000", "151908.565000", "151909.352500", "151910.140000", "151910.927500", "151911.717500", "151912.505000", "151913.292500", "151914.082500", "151914.870000", "151915.657500", "151916.445000", "151917.235000", "151918.022500", "151918.810000", "151919.597500", "151920.387500", "151921.175000", "151921.962500", "151922.750000", "151923.540000", "151924.327500", "151925.115000", "151925.902500", "151926.692500", "151927.480000", "151928.267500", "151929.055000", "151929.845000", "151930.632500", "151931.420000", "151932.210000", "151932.997500", "151933.785000", "151934.572500", "151935.362500", "151936.150000", "151936.937500", "151937.725000", "151938.515000", "151939.302500", "151940.090000", "151940.877500", "151941.667500", "151942.455000", "151943.242500", "151944.030000", "151944.820000", "151945.607500", "151946.395000", "151947.182500", "151947.972500", "151948.760000", "151949.547500", "151950.337500", "151951.125000", "151951.912500", "151952.700000", "151953.490000", "151954.277500", "151955.065000", "151955.852500", "151956.642500", "151957.430000", "151958.217500", "151959.005000", "151959.795000", "152000.582500", "152001.370000", "152002.157500", "152002.947500", "152003.735000", "152004.522500", "152005.310000", "152006.100000", "152006.887500", "152007.675000", "152008.465000", "152009.252500", "152010.040000", "152010.827500", "152011.617500", "152012.405000", "152013.192500", "152013.980000", "152014.770000", "152015.557500", "152016.345000", "152017.132500", "152017.922500", "152018.710000", "152019.497500", "152020.285000", "152021.075000", "152021.862500", "152022.650000", "152023.437500", "152024.227500", "152025.015000", "152025.802500", "152026.592500", "152027.380000", "152028.167500", "152028.955000", "152029.745000", "152030.532500", "152031.320000", "152032.107500", "152032.897500", "152033.685000", "152034.472500", "152035.260000", "152036.050000", "152036.837500", "152037.625000", "152038.412500", "152039.202500", "152039.990000", "152040.777500", "152041.565000", "152042.355000", "152043.142500", "152043.930000", "152044.720000", "152045.507500", "152046.295000", "152047.082500", "152047.872500", "152048.660000", "152049.447500", "152050.235000", "152051.025000", "152051.812500", "152052.600000", "152053.387500", "152054.177500", "152054.965000", "152055.752500", "152056.540000", "152057.330000", "152058.117500", "152058.905000", "152059.692500", "152100.482500", "152101.270000", "152102.057500", "152102.847500", "152103.635000", "152104.422500", "152105.210000", "152106.000000", "152106.787500", "152107.575000", "152108.362500", "152109.152500", "152109.940000", "152110.727500", "152111.515000", "152112.305000", "152113.092500", "152113.880000", "152114.667500", "152115.457500", "152116.245000", "152117.032500", "152117.820000", "152118.610000", "152119.397500", "152120.185000", "152120.975000", "152121.762500", "152122.550000", "152123.337500", "152124.127500", "152124.915000", "152125.702500", "152126.490000", "152127.280000", "152128.067500", "152128.855000", "152129.642500", "152130.432500", "152131.220000", "152132.007500", "152132.795000", "152133.585000", "152134.372500", "152135.160000", "152135.947500", "152136.737500", "152137.525000", "152138.312500", "152139.102500", "152139.890000", "152140.677500", "152141.465000", "152142.255000", "152143.042500", "152143.830000", "152144.617500", "152145.407500", "152146.195000", "152146.982500", "152147.770000", "152148.560000", "152149.347500", "152150.135000", "152150.922500", "152151.712500", "152152.500000", "152153.287500", "152154.075000", "152154.865000", "152155.652500", "152156.440000", "152157.230000", "152158.017500", "152158.805000", "152159.592500", "152200.382500", "152201.170000", "152201.957500", "152202.745000", "152203.535000", "152204.322500", "152205.110000", "152205.897500", "152206.687500", "152207.475000", "152208.262500", "152209.050000", "152209.840000", "152210.627500", "152211.415000", "152212.205000", "152212.992500", "152213.780000", "152214.567500", "152215.357500", "152216.145000", "152216.932500", "152217.720000", "152218.510000", "152219.297500", "152220.085000", "152220.872500", "152221.662500", "152222.450000", "152223.237500", "152224.025000", "152224.815000", "152225.602500", "152226.390000", "152227.177500", "152227.967500", "152228.755000", "152229.542500", "152230.332500", "152231.120000", "152231.907500", "152232.695000", "152233.485000", "152234.272500", "152235.060000", "152235.847500", "152236.637500", "152237.425000", "152238.212500", "152239.000000", "152239.790000", "152240.577500", "152241.365000", "152242.152500", "152242.942500", "152243.730000", "152244.517500", "152245.305000", "152246.095000", "152246.882500", "152247.670000", "152248.460000", "152249.247500", "152250.035000", "152250.822500", "152251.612500", "152252.400000", "152253.187500", "152253.975000", "152254.765000", "152255.552500", "152256.340000", "152257.127500", "152257.917500", "152258.705000", "152259.492500", "152300.280000", "152301.070000", "152301.857500", "152302.645000", "152303.432500", "152304.222500", "152305.010000", "152305.797500", "152306.587500", "152307.375000", "152308.162500", "152308.950000", "152309.740000", "152310.527500", "152311.315000", "152312.102500", "152312.892500", "152313.680000", "152314.467500", "152315.255000", "152316.045000", "152316.832500", "152317.620000", "152318.407500", "152319.197500", "152319.985000", "152320.772500", "152321.560000", "152322.350000", "152323.137500", "152323.925000", "152324.715000", "152325.502500", "152326.290000", "152327.077500", "152327.867500", "152328.655000", "152329.442500", "152330.230000", "152331.020000", "152331.807500", "152332.595000", "152333.382500", "152334.172500", "152334.960000", "152335.747500", "152336.535000", "152337.325000", "152338.112500", "152338.900000", "152339.687500", "152340.477500", "152341.265000", "152342.052500", "152342.842500", "152343.630000", "152344.417500", "152345.205000", "152345.995000", "152346.782500", "152347.570000", "152348.357500", "152349.147500", "152349.935000", "152350.722500", "152351.510000", "152352.300000", "152353.087500", "152353.875000", "152354.662500", "152355.452500", "152356.240000", "152357.027500", "152357.815000", "152358.605000", "152359.392500", "152400.180000", "152400.970000", "152401.757500", "152402.545000", "152403.332500", "152404.122500", "152404.910000", "152405.697500", "152406.485000", "152407.275000", "152408.062500", "152408.850000", "152409.637500", "152410.427500", "152411.215000", "152412.002500", "152412.790000", "152413.580000", "152414.367500", "152415.155000", "152415.942500", "152416.732500", "152417.520000", "152418.307500", "152419.097500", "152419.885000", "152420.672500", "152421.460000", "152422.250000", "152423.037500", "152423.825000", "152424.612500", "152425.402500", "152426.190000", "152426.977500", "152427.765000", "152428.555000", "152429.342500", "152430.130000", "152430.917500", "152431.707500", "152432.495000", "152433.282500", "152434.070000", "152434.860000", "152435.647500", "152436.435000", "152437.225000", "152438.012500", "152438.800000", "152439.587500", "152440.377500", "152441.165000", "152441.952500", "152442.740000", "152443.530000", "152444.317500", "152445.105000", "152445.892500", "152446.682500", "152447.470000", "152448.257500", "152449.045000", "152449.835000", "152450.622500", "152451.410000", "152452.197500", "152452.987500", "152453.775000", "152454.562500", "152455.352500", "152456.140000", "152456.927500", "152457.715000", "152458.505000", "152459.292500", "152500.080000", "152500.867500", "152501.657500", "152502.445000", "152503.232500", "152504.020000", "152504.810000", "152505.597500", "152506.385000", "152507.172500", "152507.962500", "152508.750000", "152509.537500", "152510.325000", "152511.115000", "152511.902500", "152512.690000", "152513.480000", "152514.267500", "152515.055000", "152515.842500", "152516.632500", "152517.420000", "152518.207500", "152518.995000", "152519.785000", "152520.572500", "152521.360000", "152522.147500", "152522.937500", "152523.725000", "152524.512500", "152525.300000", "152526.090000", "152526.877500", "152527.665000", "152528.455000", "152529.242500", "152530.030000", "152530.817500", "152531.607500", "152532.395000", "152533.182500", "152533.970000", "152534.760000", "152535.547500", "152536.335000", "152537.122500", "152537.912500", "152538.700000", "152539.487500", "152540.275000", "152541.065000", "152541.852500"],
      "ContentTime": ["151824.031000", "151824.031000", "151824.031000", "151824.031000", "151824.031000", "151824.031000", "151824.046000", "151824.046000", "151824.046000", "151824.046000", "151824.046000", "151824.046000", "151824.046000", "151824.062000", "151824.062000", "151824.062000", "151824.062000", "151824.062000", "151824.062000", "151824.062000", "151824.062000", "151844.000000", "151844.000000", "151844.000000", "151844.015000", "151844.015000", "151844.015000", "151844.015000", "151844.015000", "151844.015000", "151844.015000", "151844.031000", "151844.031000", "151844.031000", "151844.031000", "151844.031000", "151844.031000", "151844.031000", "151844.031000", "151844.046000", "151844.046000", "151844.046000", "151844.046000", "151844.046000", "151844.046000", "151844.046000", "151904.000000", "151904.000000", "151904.000000", "151904.015000", "151904.015000", "151904.015000", "151904.015000", "151904.015000", "151904.015000", "151904.015000", "151904.031000", "151904.031000", "151904.031000", "151904.031000", "151904.031000", "151904.031000", "151904.031000", "151904.046000", "151904.046000", "151904.046000", "151904.046000", "151904.046000", "151904.046000", "151904.062000", "151904.062000", "151904.062000", "151924.000000", "151924.000000", "151924.015000", "151924.015000", "151924.015000", "151924.015000", "151924.015000", "151924.015000", "151924.015000", "151924.015000", "151924.031000", "151924.031000", "151924.031000", "151924.031000", "151924.031000", "151924.031000", "151924.031000", "151924.046000", "151924.046000", "151924.046000", "151924.046000", "151924.046000", "151924.046000", "151924.046000", "151924.046000", "151944.000000", "151944.000000", "151944.015000", "151944.015000", "151944.015000", "151944.015000", "151944.015000", "151944.015000", "151944.015000", "151944.031000", "151944.031000", "151944.031000", "151944.031000", "151944.046000", "151944.046000", "151944.046000", "151944.046000", "151944.046000", "151944.046000", "151944.046000", "151944.046000", "151944.062000", "151944.062000", "151944.062000", "151944.062000", "151944.062000", "152004.000000", "152004.000000", "152004.000000", "152004.015000", "152004.015000", "152004.015000", "152004.015000", "152004.015000", "152004.015000", "152004.015000", "152004.031000", "152004.031000", "152004.031000", "152004.031000", "152004.031000", "152004.031000", "152004.031000", "152004.046000", "152004.046000", "152004.046000", "152004.046000", "152004.046000", "152004.046000", "152004.062000", "152004.062000", "152024.000000", "152024.000000", "152024.000000", "152024.015000", "152024.015000", "152024.015000", "152024.015000", "152024.015000", "152024.015000", "152024.015000", "152024.031000", "152024.031000", "152024.031000", "152024.031000", "152024.031000", "152024.031000", "152024.031000", "152024.046000", "152024.046000", "152024.046000", "152024.046000", "152024.046000", "152024.046000", "152024.046000", "152024.046000", "152024.062000", "152044.000000", "152044.000000", "152044.000000", "152044.015000", "152044.015000", "152044.015000", "152044.015000", "152044.015000", "152044.015000", "152044.015000", "152044.031000", "152044.031000", "152044.031000", "152044.031000", "152044.031000", "152044.031000", "152044.031000", "152044.046000", "152044.046000", "152044.046000", "152044.046000", "152044.046000", "152044.046000", "152044.046000", "152044.062000", "152104.000000", "152104.000000", "152104.015000", "152104.015000", "152104.015000", "152104.015000", "152104.015000", "152104.015000", "152104.015000", "152104.015000", "152104.031000", "152104.031000", "152104.031000", "152104.031000", "152104.031000", "152104.031000", "152104.031000", "152104.046000", "152104.046000", "152104.046000", "152104.046000", "152104.046000", "152104.046000", "152104.046000", "152104.062000", "152104.062000", "152124.000000", "152124.000000", "152124.000000", "152124.015000", "152124.015000", "152124.015000", "152124.015000", "152124.015000", "152124.015000", "152124.015000", "152124.031000", "152124.031000", "152124.031000", "152124.031000", "152124.031000", "152124.031000", "152124.031000", "152124.046000", "152124.046000", "152124.046000", "152124.046000", "152124.046000", "152124.046000", "152124.046000", "152124.046000", "152144.000000", "152144.000000", "152144.000000", "152144.015000", "152144.015000", "152144.015000", "152144.015000", "152144.015000", "152144.015000", "152144.015000", "152144.031000", "152144.031000", "152144.031000", "152144.031000", "152144.031000", "152144.031000", "152144.031000", "152144.046000", "152144.046000", "152144.046000", "152144.046000", "152144.046000", "152144.046000", "152144.046000", "152144.062000", "152144.062000", "152204.000000", "152204.000000", "152204.000000", "152204.015000", "152204.015000", "152204.015000", "152204.015000", "152204.015000", "152204.015000", "152204.031000", "152204.031000", "152204.031000", "152204.031000", "152204.031000", "152204.031000", "152204.046000", "152204.046000", "152204.062000", "152204.062000", "152204.062000", "152204.062000", "152204.062000", "152204.062000", "152204.062000", "152204.078000", "152224.000000", "152224.000000", "152224.015000", "152224.015000", "152224.015000", "152224.015000", "152224.015000", "152224.015000", "152224.015000", "152224.015000", "152224.031000", "152224.031000", "152224.031000", "152224.031000", "152224.031000", "152224.031000", "152224.046000", "152224.046000", "152224.046000", "152224.046000", "152224.046000", "152224.046000", "152224.046000", "152224.062000", "152224.062000", "152244.000000", "152244.000000", "152244.000000", "152244.015000", "152244.015000", "152244.015000", "152244.015000", "152244.015000", "152244.015000", "152244.015000", "152244.031000", "152244.031000", "152244.031000", "152244.031000", "152244.031000", "152244.031000", "152244.031000", "152244.046000", "152244.046000", "152244.046000", "152244.046000", "152244.046000", "152244.062000", "152244.062000", "152244.062000", "152244.062000", "152304.000000", "152304.000000", "152304.015000", "152304.015000", "152304.015000", "152304.015000", "152304.015000", "152304.015000", "152304.015000", "152304.015000", "152304.031000", "152304.031000", "152304.031000", "152304.031000", "152304.031000", "152304.046000", "152304.046000", "152304.046000", "152304.046000", "152304.046000", "152304.046000", "152304.046000", "152304.046000", "152304.062000", "152304.062000", "152324.000000", "152324.000000", "152324.000000", "152324.015000", "152324.015000", "152324.015000", "152324.015000", "152324.015000", "152324.015000", "152324.015000", "152324.031000", "152324.031000", "152324.031000", "152324.031000", "152324.031000", "152324.031000", "152324.062000", "152324.062000", "152324.062000", "152324.062000", "152324.062000", "152324.062000", "152324.062000", "152324.078000", "152324.078000", "152324.078000", "152344.000000", "152344.000000", "152344.000000", "152344.015000", "152344.015000", "152344.015000", "152344.015000", "152344.015000", "152344.015000", "152344.015000", "152344.031000", "152344.031000", "152344.031000", "152344.031000", "152344.031000", "152344.031000", "152344.031000", "152344.046000", "152344.046000", "152344.046000", "152344.046000", "152344.046000", "152344.046000", "152344.062000", "152344.062000", "152404.000000", "152404.000000", "152404.000000", "152404.015000", "152404.015000", "152404.015000", "152404.015000", "152404.015000", "152404.015000", "152404.015000", "152404.031000", "152404.031000", "152404.031000", "152404.031000", "152404.031000", "152404.031000", "152404.031000", "152404.031000", "152404.046000", "152404.046000", "152404.046000", "152404.046000", "152404.046000", "152404.046000", "152404.046000", "152404.062000", "152424.000000", "152424.000000", "152424.000000", "152424.015000", "152424.015000", "152424.015000", "152424.015000", "152424.015000", "152424.015000", "152424.015000", "152424.031000", "152424.031000", "152424.031000", "152424.031000", "152424.031000", "152424.031000", "152424.031000", "152424.031000", "152424.046000", "152424.046000", "152424.046000", "152424.046000", "152424.046000", "152424.046000", "152424.046000", "152444.000000", "152444.000000", "152444.000000", "152444.015000", "152444.015000", "152444.015000", "152444.015000", "152444.015000", "152444.015000", "152444.015000", "152444.031000", "152444.031000", "152444.031000", "152444.031000", "152444.031000", "152444.031000", "152444.031000", "152444.046000", "152444.046000", "152444.046000", "152444.046000", "152444.046000", "152444.046000", "152444.046000", "152444.046000", "152444.062000", "152504.000000", "152504.000000", "152504.015000", "152504.015000", "152504.015000", "152504.015000", "152504.015000", "152504.015000", "152504.015000", "152504.031000", "152504.031000", "152504.031000", "152504.031000", "152504.031000", "152504.031000", "152504.031000", "152504.046000", "152504.046000", "152504.046000", "152504.046000", "152504.046000", "152504.046000", "152504.046000", "152504.046000", "152504.062000", "152524.000000", "152524.000000", "152524.000000", "152524.015000", "152524.015000", "152524.015000", "152524.015000", "152524.015000", "152524.015000", "152524.015000", "152524.031000", "152524.031000", "152524.031000", "152524.031000", "152524.031000", "152524.031000", "152524.031000", "152524.046000", "152524.046000", "152524.046000", "152524.046000", "152524.046000", "152524.046000", "152524.046000", "152524.062000", "152524.062000", "152543.453000", "152543.453000", "152543.453000", "152543.453000", "152543.453000", "152543.468000", "152543.468000", "152543.468000", "152543.468000", "152543.468000", "152543.468000", "152543.468000", "152543.484000", "152543.484000", "152543.484000", "152543.484000", "152543.484000", "152543.484000", "152543.484000", "152543.484000", "152543.500000", "152543.500000", "152543.500000", "152543.500000", "152543.500000"],
