{
  "AcquisitionMatrixPE": 104,
  "AcquisitionNumber": 1,
  "AcquisitionTime": "14:37:55.690000",
  "BandwidthPerPixelPhaseEncode": 13.935,
  "BaseResolution": 104,
  "CoilString": "C:HEA;HEP",
  "ConversionSoftware": "dcm2niix",
  "ConversionSoftwareVersion": "v1.0.20210317",
  "DerivedVendorReportedEchoSpacing": 0.000690017,
  "DeviceSerialNumber": "35450",
  "DwellTime": 2.5e-06,
  "EchoTime": 0.0348,
  "EffectiveEchoSpacing": 0.000690017,
  "FlipAngle": 55,
  "ImageComments": "Unaliased MB8/PE3 (remote)",
  "ImageOrientationPatientDICOM": [1, 0, 0, 0, 0.990024, -0.140901],
  "ImageType": [
    "ORIGINAL",
    "PRIMARY",
    "M",
    "MB",
    "ND",
    "MOSAIC"
],
  "ImagingFrequency": 123.235,
  "InPlanePhaseEncodingDirectionDICOM": "COL",
  "InstitutionAddress": "Univeristy Ave. 197,Newark,North East,US,07102-1814",
  "InstitutionName": "RUBIC",
  "InstitutionalDepartmentName": "Department",
  "MRAcquisitionType": "2D",
  "MagneticFieldStrength": 3,
  "Manufacturer": "Siemens",
  "ManufacturersModelName": "TrioTim",
  "Modality": "MR",
  "MultibandAccelerationFactor": 8,
  "PartialFourier": 0.875,
  "PatientPosition": "HFS",
  "PercentPhaseFOV": 100,
  "PercentSampling": 100,
  "PhaseEncodingDirection": "j-",
  "PhaseEncodingSteps": 91,
  "PhaseResolution": 1,
  "PixelBandwidth": 1923,
  "ProcedureStepDescription": "Cole^Michael",
  "ProtocolName": "cmrr_mbep2d_bold_2mm_MB8_Task_8x",
  "PulseSequenceDetails": "%CustomerSeq%\\cmrr_mbep2d_bold",
  "ReceiveCoilName": "32Ch_Head",
  "ReconMatrixPE": 104,
  "RepetitionTime": 0.785,
  "SAR": 0.112743,
  "ScanOptions": "PFP\\FS",
  "ScanningSequence": "EP",
  "SequenceName": "epfid2d1_104",
  "SequenceVariant": "SK\\SS",
  "SeriesDescription": "cmrr_mbep2d_bold_2mm_MB8_Task_8x",
  "SeriesNumber": 15,
  "ShimSetting": [2139, -400, -7204, 318, -61, -177, 4, -87],
  "SliceThickness": 2,
  "SliceTiming": [0, 0.4375, 0.0875, 0.525, 0.175, 0.6125, 0.2625, 0.7, 0.35, 0, 0.4375, 0.0875, 0.525, 0.175, 0.6125, 0.2625, 0.7, 0.35, 0, 0.4375, 0.0875, 0.525, 0.175, 0.6125, 0.2625, 0.7, 0.35, 0, 0.4375, 0.0875, 0.525, 0.175, 0.6125, 0.2625, 0.7, 0.35, 0, 0.4375, 0.0875, 0.525, 0.175, 0.6125, 0.2625, 0.7, 0.35, 0, 0.4375, 0.0875, 0.525, 0.175, 0.6125, 0.2625, 0.7, 0.35, 0, 0.4375, 0.0875, 0.525, 0.175, 0.6125, 0.2625, 0.7, 0.35, 0, 0.4375, 0.0875, 0.525, 0.175, 0.6125, 0.2625, 0.7, 0.35],
  "SoftwareVersions": "syngo MR B19",
  "SpacingBetweenSlices": 2,
  "StationName": "MRC35450",
  "TaskName": "cpro",
  "TotalReadoutTime": 0.0710717,
  "TxRefAmp": 319.515,
  "dcmmeta_affine": [
    [-2.0, 0.0, 0.0, 100.61016845703125],
    [0.0, 1.980047345161438, -0.2818024754524231, -76.82847595214844],
    [0.0, 0.2818024754524231, 1.980047345161438, -105.8349609375],
    [0.0, 0.0, 0.0, 1.0]
],
  "dcmmeta_reorient_transform": [
    [0.0, -1.0, 0.0, 103.0],
    [1.0, 0.0, 0.0, 0.0],
    [0.0, 0.0, 1.0, 0.0],
    [0.0, 0.0, 0.0, 1.0]
],
  "dcmmeta_shape": [104, 104, 72, 581],
  "dcmmeta_slice_dim": 2,
  "dcmmeta_version": 0.6,
  "global": {
    "const": {
      "AcquisitionMatrix": [104, 0, 0, 104],
      "AngioFlag": "N",
      "BitsAllocated": 16,
      "BitsStored": 12,
      "Columns": 936,
      "EchoNumbers": 1,
      "EchoTime": 34.8,
      "EchoTrainLength": 1,
      "FlipAngle": 55.0,
      "HighBit": 11,
      "ImageOrientationPatient": [1.0, 0.0, 0.0, 0.0, 0.99002365739342, -0.1409012342081],
      "ImagePositionPatient": [-932.61016941071, -950.8160816137, 40.420519635276],
      "ImageType": [
        "ORIGINAL",
        "PRIMARY",
        "M",
        "MB",
        "ND",
        "MOSAIC"
],
      "ImagedNucleus": "1H",
      "ImagingFrequency": 123.234512,
      "InPlanePhaseEncodingDirection": "COL",
      "MRAcquisitionType": "2D",
      "MagneticFieldStrength": 3.0,
      "Manufacturer": "SIEMENS",
      "ManufacturerModelName": "TrioTim",
      "Modality": "MR",
      "NumberOfAverages": 1.0,
      "NumberOfPhaseEncodingSteps": 91,
      "PercentPhaseFieldOfView": 100.0,
      "PercentSampling": 100.0,
      "PerformedProcedureStepStartTime": "133429.765000",
      "PhotometricInterpretation": "MONOCHROME2",
      "PixelBandwidth": 1923.0,
      "PixelRepresentation": 0,
      "PixelSpacing": [2.0, 2.0],
      "ProtocolName": "cmrr_mbep2d_bold_2mm_MB8_Task_8x",
      "RepetitionTime": 785.0,
      "Rows": 936,
      "SAR": 0.11274323485112,
      "SamplesPerPixel": 1,
      "ScanOptions": [
        "PFP",
        "FS"
],
      "ScanningSequence": "EP",
      "SequenceName": "epfid2d1_104",
      "SequenceVariant": [
        "SK",
        "SS"
],
      "SeriesDescription": "cmrr_mbep2d_bold_2mm_MB8_Task_8x",
      "SeriesNumber": 15,
      "SeriesTime": "143824.093000",
      "SliceLocation": -93.953888721211,
      "SliceThickness": 2.0,
      "SmallestImagePixelValue": 0,
      "SoftwareVersions": "syngo MR B19",
      "SpacingBetweenSlices": 1.99999999153,
      "SpecificCharacterSet": "ISO_IR 100",
      "StudyID": "1",
      "StudyTime": "133429.687000",
      "TransmitCoilName": "Body",
      "VariableFlipAngleFlag": "N",
      "WindowCenterWidthExplanation": "Algo1",
      "dBdt": 0.0},
    "slices": {}
  },
  "time": {
    "samples": {
      "AcquisitionNumber": [1, 2, 3, 4, 5, 6, 7, 8, 9, 10, 11, 12, 13, 14, 15, 16, 17, 18, 19, 20, 21, 22, 23, 24, 25, 26, 27, 28, 29, 30, 31, 32, 33, 34, 35, 36, 37, 38, 39, 40, 41, 42, 43, 44, 45, 46, 47, 48, 49, 50, 51, 52, 53, 54, 55, 56, 57, 58, 59, 60, 61, 62, 63, 64, 65, 66, 67, 68, 69, 70, 71, 72, 73, 74, 75, 76, 77, 78, 79, 80, 81, 82, 83, 84, 85, 86, 87, 88, 89, 90, 91, 92, 93, 94, 95, 96, 97, 98, 99, 100, 101, 102, 103, 104, 105, 106, 107, 108, 109, 110, 111, 112, 113, 114, 115, 116, 117, 118, 119, 120, 121, 122, 123, 124, 125, 126, 127, 128, 129, 130, 131, 132, 133, 134, 135, 136, 137, 138, 139, 140, 141, 142, 143, 144, 145, 146, 147, 148, 149, 150, 151, 152, 153, 154, 155, 156, 157, 158, 159, 160, 161, 162, 163, 164, 165, 166, 167, 168, 169, 170, 171, 172, 173, 174, 175, 176, 177, 178, 179, 180, 181, 182, 183, 184, 185, 186, 187, 188, 189, 190, 191, 192, 193, 194, 195, 196, 197, 198, 199, 200, 201, 202, 203, 204, 205, 206, 207, 208, 209, 210, 211, 212, 213, 214, 215, 216, 217, 218, 219, 220, 221, 222, 223, 224, 225, 226, 227, 228, 229, 230, 231, 232, 233, 234, 235, 236, 237, 238, 239, 240, 241, 242, 243, 244, 245, 246, 247, 248, 249, 250, 251, 252, 253, 254, 255, 256, 257, 258, 259, 260, 261, 262, 263, 264, 265, 266, 267, 268, 269, 270, 271, 272, 273, 274, 275, 276, 277, 278, 279, 280, 281, 282, 283, 284, 285, 286, 287, 288, 289, 290, 291, 292, 293, 294, 295, 296, 297, 298, 299, 300, 301, 302, 303, 304, 305, 306, 307, 308, 309, 310, 311, 312, 313, 314, 315, 316, 317, 318, 319, 320, 321, 322, 323, 324, 325, 326, 327, 328, 329, 330, 331, 332, 333, 334, 335, 336, 337, 338, 339, 340, 341, 342, 343, 344, 345, 346, 347, 348, 349, 350, 351, 352, 353, 354, 355, 356, 357, 358, 359, 360, 361, 362, 363, 364, 365, 366, 367, 368, 369, 370, 371, 372, 373, 374, 375, 376, 377, 378, 379, 380, 381, 382, 383, 384, 385, 386, 387, 388, 389, 390, 391, 392, 393, 394, 395, 396, 397, 398, 399, 400, 401, 402, 403, 404, 405, 406, 407, 408, 409, 410, 411, 412, 413, 414, 415, 416, 417, 418, 419, 420, 421, 422, 423, 424, 425, 426, 427, 428, 429, 430, 431, 432, 433, 434, 435, 436, 437, 438, 439, 440, 441, 442, 443, 444, 445, 446, 447, 448, 449, 450, 451, 452, 453, 454, 455, 456, 457, 458, 459, 460, 461, 462, 463, 464, 465, 466, 467, 468, 469, 470, 471, 472, 473, 474, 475, 476, 477, 478, 479, 480, 481, 482, 483, 484, 485, 486, 487, 488, 489, 490, 491, 492, 493, 494, 495, 496, 497, 498, 499, 500, 501, 502, 503, 504, 505, 506, 507, 508, 509, 510, 511, 512, 513, 514, 515, 516, 517, 518, 519, 520, 521, 522, 523, 524, 525, 526, 527, 528, 529, 530, 531, 532, 533, 534, 535, 536, 537, 538, 539, 540, 541, 542, 543, 544, 545, 546, 547, 548, 549, 550, 551, 552, 553, 554, 555, 556, 557, 558, 559, 560, 561, 562, 563, 564, 565, 566, 567, 568, 569, 570, 571, 572, 573, 574, 575, 576, 577, 578, 579, 580, 581],
      "AcquisitionTime": ["143755.690000", "143756.477500", "143757.265000", "143758.052500", "143758.842500", "143759.630000", "143800.417500", "143801.205000", "143801.995000", "143802.782500", "143803.570000", "143804.357500", "143805.147500", "143805.935000", "143806.722500", "143807.512500", "143808.300000", "143809.087500", "143809.875000", "143810.665000", "143811.452500", "143812.240000", "143813.027500", "143813.817500", "143814.605000", "143815.392500", "143816.180000", "143816.970000", "143817.757500", "143818.545000", "143819.332500", "143820.122500", "143820.910000", "143821.697500", "143822.485000", "143823.275000", "143824.062500", "143824.850000", "143825.640000", "143826.427500", "143827.215000", "143828.002500", "143828.792500", "143829.580000", "143830.367500", "143831.155000", "143831.945000", "143832.732500", "143833.520000", "143834.307500", "143835.097500", "143835.885000", "143836.672500", "143837.460000", "143838.250000", "143839.037500", "143839.825000", "143840.612500", "143841.402500", "143842.190000", "143842.977500", "143843.767500", "143844.555000", "143845.342500", "143846.130000", "143846.920000", "143847.707500", "143848.495000", "143849.282500", "143850.072500", "143850.860000", "143851.647500", "143852.435000", "143853.225000", "143854.012500", "143854.800000", "143855.587500", "143856.377500", "143857.165000", "143857.952500", "143858.742500", "143859.530000", "143900.317500", "143901.105000", "143901.895000", "143902.682500", "143903.470000", "143904.257500", "143905.047500", "143905.835000", "143906.622500", "143907.410000", "143908.200000", "143908.987500", "143909.775000", "143910.562500", "143911.352500", "143912.140000", "143912.927500", "143913.715000", "143914.505000", "143915.292500", "143916.080000", "143916.870000", "143917.657500", "143918.445000", "143919.232500", "143920.022500", "143920.810000", "143921.597500", "143922.385000", "143923.175000", "143923.962500", "143924.750000", "143925.537500", "143926.327500", "143927.115000", "143927.902500", "143928.690000", "143929.480000", "143930.267500", "143931.055000", "143931.842500", "143932.632500", "143933.420000", "143934.207500", "143934.997500", "143935.785000", "143936.572500", "143937.360000", "143938.150000", "143938.937500", "143939.725000", "143940.512500", "143941.302500", "143942.090000", "143942.877500", "143943.665000", "143944.455000", "143945.242500", "143946.030000", "143946.817500", "143947.607500", "143948.395000", "143949.182500", "143949.970000", "143950.760000", "143951.547500", "143952.335000", "143953.125000", "143953.912500", "143954.700000", "143955.487500", "143956.277500", "143957.065000", "143957.852500", "143958.640000", "143959.430000", "144000.217500", "144001.005000", "144001.792500", "144002.582500", "144003.370000", "144004.157500", "144004.945000", "144005.735000", "144006.522500", "144007.310000", "144008.097500", "144008.887500", "144009.675000", "144010.462500", "144011.252500", "144012.040000", "144012.827500", "144013.615000", "144014.405000", "144015.192500", "144015.980000", "144016.767500", "144017.557500", "144018.345000", "144019.132500", "144019.920000", "144020.710000", "144021.497500", "144022.285000", "144023.072500", "144023.862500", "144024.650000", "144025.437500", "144026.225000", "144027.015000", "144027.802500", "144028.590000", "144029.380000", "144030.167500", "144030.955000", "144031.742500", "144032.532500", "144033.320000", "144034.107500", "144034.895000", "144035.685000", "144036.472500", "144037.260000", "144038.047500", "144038.837500", "144039.625000", "144040.412500", "144041.200000", "144041.990000", "144042.777500", "144043.565000", "144044.352500", "144045.142500", "144045.930000", "144046.717500", "144047.507500", "144048.295000", "144049.082500", "144049.870000", "144050.660000", "144051.447500", "144052.235000", "144053.022500", "144053.812500", "144054.600000", "144055.387500", "144056.175000", "144056.965000", "144057.752500", "144058.540000", "144059.327500", "144100.117500", "144100.905000", "144101.692500", "144102.480000", "144103.270000", "144104.057500", "144104.845000", "144105.635000", "144106.422500", "144107.210000", "144107.997500", "144108.787500", "144109.575000", "144110.362500", "144111.150000", "144111.940000", "144112.727500", "144113.515000", "144114.302500", "144115.092500", "144115.880000", "144116.667500", "144117.455000", "144118.245000", "144119.032500", "144119.820000", "144120.607500", "144121.397500", "144122.185000", "144122.972500", "144123.762500", "144124.550000", "144125.337500", "144126.125000", "144126.915000", "144127.702500", "144128.490000", "144129.277500", "144130.067500", "144130.855000", "144131.642500", "144132.430000", "144133.220000", "144134.007500", "144134.795000", "144135.582500", "144136.372500", "144137.160000", "144137.947500", "144138.735000", "144139.525000", "144140.312500", "144141.100000", "144141.890000", "144142.677500", "144143.465000", "144144.252500", "144145.042500", "144145.830000", "144146.617500", "144147.405000", "144148.195000", "144148.982500", "144149.770000", "144150.557500", "144151.347500", "144152.135000", "144152.922500", "144153.710000", "144154.500000", "144155.287500", "144156.075000", "144156.862500", "144157.652500", "144158.440000", "144159.227500", "144200.017500", "144200.805000", "144201.592500", "144202.380000", "144203.170000", "144203.957500", "144204.745000", "144205.532500", "144206.322500", "144207.110000", "144207.897500", "144208.685000", "144209.475000", "144210.262500", "144211.050000", "144211.837500", "144212.627500", "144213.415000", "144214.202500", "144214.992500", "144215.780000", "144216.567500", "144217.355000", "144218.145000", "144218.932500", "144219.720000", "144220.507500", "144221.297500", "144222.085000", "144222.872500", "144223.660000", "144224.450000", "144225.237500", "144226.025000", "144226.812500", "144227.602500", "144228.390000", "144229.177500", "144229.965000", "144230.755000", "144231.542500", "144232.330000", "144233.120000", "144233.907500", "144234.695000", "144235.482500", "144236.272500", "144237.060000", "144237.847500", "144238.635000", "144239.425000", "144240.212500", "144241.000000", "144241.787500", "144242.577500", "144243.365000", "144244.152500", "144244.940000", "144245.730000", "144246.517500", "144247.305000", "144248.092500", "144248.882500", "144249.670000", "144250.457500", "144251.247500", "144252.035000", "144252.822500", "144253.610000", "144254.400000", "144255.187500", "144255.975000", "144256.762500", "144257.552500", "144258.340000", "144259.127500", "144259.915000", "144300.705000", "144301.492500", "144302.280000", "144303.067500", "144303.857500", "144304.645000", "144305.432500", "144306.220000", "144307.010000", "144307.797500", "144308.585000", "144309.375000", "144310.162500", "144310.950000", "144311.737500", "144312.527500", "144313.315000", "144314.102500", "144314.890000", "144315.680000", "144316.467500", "144317.255000", "144318.042500", "144318.832500", "144319.620000", "144320.407500", "144321.195000", "144321.985000", "144322.772500", "144323.560000", "144324.347500", "144325.137500", "144325.925000", "144326.712500", "144327.502500", "144328.290000", "144329.077500", "144329.865000", "144330.655000", "144331.442500", "144332.230000", "144333.017500", "144333.807500", "144334.595000", "144335.382500", "144336.170000", "144336.960000", "144337.747500", "144338.535000", "144339.322500", "144340.112500", "144340.900000", "144341.687500", "144342.475000", "144343.265000", "144344.052500", "144344.840000", "144345.630000", "144346.417500", "144347.205000", "144347.992500", "144348.782500", "144349.570000", "144350.357500", "144351.145000", "144351.935000", "144352.722500", "144353.510000", "144354.297500", "144355.087500", "144355.875000", "144356.662500", "144357.450000", "144358.240000", "144359.027500", "144359.815000", "144400.602500", "144401.392500", "144402.180000", "144402.967500", "144403.757500", "144404.545000", "144405.332500", "144406.120000", "144406.910000", "144407.697500", "144408.485000", "144409.272500", "144410.062500", "144410.850000", "144411.637500", "144412.425000", "144413.215000", "144414.002500", "144414.790000", "144415.577500", "144416.367500", "144417.155000", "144417.942500", "144418.730000", "144419.520000", "144420.307500", "144421.095000", "144421.885000", "144422.672500", "144423.460000", "144424.247500", "144425.037500", "144425.825000", "144426.612500", "144427.400000", "144428.190000", "144428.977500", "144429.765000", "144430.552500", "144431.342500", "144432.130000", "144432.917500", "144433.705000", "144434.495000", "144435.282500", "144436.070000", "144436.857500", "144437.647500", "144438.435000", "144439.222500", "144440.012500", "144440.800000", "144441.587500", "144442.375000", "144443.165000", "144443.952500", "144444.740000", "144445.527500", "144446.317500", "144447.105000", "144447.892500", "144448.680000", "144449.470000", "144450.257500", "144451.045000", "144451.832500", "144452.622500", "144453.410000", "144454.197500", "144454.985000", "144455.775000", "144456.562500", "144457.350000", "144458.140000", "144458.927500", "144459.715000", "144500.502500", "144501.292500", "144502.080000", "144502.867500", "144503.655000", "144504.445000", "144505.232500", "144506.020000", "144506.807500", "144507.597500", "144508.385000", "144509.172500", "144509.960000", "144510.750000", "144511.537500", "144512.325000", "144513.112500", "144513.902500", "144514.690000", "144515.477500", "144516.267500", "144517.055000", "144517.842500", "144518.630000", "144519.420000", "144520.207500", "144520.995000", "144521.782500", "144522.572500", "144523.360000", "144524.147500", "144524.935000", "144525.725000", "144526.512500", "144527.300000", "144528.087500", "144528.877500", "144529.665000", "144530.452500", "144531.242500", "144532.030000", "144532.817500"],
      "ContentTime": ["143824.093000", "143824.093000", "143824.093000", "143824.109000", "143824.109000", "143824.109000", "143824.109000", "143824.109000", "143824.109000", "143824.109000", "143824.109000", "143824.125000", "143824.125000", "143824.125000", "143824.125000", "143824.125000", "143824.125000", "143824.125000", "143824.140000", "143824.140000", "143824.140000", "143824.140000", "143824.140000", "143824.140000", "143824.140000", "143824.156000", "143824.156000", "143824.156000", "143824.156000", "143824.156000", "143824.156000", "143824.156000", "143824.156000", "143844.062000", "143844.062000", "143844.062000", "143844.078000", "143844.078000", "143844.078000", "143844.078000", "143844.078000", "143844.078000", "143844.078000", "143844.093000", "143844.093000", "143844.093000", "143844.093000", "143844.093000", "143844.093000", "143844.093000", "143844.093000", "143844.109000", "143844.109000", "143844.109000", "143844.109000", "143844.109000", "143844.109000", "143844.109000", "143904.062000", "143904.062000", "143904.062000", "143904.078000", "143904.078000", "143904.078000", "143904.078000", "143904.078000", "143904.078000", "143904.078000", "143904.093000", "143904.093000", "143904.093000", "143904.093000", "143904.093000", "143904.093000", "143904.093000", "143904.093000", "143904.109000", "143904.109000", "143904.109000", "143904.109000", "143904.109000", "143904.109000", "143904.109000", "143904.125000", "143924.062000", "143924.062000", "143924.062000", "143924.078000", "143924.078000", "143924.078000", "143924.078000", "143924.078000", "143924.078000", "143924.078000", "143924.093000", "143924.093000", "143924.093000", "143924.093000", "143924.093000", "143924.093000", "143924.093000", "143924.109000", "143924.109000", "143924.109000", "143924.109000", "143924.109000", "143924.109000", "143924.109000", "143924.109000", "143944.062000", "143944.062000", "143944.062000", "143944.078000", "143944.078000", "143944.078000", "143944.078000", "143944.078000", "143944.078000", "143944.078000", "143944.093000", "143944.093000", "143944.093000", "143944.093000", "143944.093000", "143944.093000", "143944.093000", "143944.109000", "143944.109000", "143944.109000", "143944.109000", "143944.109000", "143944.109000", "143944.109000", "143944.125000", "143944.125000", "144004.062000", "144004.062000", "144004.078000", "144004.078000", "144004.078000", "144004.078000", "144004.078000", "144004.078000", "144004.078000", "144004.078000", "144004.093000", "144004.093000", "144004.093000", "144004.093000", "144004.093000", "144004.093000", "144004.093000", "144004.093000", "144004.109000", "144004.109000", "144004.109000", "144004.109000", "144004.125000", "144004.125000", "144004.125000", "144024.062000", "144024.062000", "144024.062000", "144024.078000", "144024.078000", "144024.078000", "144024.078000", "144024.078000", "144024.078000", "144024.078000", "144024.093000", "144024.093000", "144024.093000", "144024.093000", "144024.093000", "144024.093000", "144024.093000", "144024.109000", "144024.109000", "144024.109000", "144024.109000", "144024.109000", "144024.109000", "144024.109000", "144024.125000", "144024.125000", "144044.062000", "144044.062000", "144044.062000", "144044.078000", "144044.078000", "144044.078000", "144044.078000", "144044.078000", "144044.078000", "144044.078000", "144044.093000", "144044.093000", "144044.093000", "144044.093000", "144044.093000", "144044.093000", "144044.093000", "144044.109000", "144044.109000", "144044.109000", "144044.109000", "144044.109000", "144044.109000", "144044.109000", "144044.109000", "144104.062000", "144104.062000", "144104.062000", "144104.078000", "144104.078000", "144104.078000", "144104.078000", "144104.078000", "144104.078000", "144104.078000", "144104.093000", "144104.093000", "144104.093000", "144104.093000", "144104.093000", "144104.109000", "144104.109000", "144104.109000", "144104.109000", "144104.109000", "144104.109000", "144104.109000", "144104.125000", "144104.125000", "144104.125000", "144124.062000", "144124.062000", "144124.062000", "144124.078000", "144124.078000", "144124.078000", "144124.078000", "144124.078000", "144124.078000", "144124.078000", "144124.093000", "144124.093000", "144124.093000", "144124.093000", "144124.093000", "144124.093000", "144124.093000", "144124.093000", "144124.109000", "144124.109000", "144124.109000", "144124.109000", "144124.109000", "144124.109000", "144124.109000", "144124.125000", "144144.062000", "144144.062000", "144144.078000", "144144.078000", "144144.078000", "144144.078000", "144144.078000", "144144.078000", "144144.078000", "144144.078000", "144144.093000", "144144.093000", "144144.093000", "144144.093000", "144144.109000", "144144.109000", "144144.109000", "144144.109000", "144144.109000", "144144.109000", "144144.109000", "144144.109000", "144144.125000", "144144.125000", "144144.125000", "144204.062000", "144204.062000", "144204.078000", "144204.078000", "144204.078000", "144204.078000", "144204.078000", "144204.078000", "144204.078000", "144204.078000", "144204.093000", "144204.093000", "144204.093000", "144204.093000", "144204.093000", "144204.093000", "144204.093000", "144204.109000", "144204.109000", "144204.109000", "144204.109000", "144204.109000", "144204.109000", "144204.109000", "144204.109000", "144204.125000", "144224.062000", "144224.062000", "144224.078000", "144224.078000", "144224.078000", "144224.078000", "144224.078000", "144224.078000", "144224.078000", "144224.078000", "144224.093000", "144224.093000", "144224.093000", "144224.093000", "144224.093000", "144224.093000", "144224.109000", "144224.109000", "144224.109000", "144224.109000", "144224.109000", "144224.109000", "144224.109000", "144224.125000", "144224.125000", "144244.062000", "144244.062000", "144244.062000", "144244.078000", "144244.078000", "144244.078000", "144244.078000", "144244.078000", "144244.078000", "144244.078000", "144244.093000", "144244.093000", "144244.093000", "144244.093000", "144244.093000", "144244.093000", "144244.093000", "144244.093000", "144244.109000", "144244.109000", "144244.109000", "144244.109000", "144244.109000", "144244.109000", "144244.109000", "144244.125000", "144304.062000", "144304.062000", "144304.078000", "144304.078000", "144304.078000", "144304.078000", "144304.078000", "144304.078000", "144304.078000", "144304.078000", "144304.093000", "144304.093000", "144304.093000", "144304.093000", "144304.093000", "144304.093000", "144304.093000", "144304.093000", "144304.109000", "144304.109000", "144304.109000", "144304.109000", "144304.109000", "144304.109000", "144304.125000", "144324.062000", "144324.062000", "144324.062000", "144324.078000", "144324.078000", "144324.078000", "144324.078000", "144324.078000", "144324.078000", "144324.078000", "144324.093000", "144324.093000", "144324.093000", "144324.093000", "144324.093000", "144324.109000", "144324.109000", "144324.109000", "144324.109000", "144324.109000", "144324.109000", "144324.125000", "144324.125000", "144324.125000", "144324.125000", "144324.125000", "144344.062000", "144344.062000", "144344.062000", "144344.078000", "144344.078000", "144344.078000", "144344.078000", "144344.078000", "144344.078000", "144344.093000", "144344.093000", "144344.093000", "144344.093000", "144344.093000", "144344.093000", "144344.093000", "144344.109000", "144344.109000", "144344.109000", "144344.109000", "144344.109000", "144344.109000", "144344.109000", "144344.125000", "144344.125000", "144404.062000", "144404.062000", "144404.062000", "144404.078000", "144404.078000", "144404.078000", "144404.078000", "144404.078000", "144404.078000", "144404.078000", "144404.093000", "144404.093000", "144404.093000", "144404.093000", "144404.093000", "144404.093000", "144404.093000", "144404.093000", "144404.109000", "144404.109000", "144404.109000", "144404.109000", "144404.109000", "144404.109000", "144404.125000", "144404.125000", "144424.062000", "144424.062000", "144424.062000", "144424.078000", "144424.078000", "144424.078000", "144424.078000", "144424.078000", "144424.078000", "144424.078000", "144424.093000", "144424.093000", "144424.093000", "144424.093000", "144424.093000", "144424.093000", "144424.093000", "144424.109000", "144424.109000", "144424.109000", "144424.109000", "144424.109000", "144424.109000", "144424.109000", "144424.109000", "144444.062000", "144444.062000", "144444.062000", "144444.078000", "144444.078000", "144444.078000", "144444.078000", "144444.078000", "144444.078000", "144444.078000", "144444.093000", "144444.093000", "144444.093000", "144444.093000", "144444.093000", "144444.093000", "144444.093000", "144444.109000", "144444.109000", "144444.109000", "144444.109000", "144444.109000", "144444.109000", "144444.109000", "144444.109000", "144444.125000", "144504.062000", "144504.062000", "144504.078000", "144504.078000", "144504.078000", "144504.078000", "144504.078000", "144504.078000", "144504.093000", "144504.093000", "144504.093000", "144504.093000", "144504.093000", "144504.093000", "144504.093000", "144504.109000", "144504.109000", "144504.109000", "144504.109000", "144504.109000", "144504.109000", "144504.109000", "144504.109000", "144504.125000", "144504.125000", "144524.062000", "144524.062000", "144524.078000", "144524.078000", "144524.078000", "144524.078000", "144524.078000", "144524.078000", "144524.078000", "144524.078000", "144524.093000", "144524.093000", "144524.093000", "144524.093000", "144524.093000", "144524.093000", "144524.093000", "144524.109000", "144524.109000", "144524.109000", "144524.109000", "144524.109000", "144524.109000", "144524.109000", "144524.125000", "144524.125000", "144534.187000", "144534.187000", "144534.187000", "144534.203000", "144534.203000", "144534.203000", "144534.203000", "144534.203000", "144534.203000", "144534.203000", "144534.218000", "144534.218000", "144534.218000"],
