{
  "AcquisitionMatrixPE": 104,
  "AcquisitionNumber": 1,
  "AcquisitionTime": "14:53:56.687500",
  "BandwidthPerPixelPhaseEncode": 13.935,
  "BaseResolution": 104,
  "CoilString": "C:HEA;HEP",
  "ConversionSoftware": "dcm2niix",
  "ConversionSoftwareVersion": "v1.0.20210317",
  "DerivedVendorReportedEchoSpacing": 0.000690017,
  "DeviceSerialNumber": "35450",
  "DwellTime": 2.5e-06,
  "EchoTime": 0.0348,
  "EffectiveEchoSpacing": 0.000690017,
  "FlipAngle": 55,
  "ImageComments": "Unaliased MB8/PE3 (remote)",
  "ImageOrientationPatientDICOM": [1, 0, 0, 0, 0.990024, -0.140901],
  "ImageType": [
    "ORIGINAL",
    "PRIMARY",
    "M",
    "MB",
    "ND",
    "MOSAIC"
],
  "ImagingFrequency": 123.235,
  "InPlanePhaseEncodingDirectionDICOM": "COL",
  "InstitutionAddress": "Univeristy Ave. 197,Newark,North East,US,07102-1814",
  "InstitutionName": "RUBIC",
  "InstitutionalDepartmentName": "Department",
  "MRAcquisitionType": "2D",
  "MagneticFieldStrength": 3,
  "Manufacturer": "Siemens",
  "ManufacturersModelName": "TrioTim",
  "Modality": "MR",
  "MultibandAccelerationFactor": 8,
  "PartialFourier": 0.875,
  "PatientPosition": "HFS",
  "PercentPhaseFOV": 100,
  "PercentSampling": 100,
  "PhaseEncodingDirection": "j-",
  "PhaseEncodingSteps": 91,
  "PhaseResolution": 1,
  "PixelBandwidth": 1923,
  "ProcedureStepDescription": "Cole^Michael",
  "ProtocolName": "cmrr_mbep2d_bold_2mm_MB8_Task_8x",
  "PulseSequenceDetails": "%CustomerSeq%\\cmrr_mbep2d_bold",
  "ReceiveCoilName": "32Ch_Head",
  "ReconMatrixPE": 104,
  "RepetitionTime": 0.785,
  "SAR": 0.112743,
  "ScanOptions": "PFP\\FS",
  "ScanningSequence": "EP",
  "SequenceName": "epfid2d1_104",
  "SequenceVariant": "SK\\SS",
  "SeriesDescription": "cmrr_mbep2d_bold_2mm_MB8_Task_8x",
  "SeriesNumber": 19,
  "ShimSetting": [2139, -400, -7204, 318, -61, -177, 4, -87],
  "SliceThickness": 2,
  "SliceTiming": [0, 0.4375, 0.0875, 0.525, 0.175, 0.6125, 0.2625, 0.7, 0.35, 0, 0.4375, 0.0875, 0.525, 0.175, 0.6125, 0.2625, 0.7, 0.35, 0, 0.4375, 0.0875, 0.525, 0.175, 0.6125, 0.2625, 0.7, 0.35, 0, 0.4375, 0.0875, 0.525, 0.175, 0.6125, 0.2625, 0.7, 0.35, 0, 0.4375, 0.0875, 0.525, 0.175, 0.6125, 0.2625, 0.7, 0.35, 0, 0.4375, 0.0875, 0.525, 0.175, 0.6125, 0.2625, 0.7, 0.35, 0, 0.4375, 0.0875, 0.525, 0.175, 0.6125, 0.2625, 0.7, 0.35, 0, 0.4375, 0.0875, 0.525, 0.175, 0.6125, 0.2625, 0.7, 0.35],
  "SoftwareVersions": "syngo MR B19",
  "SpacingBetweenSlices": 2,
  "StationName": "MRC35450",
  "TaskName": "cpro",
  "TotalReadoutTime": 0.0710717,
  "TxRefAmp": 319.515,
  "dcmmeta_affine": [
    [-2.0, 0.0, 0.0, 100.61016845703125],
    [0.0, 1.980047345161438, -0.2818024754524231, -76.82847595214844],
    [0.0, 0.2818024754524231, 1.980047345161438, -105.8349609375],
    [0.0, 0.0, 0.0, 1.0]
],
  "dcmmeta_reorient_transform": [
    [0.0, -1.0, 0.0, 103.0],
    [1.0, 0.0, 0.0, 0.0],
    [0.0, 0.0, 1.0, 0.0],
    [0.0, 0.0, 0.0, 1.0]
],
  "dcmmeta_shape": [104, 104, 72, 581],
  "dcmmeta_slice_dim": 2,
  "dcmmeta_version": 0.6,
  "global": {
    "const": {
      "AcquisitionMatrix": [104, 0, 0, 104],
      "AngioFlag": "N",
      "BitsAllocated": 16,
      "BitsStored": 12,
      "Columns": 936,
      "EchoNumbers": 1,
      "EchoTime": 34.8,
      "EchoTrainLength": 1,
      "FlipAngle": 55.0,
      "HighBit": 11,
      "ImageOrientationPatient": [1.0, 0.0, 0.0, 0.0, 0.99002365739342, -0.1409012342081],
      "ImagePositionPatient": [-932.61016941071, -950.8160816137, 40.420519635276],
      "ImageType": [
        "ORIGINAL",
        "PRIMARY",
        "M",
        "MB",
        "ND",
        "MOSAIC"
],
      "ImagedNucleus": "1H",
      "ImagingFrequency": 123.234512,
      "InPlanePhaseEncodingDirection": "COL",
      "MRAcquisitionType": "2D",
      "MagneticFieldStrength": 3.0,
      "Manufacturer": "SIEMENS",
      "ManufacturerModelName": "TrioTim",
      "Modality": "MR",
      "NumberOfAverages": 1.0,
      "NumberOfPhaseEncodingSteps": 91,
      "PercentPhaseFieldOfView": 100.0,
      "PercentSampling": 100.0,
      "PerformedProcedureStepStartTime": "133429.765000",
      "PhotometricInterpretation": "MONOCHROME2",
      "PixelBandwidth": 1923.0,
      "PixelRepresentation": 0,
      "PixelSpacing": [2.0, 2.0],
      "ProtocolName": "cmrr_mbep2d_bold_2mm_MB8_Task_8x",
      "RepetitionTime": 785.0,
      "Rows": 936,
      "SAR": 0.11274323485112,
      "SamplesPerPixel": 1,
      "ScanOptions": [
        "PFP",
        "FS"
],
      "ScanningSequence": "EP",
      "SequenceName": "epfid2d1_104",
      "SequenceVariant": [
        "SK",
        "SS"
],
      "SeriesDescription": "cmrr_mbep2d_bold_2mm_MB8_Task_8x",
      "SeriesNumber": 19,
      "SeriesTime": "145424.031000",
      "SliceLocation": -93.953888721211,
      "SliceThickness": 2.0,
      "SmallestImagePixelValue": 0,
      "SoftwareVersions": "syngo MR B19",
      "SpacingBetweenSlices": 1.99999999153,
      "SpecificCharacterSet": "ISO_IR 100",
      "StudyID": "1",
      "StudyTime": "133429.687000",
      "TransmitCoilName": "Body",
      "VariableFlipAngleFlag": "N",
      "WindowCenterWidthExplanation": "Algo1",
      "dBdt": 0.0},
    "slices": {}
  },
  "time": {
    "samples": {
      "AcquisitionNumber": [1, 2, 3, 4, 5, 6, 7, 8, 9, 10, 11, 12, 13, 14, 15, 16, 17, 18, 19, 20, 21, 22, 23, 24, 25, 26, 27, 28, 29, 30, 31, 32, 33, 34, 35, 36, 37, 38, 39, 40, 41, 42, 43, 44, 45, 46, 47, 48, 49, 50, 51, 52, 53, 54, 55, 56, 57, 58, 59, 60, 61, 62, 63, 64, 65, 66, 67, 68, 69, 70, 71, 72, 73, 74, 75, 76, 77, 78, 79, 80, 81, 82, 83, 84, 85, 86, 87, 88, 89, 90, 91, 92, 93, 94, 95, 96, 97, 98, 99, 100, 101, 102, 103, 104, 105, 106, 107, 108, 109, 110, 111, 112, 113, 114, 115, 116, 117, 118, 119, 120, 121, 122, 123, 124, 125, 126, 127, 128, 129, 130, 131, 132, 133, 134, 135, 136, 137, 138, 139, 140, 141, 142, 143, 144, 145, 146, 147, 148, 149, 150, 151, 152, 153, 154, 155, 156, 157, 158, 159, 160, 161, 162, 163, 164, 165, 166, 167, 168, 169, 170, 171, 172, 173, 174, 175, 176, 177, 178, 179, 180, 181, 182, 183, 184, 185, 186, 187, 188, 189, 190, 191, 192, 193, 194, 195, 196, 197, 198, 199, 200, 201, 202, 203, 204, 205, 206, 207, 208, 209, 210, 211, 212, 213, 214, 215, 216, 217, 218, 219, 220, 221, 222, 223, 224, 225, 226, 227, 228, 229, 230, 231, 232, 233, 234, 235, 236, 237, 238, 239, 240, 241, 242, 243, 244, 245, 246, 247, 248, 249, 250, 251, 252, 253, 254, 255, 256, 257, 258, 259, 260, 261, 262, 263, 264, 265, 266, 267, 268, 269, 270, 271, 272, 273, 274, 275, 276, 277, 278, 279, 280, 281, 282, 283, 284, 285, 286, 287, 288, 289, 290, 291, 292, 293, 294, 295, 296, 297, 298, 299, 300, 301, 302, 303, 304, 305, 306, 307, 308, 309, 310, 311, 312, 313, 314, 315, 316, 317, 318, 319, 320, 321, 322, 323, 324, 325, 326, 327, 328, 329, 330, 331, 332, 333, 334, 335, 336, 337, 338, 339, 340, 341, 342, 343, 344, 345, 346, 347, 348, 349, 350, 351, 352, 353, 354, 355, 356, 357, 358, 359, 360, 361, 362, 363, 364, 365, 366, 367, 368, 369, 370, 371, 372, 373, 374, 375, 376, 377, 378, 379, 380, 381, 382, 383, 384, 385, 386, 387, 388, 389, 390, 391, 392, 393, 394, 395, 396, 397, 398, 399, 400, 401, 402, 403, 404, 405, 406, 407, 408, 409, 410, 411, 412, 413, 414, 415, 416, 417, 418, 419, 420, 421, 422, 423, 424, 425, 426, 427, 428, 429, 430, 431, 432, 433, 434, 435, 436, 437, 438, 439, 440, 441, 442, 443, 444, 445, 446, 447, 448, 449, 450, 451, 452, 453, 454, 455, 456, 457, 458, 459, 460, 461, 462, 463, 464, 465, 466, 467, 468, 469, 470, 471, 472, 473, 474, 475, 476, 477, 478, 479, 480, 481, 482, 483, 484, 485, 486, 487, 488, 489, 490, 491, 492, 493, 494, 495, 496, 497, 498, 499, 500, 501, 502, 503, 504, 505, 506, 507, 508, 509, 510, 511, 512, 513, 514, 515, 516, 517, 518, 519, 520, 521, 522, 523, 524, 525, 526, 527, 528, 529, 530, 531, 532, 533, 534, 535, 536, 537, 538, 539, 540, 541, 542, 543, 544, 545, 546, 547, 548, 549, 550, 551, 552, 553, 554, 555, 556, 557, 558, 559, 560, 561, 562, 563, 564, 565, 566, 567, 568, 569, 570, 571, 572, 573, 574, 575, 576, 577, 578, 579, 580, 581],
      "AcquisitionTime": ["145356.687500", "145357.477500", "145358.265000", "145359.052500", "145359.840000", "145400.630000", "145401.417500", "145402.205000", "145402.992500", "145403.782500", "145404.570000", "145405.357500", "145406.145000", "145406.935000", "145407.722500", "145408.510000", "145409.300000", "145410.087500", "145410.875000", "145411.662500", "145412.452500", "145413.240000", "145414.027500", "145414.815000", "145415.605000", "145416.392500", "145417.180000", "145417.967500", "145418.757500", "145419.545000", "145420.332500", "145421.120000", "145421.910000", "145422.697500", "145423.485000", "145424.272500", "145425.062500", "145425.850000", "145426.637500", "145427.427500", "145428.215000", "145429.002500", "145429.790000", "145430.580000", "145431.367500", "145432.155000", "145432.942500", "145433.732500", "145434.520000", "145435.307500", "145436.095000", "145436.885000", "145437.672500", "145438.460000", "145439.247500", "145440.037500", "145440.825000", "145441.612500", "145442.400000", "145443.190000", "145443.977500", "145444.765000", "145445.555000", "145446.342500", "145447.130000", "145447.917500", "145448.707500", "145449.495000", "145450.282500", "145451.070000", "145451.860000", "145452.647500", "145453.435000", "145454.222500", "145455.012500", "145455.800000", "145456.587500", "145457.375000", "145458.165000", "145458.952500", "145459.740000", "145500.527500", "145501.317500", "145502.105000", "145502.892500", "145503.682500", "145504.470000", "145505.257500", "145506.045000", "145506.835000", "145507.622500", "145508.410000", "145509.197500", "145509.987500", "145510.775000", "145511.562500", "145512.350000", "145513.140000", "145513.927500", "145514.715000", "145515.502500", "145516.292500", "145517.080000", "145517.867500", "145518.655000", "145519.445000", "145520.232500", "145521.020000", "145521.810000", "145522.597500", "145523.385000", "145524.172500", "145524.962500", "145525.750000", "145526.537500", "145527.325000", "145528.115000", "145528.902500", "145529.690000", "145530.477500", "145531.267500", "145532.055000", "145532.842500", "145533.630000", "145534.420000", "145535.207500", "145535.995000", "145536.782500", "145537.572500", "145538.360000", "145539.147500", "145539.937500", "145540.725000", "145541.512500", "145542.300000", "145543.090000", "145543.877500", "145544.665000", "145545.452500", "145546.242500", "145547.030000", "145547.817500", "145548.605000", "145549.395000", "145550.182500", "145550.970000", "145551.757500", "145552.547500", "145553.335000", "145554.122500", "145554.910000", "145555.700000", "145556.487500", "145557.275000", "145558.065000", "145558.852500", "145559.640000", "145600.427500", "145601.217500", "145602.005000", "145602.792500", "145603.580000", "145604.370000", "145605.157500", "145605.945000", "145606.732500", "145607.522500", "145608.310000", "145609.097500", "145609.885000", "145610.675000", "145611.462500", "145612.250000", "145613.037500", "145613.827500", "145614.615000", "145615.402500", "145616.192500", "145616.980000", "145617.767500", "145618.555000", "145619.345000", "145620.132500", "145620.920000", "145621.707500", "145622.497500", "145623.285000", "145624.072500", "145624.860000", "145625.650000", "145626.437500", "145627.225000", "145628.012500", "145628.802500", "145629.590000", "145630.377500", "145631.165000", "145631.955000", "145632.742500", "145633.530000", "145634.320000", "145635.107500", "145635.895000", "145636.682500", "145637.472500", "145638.260000", "145639.047500", "145639.835000", "145640.625000", "145641.412500", "145642.200000", "145642.987500", "145643.777500", "145644.565000", "145645.352500", "145646.140000", "145646.930000", "145647.717500", "145648.505000", "145649.292500", "145650.082500", "145650.870000", "145651.657500", "145652.447500", "145653.235000", "145654.022500", "145654.810000", "145655.600000", "145656.387500", "145657.175000", "145657.962500", "145658.752500", "145659.540000", "145700.327500", "145701.115000", "145701.905000", "145702.692500", "145703.480000", "145704.267500", "145705.057500", "145705.845000", "145706.632500", "145707.422500", "145708.210000", "145708.997500", "145709.785000", "145710.575000", "145711.362500", "145712.150000", "145712.937500", "145713.727500", "145714.515000", "145715.302500", "145716.090000", "145716.880000", "145717.667500", "145718.455000", "145719.242500", "145720.032500", "145720.820000", "145721.607500", "145722.395000", "145723.185000", "145723.972500", "145724.760000", "145725.550000", "145726.337500", "145727.125000", "145727.912500", "145728.702500", "145729.490000", "145730.277500", "145731.065000", "145731.855000", "145732.642500", "145733.430000", "145734.217500", "145735.007500", "145735.795000", "145736.582500", "145737.370000", "145738.160000", "145738.947500", "145739.735000", "145740.522500", "145741.312500", "145742.100000", "145742.887500", "145743.677500", "145744.465000", "145745.252500", "145746.040000", "145746.830000", "145747.617500", "145748.405000", "145749.192500", "145749.982500", "145750.770000", "145751.557500", "145752.345000", "145753.135000", "145753.922500", "145754.710000", "145755.497500", "145756.287500", "145757.075000", "145757.862500", "145758.650000", "145759.440000", "145800.227500", "145801.015000", "145801.805000", "145802.592500", "145803.380000", "145804.167500", "145804.957500", "145805.745000", "145806.532500", "145807.320000", "145808.110000", "145808.897500", "145809.685000", "145810.472500", "145811.262500", "145812.050000", "145812.837500", "145813.625000", "145814.415000", "145815.202500", "145815.990000", "145816.777500", "145817.567500", "145818.355000", "145819.142500", "145819.932500", "145820.720000", "145821.507500", "145822.295000", "145823.085000", "145823.872500", "145824.660000", "145825.447500", "145826.237500", "145827.025000", "145827.812500", "145828.600000", "145829.390000", "145830.177500", "145830.965000", "145831.752500", "145832.542500", "145833.330000", "145834.117500", "145834.905000", "145835.695000", "145836.482500", "145837.270000", "145838.060000", "145838.847500", "145839.635000", "145840.422500", "145841.212500", "145842.000000", "145842.787500", "145843.575000", "145844.365000", "145845.152500", "145845.940000", "145846.727500", "145847.517500", "145848.305000", "145849.092500", "145849.880000", "145850.670000", "145851.457500", "145852.245000", "145853.032500", "145853.822500", "145854.610000", "145855.397500", "145856.187500", "145856.975000", "145857.762500", "145858.550000", "145859.340000", "145900.127500", "145900.915000", "145901.702500", "145902.492500", "145903.280000", "145904.067500", "145904.855000", "145905.645000", "145906.432500", "145907.220000", "145908.007500", "145908.797500", "145909.585000", "145910.372500", "145911.160000", "145911.950000", "145912.737500", "145913.525000", "145914.315000", "145915.102500", "145915.890000", "145916.677500", "145917.467500", "145918.255000", "145919.042500", "145919.830000", "145920.620000", "145921.407500", "145922.195000", "145922.982500", "145923.772500", "145924.560000", "145925.347500", "145926.135000", "145926.925000", "145927.712500", "145928.500000", "145929.287500", "145930.077500", "145930.865000", "145931.652500", "145932.442500", "145933.230000", "145934.017500", "145934.805000", "145935.595000", "145936.382500", "145937.170000", "145937.957500", "145938.747500", "145939.535000", "145940.322500", "145941.110000", "145941.900000", "145942.687500", "145943.475000", "145944.262500", "145945.052500", "145945.840000", "145946.627500", "145947.415000", "145948.205000", "145948.992500", "145949.780000", "145950.570000", "145951.357500", "145952.145000", "145952.932500", "145953.722500", "145954.510000", "145955.297500", "145956.085000", "145956.875000", "145957.662500", "145958.450000", "145959.237500", "150000.027500", "150000.815000", "150001.602500", "150002.390000", "150003.180000", "150003.967500", "150004.755000", "150005.542500", "150006.332500", "150007.120000", "150007.907500", "150008.697500", "150009.485000", "150010.272500", "150011.060000", "150011.850000", "150012.637500", "150013.425000", "150014.212500", "150015.002500", "150015.790000", "150016.577500", "150017.365000", "150018.155000", "150018.942500", "150019.730000", "150020.517500", "150021.307500", "150022.095000", "150022.882500", "150023.672500", "150024.460000", "150025.247500", "150026.035000", "150026.825000", "150027.612500", "150028.400000", "150029.187500", "150029.977500", "150030.765000", "150031.552500", "150032.340000", "150033.130000", "150033.917500", "150034.705000", "150035.492500", "150036.282500", "150037.070000", "150037.857500", "150038.645000", "150039.435000", "150040.222500", "150041.010000", "150041.800000", "150042.587500", "150043.375000", "150044.162500", "150044.952500", "150045.740000", "150046.527500", "150047.315000", "150048.105000", "150048.892500", "150049.680000", "150050.467500", "150051.257500", "150052.045000", "150052.832500", "150053.620000", "150054.410000", "150055.197500", "150055.985000", "150056.772500", "150057.562500", "150058.350000", "150059.137500", "150059.927500", "150100.715000", "150101.502500", "150102.290000", "150103.080000", "150103.867500", "150104.655000", "150105.442500", "150106.232500", "150107.020000", "150107.807500", "150108.595000", "150109.385000", "150110.172500", "150110.960000", "150111.747500", "150112.537500", "150113.325000", "150114.112500", "150114.900000", "150115.690000", "150116.477500", "150117.265000", "150118.055000", "150118.842500", "150119.630000", "150120.417500", "150121.207500", "150121.995000", "150122.782500", "150123.570000", "150124.360000", "150125.147500", "150125.935000", "150126.722500", "150127.512500", "150128.300000", "150129.087500", "150129.875000", "150130.665000", "150131.452500", "150132.240000", "150133.027500", "150133.817500"],
      "ContentTime": ["145424.031000", "145424.031000", "145424.031000", "145424.031000", "145424.031000", "145424.031000", "145424.046000", "145424.046000", "145424.046000", "145424.046000", "145424.046000", "145424.046000", "145424.046000", "145424.046000", "145424.062000", "145424.062000", "145424.062000", "145424.062000", "145424.062000", "145424.062000", "145424.078000", "145424.078000", "145424.078000", "145424.078000", "145424.078000", "145424.078000", "145424.093000", "145424.093000", "145424.093000", "145424.093000", "145424.093000", "145424.093000", "145444.000000", "145444.000000", "145444.000000", "145444.015000", "145444.015000", "145444.015000", "145444.015000", "145444.015000", "145444.015000", "145444.015000", "145444.031000", "145444.031000", "145444.031000", "145444.031000", "145444.031000", "145444.031000", "145444.031000", "145444.031000", "145444.046000", "145444.046000", "145444.046000", "145444.046000", "145444.046000", "145444.046000", "145444.046000", "145504.000000", "145504.000000", "145504.015000", "145504.015000", "145504.015000", "145504.015000", "145504.015000", "145504.015000", "145504.015000", "145504.015000", "145504.031000", "145504.031000", "145504.031000", "145504.031000", "145504.031000", "145504.031000", "145504.031000", "145504.031000", "145504.046000", "145504.046000", "145504.046000", "145504.046000", "145504.046000", "145504.046000", "145504.046000", "145504.046000", "145524.000000", "145524.000000", "145524.000000", "145524.015000", "145524.015000", "145524.015000", "145524.015000", "145524.015000", "145524.015000", "145524.015000", "145524.031000", "145524.031000", "145524.031000", "145524.031000", "145524.031000", "145524.031000", "145524.031000", "145524.031000", "145524.046000", "145524.046000", "145524.046000", "145524.046000", "145524.046000", "145524.046000", "145524.046000", "145544.000000", "145544.000000", "145544.015000", "145544.015000", "145544.015000", "145544.015000", "145544.015000", "145544.015000", "145544.015000", "145544.031000", "145544.031000", "145544.031000", "145544.031000", "145544.031000", "145544.031000", "145544.031000", "145544.031000", "145544.046000", "145544.046000", "145544.046000", "145544.046000", "145544.046000", "145544.046000", "145544.046000", "145544.062000", "145544.062000", "145604.000000", "145604.000000", "145604.000000", "145604.015000", "145604.015000", "145604.015000", "145604.015000", "145604.015000", "145604.015000", "145604.015000", "145604.031000", "145604.031000", "145604.031000", "145604.031000", "145604.031000", "145604.031000", "145604.031000", "145604.031000", "145604.046000", "145604.046000", "145604.046000", "145604.046000", "145604.046000", "145604.062000", "145604.062000", "145624.000000", "145624.000000", "145624.000000", "145624.015000", "145624.015000", "145624.015000", "145624.015000", "145624.015000", "145624.015000", "145624.031000", "145624.031000", "145624.031000", "145624.031000", "145624.031000", "145624.031000", "145624.031000", "145624.031000", "145624.046000", "145624.046000", "145624.046000", "145624.046000", "145624.046000", "145624.046000", "145624.062000", "145624.062000", "145624.062000", "145644.000000", "145644.000000", "145644.000000", "145644.015000", "145644.015000", "145644.015000", "145644.015000", "145644.015000", "145644.015000", "145644.015000", "145644.031000", "145644.031000", "145644.031000", "145644.031000", "145644.031000", "145644.031000", "145644.031000", "145644.046000", "145644.046000", "145644.046000", "145644.046000", "145644.046000", "145644.062000", "145644.062000", "145644.062000", "145704.000000", "145704.000000", "145704.000000", "145704.015000", "145704.015000", "145704.015000", "145704.015000", "145704.015000", "145704.015000", "145704.015000", "145704.031000", "145704.031000", "145704.031000", "145704.031000", "145704.031000", "145704.031000", "145704.031000", "145704.046000", "145704.046000", "145704.046000", "145704.046000", "145704.046000", "145704.046000", "145704.046000", "145704.046000", "145704.062000", "145724.000000", "145724.000000", "145724.000000", "145724.015000", "145724.015000", "145724.015000", "145724.015000", "145724.015000", "145724.015000", "145724.015000", "145724.031000", "145724.031000", "145724.031000", "145724.031000", "145724.031000", "145724.046000", "145724.046000", "145724.046000", "145724.046000", "145724.046000", "145724.046000", "145724.046000", "145724.062000", "145724.062000", "145724.062000", "145744.000000", "145744.000000", "145744.015000", "145744.015000", "145744.015000", "145744.015000", "145744.031000", "145744.031000", "145744.031000", "145744.031000", "145744.031000", "145744.031000", "145744.031000", "145744.046000", "145744.046000", "145744.046000", "145744.046000", "145744.046000", "145744.046000", "145744.046000", "145744.062000", "145744.062000", "145744.062000", "145744.062000", "145744.062000", "145804.000000", "145804.000000", "145804.015000", "145804.015000", "145804.015000", "145804.015000", "145804.015000", "145804.015000", "145804.015000", "145804.015000", "145804.031000", "145804.031000", "145804.031000", "145804.031000", "145804.031000", "145804.031000", "145804.031000", "145804.031000", "145804.046000", "145804.046000", "145804.046000", "145804.046000", "145804.046000", "145804.046000", "145804.046000", "145804.062000", "145824.000000", "145824.000000", "145824.000000", "145824.015000", "145824.015000", "145824.015000", "145824.015000", "145824.015000", "145824.015000", "145824.031000", "145824.031000", "145824.031000", "145824.031000", "145824.031000", "145824.046000", "145824.046000", "145824.046000", "145824.046000", "145824.046000", "145824.062000", "145824.062000", "145824.062000", "145824.062000", "145824.062000", "145824.062000", "145844.000000", "145844.000000", "145844.015000", "145844.015000", "145844.015000", "145844.015000", "145844.015000", "145844.015000", "145844.015000", "145844.015000", "145844.031000", "145844.031000", "145844.031000", "145844.031000", "145844.031000", "145844.031000", "145844.031000", "145844.046000", "145844.046000", "145844.046000", "145844.046000", "145844.046000", "145844.046000", "145844.062000", "145844.062000", "145844.062000", "145904.000000", "145904.000000", "145904.015000", "145904.015000", "145904.015000", "145904.015000", "145904.015000", "145904.015000", "145904.015000", "145904.015000", "145904.031000", "145904.031000", "145904.031000", "145904.031000", "145904.031000", "145904.031000", "145904.031000", "145904.046000", "145904.046000", "145904.046000", "145904.046000", "145904.046000", "145904.046000", "145904.062000", "145904.062000", "145924.000000", "145924.000000", "145924.000000", "145924.015000", "145924.015000", "145924.015000", "145924.015000", "145924.015000", "145924.015000", "145924.015000", "145924.031000", "145924.031000", "145924.031000", "145924.031000", "145924.031000", "145924.031000", "145924.031000", "145924.046000", "145924.046000", "145924.046000", "145924.046000", "145924.046000", "145924.046000", "145924.046000", "145924.046000", "145924.062000", "145944.000000", "145944.000000", "145944.000000", "145944.015000", "145944.015000", "145944.015000", "145944.015000", "145944.015000", "145944.015000", "145944.015000", "145944.031000", "145944.031000", "145944.031000", "145944.031000", "145944.031000", "145944.031000", "145944.031000", "145944.046000", "145944.046000", "145944.046000", "145944.046000", "145944.046000", "145944.046000", "145944.046000", "145944.046000", "150004.000000", "150004.000000", "150004.000000", "150004.015000", "150004.015000", "150004.015000", "150004.015000", "150004.015000", "150004.015000", "150004.015000", "150004.031000", "150004.031000", "150004.031000", "150004.031000", "150004.031000", "150004.046000", "150004.046000", "150004.046000", "150004.046000", "150004.046000", "150004.046000", "150004.046000", "150004.062000", "150004.062000", "150004.062000", "150004.062000", "150024.000000", "150024.000000", "150024.000000", "150024.015000", "150024.015000", "150024.015000", "150024.015000", "150024.015000", "150024.015000", "150024.015000", "150024.031000", "150024.031000", "150024.031000", "150024.031000", "150024.031000", "150024.031000", "150024.031000", "150024.031000", "150024.046000", "150024.046000", "150024.046000", "150024.046000", "150024.046000", "150024.062000", "150024.062000", "150044.000000", "150044.000000", "150044.000000", "150044.015000", "150044.015000", "150044.015000", "150044.015000", "150044.015000", "150044.015000", "150044.015000", "150044.031000", "150044.031000", "150044.031000", "150044.031000", "150044.031000", "150044.031000", "150044.031000", "150044.046000", "150044.046000", "150044.046000", "150044.046000", "150044.046000", "150044.046000", "150044.046000", "150044.062000", "150044.062000", "150104.000000", "150104.000000", "150104.000000", "150104.015000", "150104.015000", "150104.015000", "150104.015000", "150104.015000", "150104.015000", "150104.015000", "150104.031000", "150104.031000", "150104.031000", "150104.031000", "150104.031000", "150104.031000", "150104.031000", "150104.046000", "150104.046000", "150104.046000", "150104.046000", "150104.046000", "150104.046000", "150104.046000", "150104.046000", "150124.000000", "150124.000000", "150124.000000", "150124.015000", "150124.015000", "150124.015000", "150124.015000", "150124.015000", "150124.015000", "150124.015000", "150124.031000", "150124.031000", "150124.031000", "150124.031000", "150124.031000", "150124.031000", "150124.031000", "150124.046000", "150124.046000", "150124.046000", "150124.046000", "150124.046000", "150124.046000", "150124.046000", "150124.046000", "150124.062000", "150134.812000", "150134.812000", "150134.812000", "150134.828000", "150134.828000", "150134.828000", "150134.828000", "150134.828000", "150134.828000", "150134.828000", "150134.843000", "150134.843000", "150134.843000", "150134.843000"],
