{
  "AcquisitionMatrixPE": 104,
  "AcquisitionNumber": 1,
  "AcquisitionTime": "15:26:6.722500",
  "BandwidthPerPixelPhaseEncode": 13.935,
  "BaseResolution": 104,
  "CoilString": "C:HEA;HEP",
  "ConversionSoftware": "dcm2niix",
  "ConversionSoftwareVersion": "v1.0.20210317",
  "DerivedVendorReportedEchoSpacing": 0.000690017,
  "DeviceSerialNumber": "35450",
  "DwellTime": 2.5e-06,
  "EchoTime": 0.0348,
  "EffectiveEchoSpacing": 0.000690017,
  "FlipAngle": 55,
  "ImageComments": "Unaliased MB8/PE3 (remote)",
  "ImageOrientationPatientDICOM": [1, 0, 0, 0, 0.990024, -0.140901],
  "ImageType": [
    "ORIGINAL",
    "PRIMARY",
    "M",
    "MB",
    "ND",
    "MOSAIC"
],
  "ImagingFrequency": 123.235,
  "InPlanePhaseEncodingDirectionDICOM": "COL",
  "InstitutionAddress": "Univeristy Ave. 197,Newark,North East,US,07102-1814",
  "InstitutionName": "RUBIC",
  "InstitutionalDepartmentName": "Department",
  "MRAcquisitionType": "2D",
  "MagneticFieldStrength": 3,
  "Manufacturer": "Siemens",
  "ManufacturersModelName": "TrioTim",
  "Modality": "MR",
  "MultibandAccelerationFactor": 8,
  "PartialFourier": 0.875,
  "PatientPosition": "HFS",
  "PercentPhaseFOV": 100,
  "PercentSampling": 100,
  "PhaseEncodingDirection": "j-",
  "PhaseEncodingSteps": 91,
  "PhaseResolution": 1,
  "PixelBandwidth": 1923,
  "ProcedureStepDescription": "Cole^Michael",
  "ProtocolName": "cmrr_mbep2d_bold_2mm_MB8_Task_8x",
  "PulseSequenceDetails": "%CustomerSeq%\\cmrr_mbep2d_bold",
  "ReceiveCoilName": "32Ch_Head",
  "ReconMatrixPE": 104,
  "RepetitionTime": 0.785,
  "SAR": 0.112743,
  "ScanOptions": "PFP\\FS",
  "ScanningSequence": "EP",
  "SequenceName": "epfid2d1_104",
  "SequenceVariant": "SK\\SS",
  "SeriesDescription": "cmrr_mbep2d_bold_2mm_MB8_Task_8x",
  "SeriesNumber": 27,
  "ShimSetting": [2139, -400, -7204, 318, -61, -177, 4, -87],
  "SliceThickness": 2,
  "SliceTiming": [0, 0.4375, 0.0875, 0.525, 0.175, 0.6125, 0.2625, 0.7, 0.35, 0, 0.4375, 0.0875, 0.525, 0.175, 0.6125, 0.2625, 0.7, 0.35, 0, 0.4375, 0.0875, 0.525, 0.175, 0.6125, 0.2625, 0.7, 0.35, 0, 0.4375, 0.0875, 0.525, 0.175, 0.6125, 0.2625, 0.7, 0.35, 0, 0.4375, 0.0875, 0.525, 0.175, 0.6125, 0.2625, 0.7, 0.35, 0, 0.4375, 0.0875, 0.525, 0.175, 0.6125, 0.2625, 0.7, 0.35, 0, 0.4375, 0.0875, 0.525, 0.175, 0.6125, 0.2625, 0.7, 0.35, 0, 0.4375, 0.0875, 0.525, 0.175, 0.6125, 0.2625, 0.7, 0.35],
  "SoftwareVersions": "syngo MR B19",
  "SpacingBetweenSlices": 2,
  "StationName": "MRC35450",
  "TaskName": "cpro",
  "TotalReadoutTime": 0.0710717,
  "TxRefAmp": 319.515,
  "dcmmeta_affine": [
    [-2.0, 0.0, 0.0, 100.61016845703125],
    [0.0, 1.980047345161438, -0.2818024754524231, -76.82847595214844],
    [0.0, 0.2818024754524231, 1.980047345161438, -105.8349609375],
    [0.0, 0.0, 0.0, 1.0]
],
  "dcmmeta_reorient_transform": [
    [0.0, -1.0, 0.0, 103.0],
    [1.0, 0.0, 0.0, 0.0],
    [0.0, 0.0, 1.0, 0.0],
    [0.0, 0.0, 0.0, 1.0]
],
  "dcmmeta_shape": [104, 104, 72, 581],
  "dcmmeta_slice_dim": 2,
  "dcmmeta_version": 0.6,
  "global": {
    "const": {
      "AcquisitionMatrix": [104, 0, 0, 104],
      "AngioFlag": "N",
      "BitsAllocated": 16,
      "BitsStored": 12,
      "Columns": 936,
      "EchoNumbers": 1,
      "EchoTime": 34.8,
      "EchoTrainLength": 1,
      "FlipAngle": 55.0,
      "HighBit": 11,
      "ImageOrientationPatient": [1.0, 0.0, 0.0, 0.0, 0.99002365739342, -0.1409012342081],
      "ImagePositionPatient": [-932.61016941071, -950.8160816137, 40.420519635276],
      "ImageType": [
        "ORIGINAL",
        "PRIMARY",
        "M",
        "MB",
        "ND",
        "MOSAIC"
],
      "ImagedNucleus": "1H",
      "ImagingFrequency": 123.234512,
      "InPlanePhaseEncodingDirection": "COL",
      "MRAcquisitionType": "2D",
      "MagneticFieldStrength": 3.0,
      "Manufacturer": "SIEMENS",
      "ManufacturerModelName": "TrioTim",
      "Modality": "MR",
      "NumberOfAverages": 1.0,
      "NumberOfPhaseEncodingSteps": 91,
      "PercentPhaseFieldOfView": 100.0,
      "PercentSampling": 100.0,
      "PerformedProcedureStepStartTime": "133429.765000",
      "PhotometricInterpretation": "MONOCHROME2",
      "PixelBandwidth": 1923.0,
      "PixelRepresentation": 0,
      "PixelSpacing": [2.0, 2.0],
      "ProtocolName": "cmrr_mbep2d_bold_2mm_MB8_Task_8x",
      "RepetitionTime": 785.0,
      "Rows": 936,
      "SAR": 0.11274323485112,
      "SamplesPerPixel": 1,
      "ScanOptions": [
        "PFP",
        "FS"
],
      "ScanningSequence": "EP",
      "SequenceName": "epfid2d1_104",
      "SequenceVariant": [
        "SK",
        "SS"
],
      "SeriesDescription": "cmrr_mbep2d_bold_2mm_MB8_Task_8x",
      "SeriesNumber": 27,
      "SeriesTime": "152644.093000",
      "SliceLocation": -93.953888721211,
      "SliceThickness": 2.0,
      "SmallestImagePixelValue": 0,
      "SoftwareVersions": "syngo MR B19",
      "SpacingBetweenSlices": 1.99999999153,
      "SpecificCharacterSet": "ISO_IR 100",
      "StudyID": "1",
      "StudyTime": "133429.687000",
      "TransmitCoilName": "Body",
      "VariableFlipAngleFlag": "N",
      "WindowCenterWidthExplanation": "Algo1",
      "dBdt": 0.0},
    "slices": {}
  },
  "time": {
    "samples": {
      "AcquisitionNumber": [1, 2, 3, 4, 5, 6, 7, 8, 9, 10, 11, 12, 13, 14, 15, 16, 17, 18, 19, 20, 21, 22, 23, 24, 25, 26, 27, 28, 29, 30, 31, 32, 33, 34, 35, 36, 37, 38, 39, 40, 41, 42, 43, 44, 45, 46, 47, 48, 49, 50, 51, 52, 53, 54, 55, 56, 57, 58, 59, 60, 61, 62, 63, 64, 65, 66, 67, 68, 69, 70, 71, 72, 73, 74, 75, 76, 77, 78, 79, 80, 81, 82, 83, 84, 85, 86, 87, 88, 89, 90, 91, 92, 93, 94, 95, 96, 97, 98, 99, 100, 101, 102, 103, 104, 105, 106, 107, 108, 109, 110, 111, 112, 113, 114, 115, 116, 117, 118, 119, 120, 121, 122, 123, 124, 125, 126, 127, 128, 129, 130, 131, 132, 133, 134, 135, 136, 137, 138, 139, 140, 141, 142, 143, 144, 145, 146, 147, 148, 149, 150, 151, 152, 153, 154, 155, 156, 157, 158, 159, 160, 161, 162, 163, 164, 165, 166, 167, 168, 169, 170, 171, 172, 173, 174, 175, 176, 177, 178, 179, 180, 181, 182, 183, 184, 185, 186, 187, 188, 189, 190, 191, 192, 193, 194, 195, 196, 197, 198, 199, 200, 201, 202, 203, 204, 205, 206, 207, 208, 209, 210, 211, 212, 213, 214, 215, 216, 217, 218, 219, 220, 221, 222, 223, 224, 225, 226, 227, 228, 229, 230, 231, 232, 233, 234, 235, 236, 237, 238, 239, 240, 241, 242, 243, 244, 245, 246, 247, 248, 249, 250, 251, 252, 253, 254, 255, 256, 257, 258, 259, 260, 261, 262, 263, 264, 265, 266, 267, 268, 269, 270, 271, 272, 273, 274, 275, 276, 277, 278, 279, 280, 281, 282, 283, 284, 285, 286, 287, 288, 289, 290, 291, 292, 293, 294, 295, 296, 297, 298, 299, 300, 301, 302, 303, 304, 305, 306, 307, 308, 309, 310, 311, 312, 313, 314, 315, 316, 317, 318, 319, 320, 321, 322, 323, 324, 325, 326, 327, 328, 329, 330, 331, 332, 333, 334, 335, 336, 337, 338, 339, 340, 341, 342, 343, 344, 345, 346, 347, 348, 349, 350, 351, 352, 353, 354, 355, 356, 357, 358, 359, 360, 361, 362, 363, 364, 365, 366, 367, 368, 369, 370, 371, 372, 373, 374, 375, 376, 377, 378, 379, 380, 381, 382, 383, 384, 385, 386, 387, 388, 389, 390, 391, 392, 393, 394, 395, 396, 397, 398, 399, 400, 401, 402, 403, 404, 405, 406, 407, 408, 409, 410, 411, 412, 413, 414, 415, 416, 417, 418, 419, 420, 421, 422, 423, 424, 425, 426, 427, 428, 429, 430, 431, 432, 433, 434, 435, 436, 437, 438, 439, 440, 441, 442, 443, 444, 445, 446, 447, 448, 449, 450, 451, 452, 453, 454, 455, 456, 457, 458, 459, 460, 461, 462, 463, 464, 465, 466, 467, 468, 469, 470, 471, 472, 473, 474, 475, 476, 477, 478, 479, 480, 481, 482, 483, 484, 485, 486, 487, 488, 489, 490, 491, 492, 493, 494, 495, 496, 497, 498, 499, 500, 501, 502, 503, 504, 505, 506, 507, 508, 509, 510, 511, 512, 513, 514, 515, 516, 517, 518, 519, 520, 521, 522, 523, 524, 525, 526, 527, 528, 529, 530, 531, 532, 533, 534, 535, 536, 537, 538, 539, 540, 541, 542, 543, 544, 545, 546, 547, 548, 549, 550, 551, 552, 553, 554, 555, 556, 557, 558, 559, 560, 561, 562, 563, 564, 565, 566, 567, 568, 569, 570, 571, 572, 573, 574, 575, 576, 577, 578, 579, 580, 581],
      "AcquisitionTime": ["152606.722500", "152607.512500", "152608.300000", "152609.087500", "152609.875000", "152610.665000", "152611.452500", "152612.240000", "152613.027500", "152613.817500", "152614.605000", "152615.392500", "152616.180000", "152616.970000", "152617.757500", "152618.545000", "152619.332500", "152620.122500", "152620.910000", "152621.697500", "152622.485000", "152623.275000", "152624.062500", "152624.850000", "152625.640000", "152626.427500", "152627.215000", "152628.002500", "152628.792500", "152629.580000", "152630.367500", "152631.155000", "152631.945000", "152632.732500", "152633.520000", "152634.307500", "152635.097500", "152635.885000", "152636.672500", "152637.460000", "152638.250000", "152639.037500", "152639.825000", "152640.612500", "152641.402500", "152642.190000", "152642.977500", "152643.767500", "152644.555000", "152645.342500", "152646.130000", "152646.920000", "152647.707500", "152648.495000", "152649.282500", "152650.072500", "152650.860000", "152651.647500", "152652.435000", "152653.225000", "152654.012500", "152654.800000", "152655.587500", "152656.377500", "152657.165000", "152657.952500", "152658.740000", "152659.530000", "152700.317500", "152701.105000", "152701.895000", "152702.682500", "152703.470000", "152704.257500", "152705.047500", "152705.835000", "152706.622500", "152707.410000", "152708.200000", "152708.987500", "152709.775000", "152710.562500", "152711.352500", "152712.140000", "152712.927500", "152713.715000", "152714.505000", "152715.292500", "152716.080000", "152716.867500", "152717.657500", "152718.445000", "152719.232500", "152720.022500", "152720.810000", "152721.597500", "152722.385000", "152723.175000", "152723.962500", "152724.750000", "152725.537500", "152726.327500", "152727.115000", "152727.902500", "152728.690000", "152729.480000", "152730.267500", "152731.055000", "152731.842500", "152732.632500", "152733.420000", "152734.207500", "152734.995000", "152735.785000", "152736.572500", "152737.360000", "152738.150000", "152738.937500", "152739.725000", "152740.512500", "152741.302500", "152742.090000", "152742.877500", "152743.665000", "152744.455000", "152745.242500", "152746.030000", "152746.817500", "152747.607500", "152748.395000", "152749.182500", "152749.970000", "152750.760000", "152751.547500", "152752.335000", "152753.122500", "152753.912500", "152754.700000", "152755.487500", "152756.277500", "152757.065000", "152757.852500", "152758.640000", "152759.430000", "152800.217500", "152801.005000", "152801.792500", "152802.582500", "152803.370000", "152804.157500", "152804.945000", "152805.735000", "152806.522500", "152807.310000", "152808.097500", "152808.887500", "152809.675000", "152810.462500", "152811.250000", "152812.040000", "152812.827500", "152813.615000", "152814.405000", "152815.192500", "152815.980000", "152816.767500", "152817.557500", "152818.345000", "152819.132500", "152819.920000", "152820.710000", "152821.497500", "152822.285000", "152823.072500", "152823.862500", "152824.650000", "152825.437500", "152826.225000", "152827.015000", "152827.802500", "152828.590000", "152829.377500", "152830.167500", "152830.955000", "152831.742500", "152832.532500", "152833.320000", "152834.107500", "152834.895000", "152835.685000", "152836.472500", "152837.260000", "152838.047500", "152838.837500", "152839.625000", "152840.412500", "152841.200000", "152841.990000", "152842.777500", "152843.565000", "152844.352500", "152845.142500", "152845.930000", "152846.717500", "152847.505000", "152848.295000", "152849.082500", "152849.870000", "152850.660000", "152851.447500", "152852.235000", "152853.022500", "152853.812500", "152854.600000", "152855.387500", "152856.175000", "152856.965000", "152857.752500", "152858.540000", "152859.327500", "152900.117500", "152900.905000", "152901.692500", "152902.480000", "152903.270000", "152904.057500", "152904.845000", "152905.635000", "152906.422500", "152907.210000", "152907.997500", "152908.787500", "152909.575000", "152910.362500", "152911.150000", "152911.940000", "152912.727500", "152913.515000", "152914.302500", "152915.092500", "152915.880000", "152916.667500", "152917.455000", "152918.245000", "152919.032500", "152919.820000", "152920.607500", "152921.397500", "152922.185000", "152922.972500", "152923.762500", "152924.550000", "152925.337500", "152926.125000", "152926.915000", "152927.702500", "152928.490000", "152929.277500", "152930.067500", "152930.855000", "152931.642500", "152932.430000", "152933.220000", "152934.007500", "152934.795000", "152935.582500", "152936.372500", "152937.160000", "152937.947500", "152938.735000", "152939.525000", "152940.312500", "152941.100000", "152941.890000", "152942.677500", "152943.465000", "152944.252500", "152945.042500", "152945.830000", "152946.617500", "152947.405000", "152948.195000", "152948.982500", "152949.770000", "152950.557500", "152951.347500", "152952.135000", "152952.922500", "152953.710000", "152954.500000", "152955.287500", "152956.075000", "152956.862500", "152957.652500", "152958.440000", "152959.227500", "153000.017500", "153000.805000", "153001.592500", "153002.380000", "153003.170000", "153003.957500", "153004.745000", "153005.532500", "153006.322500", "153007.110000", "153007.897500", "153008.685000", "153009.475000", "153010.262500", "153011.050000", "153011.837500", "153012.627500", "153013.415000", "153014.202500", "153014.990000", "153015.780000", "153016.567500", "153017.355000", "153018.145000", "153018.932500", "153019.720000", "153020.507500", "153021.297500", "153022.085000", "153022.872500", "153023.660000", "153024.450000", "153025.237500", "153026.025000", "153026.812500", "153027.602500", "153028.390000", "153029.177500", "153029.965000", "153030.755000", "153031.542500", "153032.330000", "153033.117500", "153033.907500", "153034.695000", "153035.482500", "153036.272500", "153037.060000", "153037.847500", "153038.635000", "153039.425000", "153040.212500", "153041.000000", "153041.787500", "153042.577500", "153043.365000", "153044.152500", "153044.940000", "153045.730000", "153046.517500", "153047.305000", "153048.092500", "153048.882500", "153049.670000", "153050.457500", "153051.245000", "153052.035000", "153052.822500", "153053.610000", "153054.400000", "153055.187500", "153055.975000", "153056.762500", "153057.552500", "153058.340000", "153059.127500", "153059.915000", "153100.705000", "153101.492500", "153102.280000", "153103.067500", "153103.857500", "153104.645000", "153105.432500", "153106.220000", "153107.010000", "153107.797500", "153108.585000", "153109.372500", "153110.162500", "153110.950000", "153111.737500", "153112.527500", "153113.315000", "153114.102500", "153114.890000", "153115.680000", "153116.467500", "153117.255000", "153118.042500", "153118.832500", "153119.620000", "153120.407500", "153121.195000", "153121.985000", "153122.772500", "153123.560000", "153124.347500", "153125.137500", "153125.925000", "153126.712500", "153127.500000", "153128.290000", "153129.077500", "153129.865000", "153130.655000", "153131.442500", "153132.230000", "153133.017500", "153133.807500", "153134.595000", "153135.382500", "153136.170000", "153136.960000", "153137.747500", "153138.535000", "153139.322500", "153140.112500", "153140.900000", "153141.687500", "153142.475000", "153143.265000", "153144.052500", "153144.840000", "153145.627500", "153146.417500", "153147.205000", "153147.992500", "153148.782500", "153149.570000", "153150.357500", "153151.145000", "153151.935000", "153152.722500", "153153.510000", "153154.297500", "153155.087500", "153155.875000", "153156.662500", "153157.450000", "153158.240000", "153159.027500", "153159.815000", "153200.602500", "153201.392500", "153202.180000", "153202.967500", "153203.755000", "153204.545000", "153205.332500", "153206.120000", "153206.910000", "153207.697500", "153208.485000", "153209.272500", "153210.062500", "153210.850000", "153211.637500", "153212.425000", "153213.215000", "153214.002500", "153214.790000", "153215.577500", "153216.367500", "153217.155000", "153217.942500", "153218.730000", "153219.520000", "153220.307500", "153221.095000", "153221.885000", "153222.672500", "153223.460000", "153224.247500", "153225.037500", "153225.825000", "153226.612500", "153227.400000", "153228.190000", "153228.977500", "153229.765000", "153230.552500", "153231.342500", "153232.130000", "153232.917500", "153233.705000", "153234.495000", "153235.282500", "153236.070000", "153236.857500", "153237.647500", "153238.435000", "153239.222500", "153240.012500", "153240.800000", "153241.587500", "153242.375000", "153243.165000", "153243.952500", "153244.740000", "153245.527500", "153246.317500", "153247.105000", "153247.892500", "153248.680000", "153249.470000", "153250.257500", "153251.045000", "153251.832500", "153252.622500", "153253.410000", "153254.197500", "153254.985000", "153255.775000", "153256.562500", "153257.350000", "153258.140000", "153258.927500", "153259.715000", "153300.502500", "153301.292500", "153302.080000", "153302.867500", "153303.655000", "153304.445000", "153305.232500", "153306.020000", "153306.807500", "153307.597500", "153308.385000", "153309.172500", "153309.960000", "153310.750000", "153311.537500", "153312.325000", "153313.112500", "153313.902500", "153314.690000", "153315.477500", "153316.267500", "153317.055000", "153317.842500", "153318.630000", "153319.420000", "153320.207500", "153320.995000", "153321.782500", "153322.572500", "153323.360000", "153324.147500", "153324.935000", "153325.725000", "153326.512500", "153327.300000", "153328.087500", "153328.877500", "153329.665000", "153330.452500", "153331.240000", "153332.030000", "153332.817500", "153333.605000", "153334.395000", "153335.182500", "153335.970000", "153336.757500", "153337.547500", "153338.335000", "153339.122500", "153339.910000", "153340.700000", "153341.487500", "153342.275000", "153343.062500", "153343.852500"],
      "ContentTime": ["152644.093000", "152644.093000", "152644.093000", "152644.093000", "152644.109000", "152644.109000", "152644.109000", "152644.109000", "152644.109000", "152644.109000", "152644.125000", "152644.125000", "152644.125000", "152644.125000", "152644.125000", "152644.125000", "152644.125000", "152644.125000", "152644.140000", "152644.140000", "152644.140000", "152644.140000", "152644.140000", "152644.140000", "152644.140000", "152644.156000", "152644.156000", "152644.156000", "152644.156000", "152644.156000", "152644.156000", "152644.156000", "152644.156000", "152644.171000", "152644.171000", "152644.171000", "152644.171000", "152644.171000", "152644.171000", "152644.171000", "152644.171000", "152644.187000", "152644.187000", "152644.187000", "152704.062000", "152704.062000", "152704.062000", "152704.078000", "152704.078000", "152704.078000", "152704.078000", "152704.078000", "152704.078000", "152704.078000", "152704.093000", "152704.093000", "152704.093000", "152704.093000", "152704.093000", "152704.093000", "152704.093000", "152704.093000", "152704.109000", "152704.109000", "152704.109000", "152704.109000", "152704.109000", "152704.109000", "152704.109000", "152704.125000", "152724.062000", "152724.062000", "152724.078000", "152724.078000", "152724.078000", "152724.078000", "152724.078000", "152724.078000", "152724.078000", "152724.078000", "152724.093000", "152724.093000", "152724.093000", "152724.093000", "152724.093000", "152724.093000", "152724.093000", "152724.109000", "152724.109000", "152724.109000", "152724.109000", "152724.109000", "152724.109000", "152724.109000", "152724.109000", "152744.062000", "152744.062000", "152744.078000", "152744.078000", "152744.078000", "152744.078000", "152744.078000", "152744.078000", "152744.078000", "152744.078000", "152744.093000", "152744.093000", "152744.093000", "152744.093000", "152744.093000", "152744.093000", "152744.093000", "152744.093000", "152744.109000", "152744.109000", "152744.109000", "152744.109000", "152744.109000", "152744.109000", "152744.109000", "152744.125000", "152804.062000", "152804.062000", "152804.062000", "152804.078000", "152804.078000", "152804.078000", "152804.078000", "152804.078000", "152804.078000", "152804.078000", "152804.093000", "152804.093000", "152804.093000", "152804.093000", "152804.093000", "152804.093000", "152804.093000", "152804.093000", "152804.109000", "152804.109000", "152804.109000", "152804.109000", "152804.109000", "152804.109000", "152804.109000", "152824.062000", "152824.078000", "152824.078000", "152824.078000", "152824.078000", "152824.078000", "152824.078000", "152824.078000", "152824.078000", "152824.093000", "152824.093000", "152824.093000", "152824.093000", "152824.093000", "152824.093000", "152824.093000", "152824.109000", "152824.109000", "152824.109000", "152824.109000", "152824.109000", "152824.109000", "152824.109000", "152824.125000", "152824.125000", "152844.062000", "152844.062000", "152844.078000", "152844.078000", "152844.078000", "152844.078000", "152844.078000", "152844.078000", "152844.078000", "152844.093000", "152844.093000", "152844.093000", "152844.093000", "152844.093000", "152844.093000", "152844.093000", "152844.109000", "152844.109000", "152844.109000", "152844.109000", "152844.109000", "152844.109000", "152844.109000", "152844.125000", "152844.125000", "152844.125000", "152904.062000", "152904.062000", "152904.078000", "152904.078000", "152904.078000", "152904.078000", "152904.078000", "152904.078000", "152904.078000", "152904.093000", "152904.093000", "152904.093000", "152904.093000", "152904.093000", "152904.093000", "152904.109000", "152904.109000", "152904.109000", "152904.109000", "152904.109000", "152904.109000", "152904.125000", "152904.125000", "152904.125000", "152904.125000", "152924.062000", "152924.062000", "152924.062000", "152924.078000", "152924.078000", "152924.078000", "152924.078000", "152924.078000", "152924.078000", "152924.078000", "152924.093000", "152924.093000", "152924.093000", "152924.093000", "152924.093000", "152924.093000", "152924.093000", "152924.093000", "152924.109000", "152924.109000", "152924.109000", "152924.109000", "152924.109000", "152924.109000", "152924.109000", "152924.109000", "152944.062000", "152944.062000", "152944.062000", "152944.078000", "152944.078000", "152944.078000", "152944.078000", "152944.078000", "152944.078000", "152944.078000", "152944.093000", "152944.093000", "152944.093000", "152944.093000", "152944.093000", "152944.093000", "152944.109000", "152944.109000", "152944.109000", "152944.109000", "152944.109000", "152944.109000", "152944.109000", "152944.125000", "152944.125000", "153004.062000", "153004.062000", "153004.062000", "153004.078000", "153004.078000", "153004.078000", "153004.078000", "153004.078000", "153004.078000", "153004.078000", "153004.093000", "153004.093000", "153004.093000", "153004.093000", "153004.093000", "153004.109000", "153004.109000", "153004.109000", "153004.109000", "153004.109000", "153004.109000", "153004.109000", "153004.109000", "153004.125000", "153004.125000", "153004.125000", "153024.062000", "153024.062000", "153024.062000", "153024.078000", "153024.078000", "153024.078000", "153024.078000", "153024.078000", "153024.078000", "153024.078000", "153024.093000", "153024.093000", "153024.093000", "153024.093000", "153024.093000", "153024.093000", "153024.109000", "153024.109000", "153024.109000", "153024.109000", "153024.109000", "153024.109000", "153024.109000", "153024.125000", "153024.125000", "153044.062000", "153044.062000", "153044.062000", "153044.078000", "153044.078000", "153044.078000", "153044.078000", "153044.078000", "153044.078000", "153044.078000", "153044.093000", "153044.093000", "153044.093000", "153044.093000", "153044.093000", "153044.093000", "153044.093000", "153044.093000", "153044.109000", "153044.109000", "153044.109000", "153044.109000", "153044.109000", "153044.109000", "153044.109000", "153044.125000", "153104.062000", "153104.062000", "153104.062000", "153104.078000", "153104.078000", "153104.078000", "153104.078000", "153104.078000", "153104.078000", "153104.078000", "153104.093000", "153104.093000", "153104.093000", "153104.093000", "153104.093000", "153104.093000", "153104.093000", "153104.093000", "153104.109000", "153104.109000", "153104.109000", "153104.109000", "153104.109000", "153104.125000", "153104.125000", "153124.062000", "153124.062000", "153124.078000", "153124.078000", "153124.078000", "153124.078000", "153124.078000", "153124.078000", "153124.078000", "153124.078000", "153124.093000", "153124.093000", "153124.093000", "153124.093000", "153124.093000", "153124.093000", "153124.093000", "153124.093000", "153124.109000", "153124.109000", "153124.109000", "153124.109000", "153124.109000", "153124.109000", "153124.109000", "153124.125000", "153144.062000", "153144.062000", "153144.062000", "153144.078000", "153144.078000", "153144.078000", "153144.078000", "153144.078000", "153144.078000", "153144.078000", "153144.093000", "153144.093000", "153144.093000", "153144.093000", "153144.093000", "153144.109000", "153144.109000", "153144.109000", "153144.109000", "153144.109000", "153144.109000", "153144.125000", "153144.125000", "153144.125000", "153144.125000", "153204.062000", "153204.062000", "153204.062000", "153204.078000", "153204.078000", "153204.078000", "153204.078000", "153204.078000", "153204.078000", "153204.078000", "153204.093000", "153204.093000", "153204.093000", "153204.093000", "153204.093000", "153204.093000", "153204.093000", "153204.093000", "153204.109000", "153204.109000", "153204.109000", "153204.109000", "153204.109000", "153204.109000", "153204.109000", "153204.125000", "153224.062000", "153224.062000", "153224.062000", "153224.078000", "153224.078000", "153224.078000", "153224.078000", "153224.078000", "153224.078000", "153224.093000", "153224.093000", "153224.093000", "153224.093000", "153224.093000", "153224.093000", "153224.093000", "153224.109000", "153224.109000", "153224.109000", "153224.109000", "153224.109000", "153224.109000", "153224.109000", "153224.109000", "153224.125000", "153244.062000", "153244.062000", "153244.062000", "153244.078000", "153244.078000", "153244.078000", "153244.078000", "153244.078000", "153244.078000", "153244.078000", "153244.093000", "153244.093000", "153244.093000", "153244.093000", "153244.093000", "153244.093000", "153244.093000", "153244.093000", "153244.109000", "153244.109000", "153244.109000", "153244.109000", "153244.109000", "153244.109000", "153244.109000", "153244.109000", "153304.062000", "153304.062000", "153304.062000", "153304.078000", "153304.078000", "153304.078000", "153304.078000", "153304.078000", "153304.078000", "153304.078000", "153304.093000", "153304.093000", "153304.093000", "153304.093000", "153304.093000", "153304.093000", "153304.093000", "153304.109000", "153304.109000", "153304.109000", "153304.109000", "153304.109000", "153304.109000", "153304.125000", "153304.125000", "153324.062000", "153324.062000", "153324.078000", "153324.078000", "153324.078000", "153324.078000", "153324.078000", "153324.078000", "153324.078000", "153324.093000", "153324.093000", "153324.093000", "153324.093000", "153324.093000", "153324.093000", "153324.093000", "153324.093000", "153324.109000", "153324.109000", "153324.109000", "153324.109000", "153324.109000", "153324.125000", "153324.125000", "153324.125000", "153324.125000", "153344.062000", "153344.062000", "153344.078000", "153344.078000", "153344.078000", "153344.078000", "153344.078000", "153344.078000", "153344.078000", "153344.078000", "153344.093000", "153344.093000", "153344.093000", "153344.093000", "153344.093000", "153344.093000", "153344.093000", "153344.093000", "153344.109000", "153344.109000", "153344.109000", "153344.109000", "153344.109000", "153344.109000", "153344.109000", "153345.250000", "153345.250000"],
