{
  "AcquisitionMatrixPE": 104,
  "AcquisitionNumber": 1,
  "AcquisitionTime": "15:50:1.742500",
  "BandwidthPerPixelPhaseEncode": 13.935,
  "BaseResolution": 104,
  "CoilString": "C:HEA;HEP",
  "ConversionSoftware": "dcm2niix",
  "ConversionSoftwareVersion": "v1.0.20210317",
  "DerivedVendorReportedEchoSpacing": 0.000690017,
  "DeviceSerialNumber": "35450",
  "DwellTime": 2.5e-06,
  "EchoTime": 0.0348,
  "EffectiveEchoSpacing": 0.000690017,
  "FlipAngle": 55,
  "ImageComments": "Unaliased MB8/PE3 (remote)",
  "ImageOrientationPatientDICOM": [0.999976, -9.74655e-05, 0.00698186, -2.49984e-08, 0.999903, 0.0139621],
  "ImageType": [
    "ORIGINAL",
    "PRIMARY",
    "M",
    "MB",
    "ND",
    "MOSAIC"
],
  "ImagingFrequency": 123.235,
  "InPlanePhaseEncodingDirectionDICOM": "COL",
  "InstitutionAddress": "Univeristy Ave. 197,Newark,North East,US,07102-1814",
  "InstitutionName": "RUBIC",
  "InstitutionalDepartmentName": "Department",
  "MRAcquisitionType": "2D",
  "MagneticFieldStrength": 3,
  "Manufacturer": "Siemens",
  "ManufacturersModelName": "TrioTim",
  "Modality": "MR",
  "MultibandAccelerationFactor": 8,
  "PartialFourier": 0.875,
  "PatientPosition": "HFS",
  "PercentPhaseFOV": 100,
  "PercentSampling": 100,
  "PhaseEncodingDirection": "j-",
  "PhaseEncodingSteps": 91,
  "PhaseResolution": 1,
  "PixelBandwidth": 1923,
  "ProcedureStepDescription": "Cole^Michael",
  "ProtocolName": "cmrr_mbep2d_bold_2mm_MB8_Task_8x",
  "PulseSequenceDetails": "%CustomerSeq%\\cmrr_mbep2d_bold",
  "ReceiveCoilName": "32Ch_Head",
  "ReconMatrixPE": 104,
  "RepetitionTime": 0.785,
  "SAR": 0.133264,
  "ScanOptions": "PFP\\FS",
  "ScanningSequence": "EP",
  "SequenceName": "epfid2d1_104",
  "SequenceVariant": "SK\\SS",
  "SeriesDescription": "cmrr_mbep2d_bold_2mm_MB8_Task_8x",
  "SeriesNumber": 23,
  "ShimSetting": [2188, -304, -7393, 318, 57, 35, 238, -150],
  "SliceThickness": 2,
  "SliceTiming": [0, 0.4375, 0.0875, 0.525, 0.175, 0.6125, 0.2625, 0.7, 0.35, 0, 0.4375, 0.0875, 0.525, 0.175, 0.6125, 0.2625, 0.7, 0.35, 0, 0.4375, 0.0875, 0.525, 0.175, 0.6125, 0.2625, 0.7, 0.35, 0, 0.4375, 0.0875, 0.525, 0.175, 0.6125, 0.2625, 0.7, 0.35, 0, 0.4375, 0.0875, 0.525, 0.175, 0.6125, 0.2625, 0.7, 0.35, 0, 0.4375, 0.0875, 0.525, 0.175, 0.6125, 0.2625, 0.7, 0.35, 0, 0.4375, 0.0875, 0.525, 0.175, 0.6125, 0.2625, 0.7, 0.35, 0, 0.4375, 0.0875, 0.525, 0.175, 0.6125, 0.2625, 0.7, 0.35],
  "SoftwareVersions": "syngo MR B19",
  "SpacingBetweenSlices": 2,
  "StationName": "MRC35450",
  "TaskName": "cpro",
  "TotalReadoutTime": 0.0710717,
  "TxRefAmp": 317.752,
  "dcmmeta_affine": [
    [-1.9999512434005737, -4.999672142957934e-08, 0.013965072110295296, 103.53282165527344],
    [0.00019493108266033232, 1.9998050928115845, 0.027923425659537315, -76.11195373535156],
    [0.013963711448013783, -0.027924105525016785, 1.9997563362121582, -80.88121032714844],
    [0.0, 0.0, 0.0, 1.0]
],
  "dcmmeta_reorient_transform": [
    [0.0, -1.0, 0.0, 103.0],
    [1.0, 0.0, 0.0, 0.0],
    [0.0, 0.0, 1.0, 0.0],
    [0.0, 0.0, 0.0, 1.0]
],
  "dcmmeta_shape": [104, 104, 72, 581],
  "dcmmeta_slice_dim": 2,
  "dcmmeta_version": 0.6,
  "global": {
    "const": {
      "AcquisitionMatrix": [104, 0, 0, 104],
      "AngioFlag": "N",
      "BitsAllocated": 16,
      "BitsStored": 12,
      "Columns": 936,
      "EchoNumbers": 1,
      "EchoTime": 34.8,
      "EchoTrainLength": 1,
      "FlipAngle": 55.0,
      "HighBit": 11,
      "ImageOrientationPatient": [0.9999756217976, -9.74655421e-05, 0.0069818558408, -2.499836e-08, 0.99990252579103, 0.01396205274001],
      "ImagePositionPatient": [-935.5125164668, -961.70577720721, -101.18272206445],
      "ImageType": [
        "ORIGINAL",
        "PRIMARY",
        "M",
        "MB",
        "ND",
        "MOSAIC"
],
      "ImagedNucleus": "1H",
      "ImagingFrequency": 123.234575,
      "InPlanePhaseEncodingDirection": "COL",
      "MRAcquisitionType": "2D",
      "MagneticFieldStrength": 3.0,
      "Manufacturer": "SIEMENS",
      "ManufacturerModelName": "TrioTim",
      "Modality": "MR",
      "NumberOfAverages": 1.0,
      "NumberOfPhaseEncodingSteps": 91,
      "PercentPhaseFieldOfView": 100.0,
      "PercentSampling": 100.0,
      "PerformedProcedureStepStartTime": "140322.859000",
      "PhotometricInterpretation": "MONOCHROME2",
      "PixelBandwidth": 1923.0,
      "PixelRepresentation": 0,
      "PixelSpacing": [2.0, 2.0],
      "ProtocolName": "cmrr_mbep2d_bold_2mm_MB8_Task_8x",
      "RepetitionTime": 785.0,
      "Rows": 936,
      "SAR": 0.13326429323923,
      "SamplesPerPixel": 1,
      "ScanOptions": [
        "PFP",
        "FS"
],
      "ScanningSequence": "EP",
      "SequenceName": "epfid2d1_104",
      "SequenceVariant": [
        "SK",
        "SS"
],
      "SeriesDescription": "cmrr_mbep2d_bold_2mm_MB8_Task_8x",
      "SeriesNumber": 23,
      "SeriesTime": "155025.609000",
      "SliceLocation": -81.211083405311,
      "SliceThickness": 2.0,
      "SmallestImagePixelValue": 0,
      "SoftwareVersions": "syngo MR B19",
      "SpacingBetweenSlices": 2.0000000433421,
      "SpecificCharacterSet": "ISO_IR 100",
      "StudyID": "1",
      "StudyTime": "140322.828000",
      "TransmitCoilName": "Body",
      "VariableFlipAngleFlag": "N",
      "WindowCenterWidthExplanation": "Algo1",
      "dBdt": 0.0},
    "slices": {}
  },
  "time": {
    "samples": {
      "AcquisitionNumber": [1, 2, 3, 4, 5, 6, 7, 8, 9, 10, 11, 12, 13, 14, 15, 16, 17, 18, 19, 20, 21, 22, 23, 24, 25, 26, 27, 28, 29, 30, 31, 32, 33, 34, 35, 36, 37, 38, 39, 40, 41, 42, 43, 44, 45, 46, 47, 48, 49, 50, 51, 52, 53, 54, 55, 56, 57, 58, 59, 60, 61, 62, 63, 64, 65, 66, 67, 68, 69, 70, 71, 72, 73, 74, 75, 76, 77, 78, 79, 80, 81, 82, 83, 84, 85, 86, 87, 88, 89, 90, 91, 92, 93, 94, 95, 96, 97, 98, 99, 100, 101, 102, 103, 104, 105, 106, 107, 108, 109, 110, 111, 112, 113, 114, 115, 116, 117, 118, 119, 120, 121, 122, 123, 124, 125, 126, 127, 128, 129, 130, 131, 132, 133, 134, 135, 136, 137, 138, 139, 140, 141, 142, 143, 144, 145, 146, 147, 148, 149, 150, 151, 152, 153, 154, 155, 156, 157, 158, 159, 160, 161, 162, 163, 164, 165, 166, 167, 168, 169, 170, 171, 172, 173, 174, 175, 176, 177, 178, 179, 180, 181, 182, 183, 184, 185, 186, 187, 188, 189, 190, 191, 192, 193, 194, 195, 196, 197, 198, 199, 200, 201, 202, 203, 204, 205, 206, 207, 208, 209, 210, 211, 212, 213, 214, 215, 216, 217, 218, 219, 220, 221, 222, 223, 224, 225, 226, 227, 228, 229, 230, 231, 232, 233, 234, 235, 236, 237, 238, 239, 240, 241, 242, 243, 244, 245, 246, 247, 248, 249, 250, 251, 252, 253, 254, 255, 256, 257, 258, 259, 260, 261, 262, 263, 264, 265, 266, 267, 268, 269, 270, 271, 272, 273, 274, 275, 276, 277, 278, 279, 280, 281, 282, 283, 284, 285, 286, 287, 288, 289, 290, 291, 292, 293, 294, 295, 296, 297, 298, 299, 300, 301, 302, 303, 304, 305, 306, 307, 308, 309, 310, 311, 312, 313, 314, 315, 316, 317, 318, 319, 320, 321, 322, 323, 324, 325, 326, 327, 328, 329, 330, 331, 332, 333, 334, 335, 336, 337, 338, 339, 340, 341, 342, 343, 344, 345, 346, 347, 348, 349, 350, 351, 352, 353, 354, 355, 356, 357, 358, 359, 360, 361, 362, 363, 364, 365, 366, 367, 368, 369, 370, 371, 372, 373, 374, 375, 376, 377, 378, 379, 380, 381, 382, 383, 384, 385, 386, 387, 388, 389, 390, 391, 392, 393, 394, 395, 396, 397, 398, 399, 400, 401, 402, 403, 404, 405, 406, 407, 408, 409, 410, 411, 412, 413, 414, 415, 416, 417, 418, 419, 420, 421, 422, 423, 424, 425, 426, 427, 428, 429, 430, 431, 432, 433, 434, 435, 436, 437, 438, 439, 440, 441, 442, 443, 444, 445, 446, 447, 448, 449, 450, 451, 452, 453, 454, 455, 456, 457, 458, 459, 460, 461, 462, 463, 464, 465, 466, 467, 468, 469, 470, 471, 472, 473, 474, 475, 476, 477, 478, 479, 480, 481, 482, 483, 484, 485, 486, 487, 488, 489, 490, 491, 492, 493, 494, 495, 496, 497, 498, 499, 500, 501, 502, 503, 504, 505, 506, 507, 508, 509, 510, 511, 512, 513, 514, 515, 516, 517, 518, 519, 520, 521, 522, 523, 524, 525, 526, 527, 528, 529, 530, 531, 532, 533, 534, 535, 536, 537, 538, 539, 540, 541, 542, 543, 544, 545, 546, 547, 548, 549, 550, 551, 552, 553, 554, 555, 556, 557, 558, 559, 560, 561, 562, 563, 564, 565, 566, 567, 568, 569, 570, 571, 572, 573, 574, 575, 576, 577, 578, 579, 580, 581],
      "AcquisitionTime": ["155001.742500", "155002.530000", "155003.317500", "155004.107500", "155004.895000", "155005.682500", "155006.470000", "155007.260000", "155008.047500", "155008.835000", "155009.622500", "155010.412500", "155011.200000", "155011.987500", "155012.775000", "155013.565000", "155014.352500", "155015.140000", "155015.927500", "155016.717500", "155017.505000", "155018.292500", "155019.082500", "155019.870000", "155020.657500", "155021.445000", "155022.235000", "155023.022500", "155023.810000", "155024.597500", "155025.387500", "155026.175000", "155026.962500", "155027.750000", "155028.540000", "155029.327500", "155030.115000", "155030.902500", "155031.692500", "155032.480000", "155033.267500", "155034.055000", "155034.845000", "155035.632500", "155036.420000", "155037.210000", "155037.997500", "155038.785000", "155039.572500", "155040.362500", "155041.150000", "155041.937500", "155042.725000", "155043.515000", "155044.302500", "155045.090000", "155045.877500", "155046.667500", "155047.455000", "155048.242500", "155049.030000", "155049.820000", "155050.607500", "155051.395000", "155052.182500", "155052.972500", "155053.760000", "155054.547500", "155055.337500", "155056.125000", "155056.912500", "155057.700000", "155058.490000", "155059.277500", "155100.065000", "155100.852500", "155101.642500", "155102.430000", "155103.217500", "155104.005000", "155104.795000", "155105.582500", "155106.370000", "155107.157500", "155107.947500", "155108.735000", "155109.522500", "155110.312500", "155111.100000", "155111.887500", "155112.675000", "155113.465000", "155114.252500", "155115.040000", "155115.827500", "155116.617500", "155117.405000", "155118.192500", "155118.980000", "155119.770000", "155120.557500", "155121.345000", "155122.132500", "155122.922500", "155123.710000", "155124.497500", "155125.285000", "155126.075000", "155126.862500", "155127.650000", "155128.440000", "155129.227500", "155130.015000", "155130.802500", "155131.592500", "155132.380000", "155133.167500", "155133.955000", "155134.745000", "155135.532500", "155136.320000", "155137.107500", "155137.897500", "155138.685000", "155139.472500", "155140.260000", "155141.050000", "155141.837500", "155142.625000", "155143.412500", "155144.202500", "155144.990000", "155145.777500", "155146.567500", "155147.355000", "155148.142500", "155148.930000", "155149.720000", "155150.507500", "155151.295000", "155152.082500", "155152.872500", "155153.660000", "155154.447500", "155155.235000", "155156.025000", "155156.812500", "155157.600000", "155158.387500", "155159.177500", "155159.965000", "155200.752500", "155201.540000", "155202.330000", "155203.117500", "155203.905000", "155204.695000", "155205.482500", "155206.270000", "155207.057500", "155207.847500", "155208.635000", "155209.422500", "155210.210000", "155211.000000", "155211.787500", "155212.575000", "155213.362500", "155214.152500", "155214.940000", "155215.727500", "155216.515000", "155217.305000", "155218.092500", "155218.880000", "155219.667500", "155220.457500", "155221.245000", "155222.032500", "155222.822500", "155223.610000", "155224.397500", "155225.185000", "155225.975000", "155226.762500", "155227.550000", "155228.337500", "155229.127500", "155229.915000", "155230.702500", "155231.490000", "155232.280000", "155233.067500", "155233.855000", "155234.642500", "155235.432500", "155236.220000", "155237.007500", "155237.795000", "155238.585000", "155239.372500", "155240.160000", "155240.950000", "155241.737500", "155242.525000", "155243.312500", "155244.102500", "155244.890000", "155245.677500", "155246.465000", "155247.255000", "155248.042500", "155248.830000", "155249.617500", "155250.407500", "155251.195000", "155251.982500", "155252.770000", "155253.560000", "155254.347500", "155255.135000", "155255.922500", "155256.712500", "155257.500000", "155258.287500", "155259.077500", "155259.865000", "155300.652500", "155301.440000", "155302.230000", "155303.017500", "155303.805000", "155304.592500", "155305.382500", "155306.170000", "155306.957500", "155307.745000", "155308.535000", "155309.322500", "155310.110000", "155310.897500", "155311.687500", "155312.475000", "155313.262500", "155314.050000", "155314.840000", "155315.627500", "155316.415000", "155317.205000", "155317.992500", "155318.780000", "155319.567500", "155320.357500", "155321.145000", "155321.932500", "155322.720000", "155323.510000", "155324.297500", "155325.085000", "155325.872500", "155326.662500", "155327.450000", "155328.237500", "155329.025000", "155329.815000", "155330.602500", "155331.390000", "155332.177500", "155332.967500", "155333.755000", "155334.542500", "155335.332500", "155336.120000", "155336.907500", "155337.695000", "155338.485000", "155339.272500", "155340.060000", "155340.847500", "155341.637500", "155342.425000", "155343.212500", "155344.000000", "155344.790000", "155345.577500", "155346.365000", "155347.152500", "155347.942500", "155348.730000", "155349.517500", "155350.305000", "155351.095000", "155351.882500", "155352.670000", "155353.460000", "155354.247500", "155355.035000", "155355.822500", "155356.612500", "155357.400000", "155358.187500", "155358.975000", "155359.765000", "155400.552500", "155401.340000", "155402.127500", "155402.917500", "155403.705000", "155404.492500", "155405.280000", "155406.070000", "155406.857500", "155407.645000", "155408.432500", "155409.222500", "155410.010000", "155410.797500", "155411.587500", "155412.375000", "155413.162500", "155413.950000", "155414.740000", "155415.527500", "155416.315000", "155417.102500", "155417.892500", "155418.680000", "155419.467500", "155420.255000", "155421.045000", "155421.832500", "155422.620000", "155423.407500", "155424.197500", "155424.985000", "155425.772500", "155426.562500", "155427.350000", "155428.137500", "155428.925000", "155429.715000", "155430.502500", "155431.290000", "155432.077500", "155432.867500", "155433.655000", "155434.442500", "155435.230000", "155436.020000", "155436.807500", "155437.595000", "155438.382500", "155439.172500", "155439.960000", "155440.747500", "155441.535000", "155442.325000", "155443.112500", "155443.900000", "155444.690000", "155445.477500", "155446.265000", "155447.052500", "155447.842500", "155448.630000", "155449.417500", "155450.205000", "155450.995000", "155451.782500", "155452.570000", "155453.357500", "155454.147500", "155454.935000", "155455.722500", "155456.510000", "155457.300000", "155458.087500", "155458.875000", "155459.662500", "155500.452500", "155501.240000", "155502.027500", "155502.817500", "155503.605000", "155504.392500", "155505.180000", "155505.970000", "155506.757500", "155507.545000", "155508.332500", "155509.122500", "155509.910000", "155510.697500", "155511.485000", "155512.275000", "155513.062500", "155513.850000", "155514.637500", "155515.427500", "155516.215000", "155517.002500", "155517.790000", "155518.580000", "155519.367500", "155520.155000", "155520.945000", "155521.732500", "155522.520000", "155523.307500", "155524.097500", "155524.885000", "155525.672500", "155526.460000", "155527.250000", "155528.037500", "155528.825000", "155529.612500", "155530.402500", "155531.190000", "155531.977500", "155532.765000", "155533.555000", "155534.342500", "155535.130000", "155535.917500", "155536.707500", "155537.495000", "155538.282500", "155539.072500", "155539.860000", "155540.647500", "155541.435000", "155542.225000", "155543.012500", "155543.800000", "155544.587500", "155545.377500", "155546.165000", "155546.952500", "155547.740000", "155548.530000", "155549.317500", "155550.105000", "155550.892500", "155551.682500", "155552.470000", "155553.257500", "155554.045000", "155554.835000", "155555.622500", "155556.410000", "155557.200000", "155557.987500", "155558.775000", "155559.562500", "155600.352500", "155601.140000", "155601.927500", "155602.715000", "155603.505000", "155604.292500", "155605.080000", "155605.867500", "155606.657500", "155607.445000", "155608.232500", "155609.020000", "155609.810000", "155610.597500", "155611.385000", "155612.172500", "155612.962500", "155613.750000", "155614.537500", "155615.327500", "155616.115000", "155616.902500", "155617.690000", "155618.480000", "155619.267500", "155620.055000", "155620.842500", "155621.632500", "155622.420000", "155623.207500", "155623.995000", "155624.785000", "155625.572500", "155626.360000", "155627.147500", "155627.937500", "155628.725000", "155629.512500", "155630.300000", "155631.090000", "155631.877500", "155632.665000", "155633.455000", "155634.242500", "155635.030000", "155635.817500", "155636.607500", "155637.395000", "155638.182500", "155638.970000", "155639.760000", "155640.547500", "155641.335000", "155642.122500", "155642.912500", "155643.700000", "155644.487500", "155645.275000", "155646.065000", "155646.852500", "155647.640000", "155648.427500", "155649.217500", "155650.005000", "155650.792500", "155651.582500", "155652.370000", "155653.157500", "155653.945000", "155654.735000", "155655.522500", "155656.310000", "155657.097500", "155657.887500", "155658.675000", "155659.462500", "155700.250000", "155701.040000", "155701.827500", "155702.615000", "155703.402500", "155704.192500", "155704.980000", "155705.767500", "155706.555000", "155707.345000", "155708.132500", "155708.920000", "155709.710000", "155710.497500", "155711.285000", "155712.072500", "155712.862500", "155713.650000", "155714.437500", "155715.225000", "155716.015000", "155716.802500", "155717.590000", "155718.377500", "155719.167500", "155719.955000", "155720.742500", "155721.530000", "155722.320000", "155723.107500", "155723.895000", "155724.682500", "155725.472500", "155726.260000", "155727.047500", "155727.837500", "155728.625000", "155729.412500", "155730.200000", "155730.990000", "155731.777500", "155732.565000", "155733.352500", "155734.142500", "155734.930000", "155735.717500", "155736.505000", "155737.295000", "155738.082500", "155738.870000"],
      "ContentTime": ["155025.609000", "155025.609000", "155025.609000", "155025.625000", "155025.625000", "155025.625000", "155025.625000", "155025.625000", "155025.625000", "155025.625000", "155025.625000", "155025.640000", "155025.640000", "155025.640000", "155025.640000", "155025.640000", "155025.640000", "155025.640000", "155025.656000", "155025.656000", "155025.656000", "155025.656000", "155025.656000", "155025.656000", "155025.656000", "155025.656000", "155045.593000", "155045.593000", "155045.593000", "155045.593000", "155045.593000", "155045.593000", "155045.593000", "155045.609000", "155045.609000", "155045.609000", "155045.609000", "155045.609000", "155045.609000", "155045.609000", "155045.609000", "155045.625000", "155045.625000", "155045.625000", "155045.625000", "155045.625000", "155045.625000", "155045.625000", "155045.625000", "155045.640000", "155045.640000", "155045.640000", "155105.593000", "155105.593000", "155105.593000", "155105.593000", "155105.593000", "155105.593000", "155105.593000", "155105.593000", "155105.609000", "155105.609000", "155105.609000", "155105.609000", "155105.609000", "155105.609000", "155105.609000", "155105.625000", "155105.625000", "155105.625000", "155105.625000", "155105.625000", "155105.625000", "155105.625000", "155105.625000", "155105.640000", "155105.640000", "155125.593000", "155125.593000", "155125.593000", "155125.593000", "155125.593000", "155125.593000", "155125.593000", "155125.609000", "155125.609000", "155125.609000", "155125.609000", "155125.609000", "155125.609000", "155125.609000", "155125.609000", "155125.625000", "155125.625000", "155125.625000", "155125.625000", "155125.625000", "155125.625000", "155125.625000", "155125.640000", "155125.640000", "155125.640000", "155125.640000", "155145.593000", "155145.593000", "155145.593000", "155145.593000", "155145.593000", "155145.593000", "155145.593000", "155145.593000", "155145.609000", "155145.609000", "155145.609000", "155145.609000", "155145.609000", "155145.609000", "155145.609000", "155145.625000", "155145.625000", "155145.625000", "155145.625000", "155145.625000", "155145.625000", "155145.625000", "155145.625000", "155145.640000", "155145.640000", "155205.593000", "155205.593000", "155205.593000", "155205.593000", "155205.593000", "155205.593000", "155205.593000", "155205.593000", "155205.609000", "155205.609000", "155205.609000", "155205.609000", "155205.609000", "155205.609000", "155205.609000", "155205.625000", "155205.625000", "155205.625000", "155205.625000", "155205.625000", "155205.625000", "155205.625000", "155205.625000", "155205.640000", "155205.640000", "155205.640000", "155225.593000", "155225.593000", "155225.593000", "155225.593000", "155225.593000", "155225.593000", "155225.593000", "155225.609000", "155225.609000", "155225.609000", "155225.609000", "155225.609000", "155225.609000", "155225.609000", "155225.609000", "155225.625000", "155225.625000", "155225.625000", "155225.625000", "155225.625000", "155225.625000", "155225.625000", "155225.640000", "155225.640000", "155225.640000", "155245.593000", "155245.593000", "155245.593000", "155245.593000", "155245.593000", "155245.593000", "155245.593000", "155245.609000", "155245.609000", "155245.609000", "155245.609000", "155245.609000", "155245.609000", "155245.609000", "155245.609000", "155245.625000", "155245.625000", "155245.625000", "155245.625000", "155245.625000", "155245.625000", "155245.625000", "155245.640000", "155245.640000", "155245.640000", "155245.640000", "155305.593000", "155305.593000", "155305.593000", "155305.593000", "155305.593000", "155305.593000", "155305.593000", "155305.593000", "155305.609000", "155305.609000", "155305.609000", "155305.609000", "155305.609000", "155305.609000", "155305.609000", "155305.625000", "155305.625000", "155305.625000", "155305.625000", "155305.625000", "155305.625000", "155305.625000", "155305.625000", "155305.640000", "155305.640000", "155325.593000", "155325.593000", "155325.593000", "155325.593000", "155325.593000", "155325.593000", "155325.593000", "155325.593000", "155325.609000", "155325.609000", "155325.609000", "155325.609000", "155325.609000", "155325.609000", "155325.609000", "155325.625000", "155325.625000", "155325.625000", "155325.625000", "155325.625000", "155325.625000", "155325.625000", "155325.625000", "155325.640000", "155325.640000", "155325.640000", "155345.593000", "155345.593000", "155345.593000", "155345.593000", "155345.593000", "155345.593000", "155345.593000", "155345.609000", "155345.609000", "155345.609000", "155345.609000", "155345.609000", "155345.609000", "155345.609000", "155345.609000", "155345.625000", "155345.625000", "155345.625000", "155345.625000", "155345.625000", "155345.625000", "155345.625000", "155345.625000", "155345.640000", "155345.640000", "155405.593000", "155405.593000", "155405.593000", "155405.593000", "155405.593000", "155405.593000", "155405.593000", "155405.609000", "155405.609000", "155405.609000", "155405.609000", "155405.609000", "155405.609000", "155405.609000", "155405.609000", "155405.625000", "155405.625000", "155405.625000", "155405.625000", "155405.625000", "155405.625000", "155405.625000", "155405.640000", "155405.640000", "155405.640000", "155405.640000", "155425.593000", "155425.593000", "155425.593000", "155425.593000", "155425.593000", "155425.593000", "155425.593000", "155425.609000", "155425.609000", "155425.609000", "155425.609000", "155425.609000", "155425.609000", "155425.609000", "155425.609000", "155425.625000", "155425.625000", "155425.625000", "155425.625000", "155425.625000", "155425.625000", "155425.625000", "155425.625000", "155425.640000", "155425.640000", "155445.593000", "155445.593000", "155445.593000", "155445.593000", "155445.593000", "155445.609000", "155445.609000", "155445.609000", "155445.609000", "155445.609000", "155445.609000", "155445.609000", "155445.625000", "155445.625000", "155445.625000", "155445.625000", "155445.625000", "155445.625000", "155445.625000", "155445.625000", "155445.640000", "155445.640000", "155445.640000", "155445.640000", "155445.640000", "155445.640000", "155505.593000", "155505.593000", "155505.593000", "155505.593000", "155505.593000", "155505.593000", "155505.593000", "155505.593000", "155505.609000", "155505.609000", "155505.609000", "155505.609000", "155505.609000", "155505.609000", "155505.609000", "155505.625000", "155505.625000", "155505.625000", "155505.625000", "155505.625000", "155505.625000", "155505.625000", "155505.625000", "155505.640000", "155505.640000", "155525.593000", "155525.593000", "155525.593000", "155525.593000", "155525.593000", "155525.593000", "155525.593000", "155525.593000", "155525.609000", "155525.609000", "155525.609000", "155525.609000", "155525.609000", "155525.609000", "155525.609000", "155525.625000", "155525.625000", "155525.625000", "155525.625000", "155525.625000", "155525.625000", "155525.625000", "155525.625000", "155525.640000", "155525.640000", "155525.640000", "155545.593000", "155545.593000", "155545.593000", "155545.593000", "155545.593000", "155545.593000", "155545.593000", "155545.609000", "155545.609000", "155545.609000", "155545.609000", "155545.609000", "155545.609000", "155545.609000", "155545.609000", "155545.625000", "155545.625000", "155545.625000", "155545.625000", "155545.625000", "155545.625000", "155545.625000", "155545.625000", "155545.640000", "155545.640000", "155605.593000", "155605.593000", "155605.593000", "155605.593000", "155605.593000", "155605.593000", "155605.593000", "155605.609000", "155605.609000", "155605.609000", "155605.609000", "155605.609000", "155605.609000", "155605.609000", "155605.609000", "155605.625000", "155605.625000", "155605.625000", "155605.625000", "155605.625000", "155605.625000", "155605.625000", "155605.625000", "155605.640000", "155605.640000", "155625.593000", "155625.593000", "155625.593000", "155625.593000", "155625.593000", "155625.593000", "155625.593000", "155625.609000", "155625.609000", "155625.609000", "155625.609000", "155625.609000", "155625.609000", "155625.609000", "155625.609000", "155625.625000", "155625.625000", "155625.625000", "155625.625000", "155625.625000", "155625.625000", "155625.625000", "155625.625000", "155625.640000", "155625.640000", "155625.640000", "155645.593000", "155645.593000", "155645.593000", "155645.593000", "155645.593000", "155645.593000", "155645.593000", "155645.593000", "155645.609000", "155645.609000", "155645.609000", "155645.609000", "155645.609000", "155645.609000", "155645.609000", "155645.625000", "155645.625000", "155645.625000", "155645.625000", "155645.625000", "155645.625000", "155645.625000", "155645.625000", "155645.640000", "155645.640000", "155705.593000", "155705.593000", "155705.593000", "155705.593000", "155705.593000", "155705.593000", "155705.593000", "155705.609000", "155705.609000", "155705.609000", "155705.609000", "155705.609000", "155705.609000", "155705.609000", "155705.609000", "155705.625000", "155705.625000", "155705.625000", "155705.625000", "155705.625000", "155705.625000", "155705.625000", "155705.625000", "155705.640000", "155705.640000", "155705.640000", "155725.593000", "155725.593000", "155725.593000", "155725.593000", "155725.593000", "155725.593000", "155725.593000", "155725.609000", "155725.609000", "155725.609000", "155725.609000", "155725.609000", "155725.609000", "155725.609000", "155725.609000", "155725.625000", "155725.625000", "155725.625000", "155725.625000", "155725.625000", "155725.625000", "155725.625000", "155725.640000", "155725.640000", "155725.640000", "155740.625000", "155740.625000", "155740.625000", "155740.625000", "155740.625000", "155740.640000", "155740.640000", "155740.640000", "155740.640000", "155740.640000", "155740.640000", "155740.640000", "155740.640000", "155740.656000", "155740.656000", "155740.656000", "155740.656000", "155740.656000", "155740.656000", "155740.656000"],
