{
  "AcquisitionMatrixPE": 104,
  "AcquisitionNumber": 1,
  "AcquisitionTime": "15:26:0.720000",
  "BandwidthPerPixelPhaseEncode": 13.935,
  "BaseResolution": 104,
  "CoilString": "C:HEA;HEP",
  "ConversionSoftware": "dcm2niix",
  "ConversionSoftwareVersion": "v1.0.20210317",
  "DerivedVendorReportedEchoSpacing": 0.000690017,
  "DeviceSerialNumber": "35450",
  "DwellTime": 2.5e-06,
  "EchoTime": 0.0348,
  "EffectiveEchoSpacing": 0.000690017,
  "FlipAngle": 55,
  "ImageComments": "Unaliased MB8/PE3 (remote)",
  "ImageOrientationPatientDICOM": [0.999976, -9.74655e-05, 0.00698186, -2.49984e-08, 0.999903, 0.0139621],
  "ImageType": [
    "ORIGINAL",
    "PRIMARY",
    "M",
    "MB",
    "ND",
    "MOSAIC"
],
  "ImagingFrequency": 123.235,
  "InPlanePhaseEncodingDirectionDICOM": "COL",
  "InstitutionAddress": "Univeristy Ave. 197,Newark,North East,US,07102-1814",
  "InstitutionName": "RUBIC",
  "InstitutionalDepartmentName": "Department",
  "MRAcquisitionType": "2D",
  "MagneticFieldStrength": 3,
  "Manufacturer": "Siemens",
  "ManufacturersModelName": "TrioTim",
  "Modality": "MR",
  "MultibandAccelerationFactor": 8,
  "PartialFourier": 0.875,
  "PatientPosition": "HFS",
  "PercentPhaseFOV": 100,
  "PercentSampling": 100,
  "PhaseEncodingDirection": "j-",
  "PhaseEncodingSteps": 91,
  "PhaseResolution": 1,
  "PixelBandwidth": 1923,
  "ProcedureStepDescription": "Cole^Michael",
  "ProtocolName": "cmrr_mbep2d_bold_2mm_MB8_Task_8x",
  "PulseSequenceDetails": "%CustomerSeq%\\cmrr_mbep2d_bold",
  "ReceiveCoilName": "32Ch_Head",
  "ReconMatrixPE": 104,
  "RepetitionTime": 0.785,
  "SAR": 0.133264,
  "ScanOptions": "PFP\\FS",
  "ScanningSequence": "EP",
  "SequenceName": "epfid2d1_104",
  "SequenceVariant": "SK\\SS",
  "SeriesDescription": "cmrr_mbep2d_bold_2mm_MB8_Task_8x",
  "SeriesNumber": 17,
  "ShimSetting": [2188, -304, -7393, 318, 57, 35, 238, -150],
  "SliceThickness": 2,
  "SliceTiming": [0, 0.4375, 0.0875, 0.525, 0.175, 0.6125, 0.2625, 0.7, 0.35, 0, 0.4375, 0.0875, 0.525, 0.175, 0.6125, 0.2625, 0.7, 0.35, 0, 0.4375, 0.0875, 0.525, 0.175, 0.6125, 0.2625, 0.7, 0.35, 0, 0.4375, 0.0875, 0.525, 0.175, 0.6125, 0.2625, 0.7, 0.35, 0, 0.4375, 0.0875, 0.525, 0.175, 0.6125, 0.2625, 0.7, 0.35, 0, 0.4375, 0.0875, 0.525, 0.175, 0.6125, 0.2625, 0.7, 0.35, 0, 0.4375, 0.0875, 0.525, 0.175, 0.6125, 0.2625, 0.7, 0.35, 0, 0.4375, 0.0875, 0.525, 0.175, 0.6125, 0.2625, 0.7, 0.35],
  "SoftwareVersions": "syngo MR B19",
  "SpacingBetweenSlices": 2,
  "StationName": "MRC35450",
  "TaskName": "cpro",
  "TotalReadoutTime": 0.0710717,
  "TxRefAmp": 317.752,
  "dcmmeta_affine": [
    [-1.9999512434005737, -4.999672142957934e-08, 0.013965072110295296, 103.53282165527344],
    [0.00019493108266033232, 1.9998050928115845, 0.027923425659537315, -76.11195373535156],
    [0.013963711448013783, -0.027924105525016785, 1.9997563362121582, -80.88121032714844],
    [0.0, 0.0, 0.0, 1.0]
],
  "dcmmeta_reorient_transform": [
    [0.0, -1.0, 0.0, 103.0],
    [1.0, 0.0, 0.0, 0.0],
    [0.0, 0.0, 1.0, 0.0],
    [0.0, 0.0, 0.0, 1.0]
],
  "dcmmeta_shape": [104, 104, 72, 581],
  "dcmmeta_slice_dim": 2,
  "dcmmeta_version": 0.6,
  "global": {
    "const": {
      "AcquisitionMatrix": [104, 0, 0, 104],
      "AngioFlag": "N",
      "BitsAllocated": 16,
      "BitsStored": 12,
      "Columns": 936,
      "EchoNumbers": 1,
      "EchoTime": 34.8,
      "EchoTrainLength": 1,
      "FlipAngle": 55.0,
      "HighBit": 11,
      "ImageOrientationPatient": [0.9999756217976, -9.74655421e-05, 0.0069818558408, -2.499836e-08, 0.99990252579103, 0.01396205274001],
      "ImagePositionPatient": [-935.5125164668, -961.70577720721, -101.18272206445],
      "ImageType": [
        "ORIGINAL",
        "PRIMARY",
        "M",
        "MB",
        "ND",
        "MOSAIC"
],
      "ImagedNucleus": "1H",
      "ImagingFrequency": 123.234575,
      "InPlanePhaseEncodingDirection": "COL",
      "MRAcquisitionType": "2D",
      "MagneticFieldStrength": 3.0,
      "Manufacturer": "SIEMENS",
      "ManufacturerModelName": "TrioTim",
      "Modality": "MR",
      "NumberOfAverages": 1.0,
      "NumberOfPhaseEncodingSteps": 91,
      "PercentPhaseFieldOfView": 100.0,
      "PercentSampling": 100.0,
      "PerformedProcedureStepStartTime": "140322.859000",
      "PhotometricInterpretation": "MONOCHROME2",
      "PixelBandwidth": 1923.0,
      "PixelRepresentation": 0,
      "PixelSpacing": [2.0, 2.0],
      "ProtocolName": "cmrr_mbep2d_bold_2mm_MB8_Task_8x",
      "RepetitionTime": 785.0,
      "Rows": 936,
      "SAR": 0.13326429323923,
      "SamplesPerPixel": 1,
      "ScanOptions": [
        "PFP",
        "FS"
],
      "ScanningSequence": "EP",
      "SequenceName": "epfid2d1_104",
      "SequenceVariant": [
        "SK",
        "SS"
],
      "SeriesDescription": "cmrr_mbep2d_bold_2mm_MB8_Task_8x",
      "SeriesNumber": 17,
      "SeriesTime": "152625.609000",
      "SliceLocation": -81.211083405311,
      "SliceThickness": 2.0,
      "SmallestImagePixelValue": 0,
      "SoftwareVersions": "syngo MR B19",
      "SpacingBetweenSlices": 2.0000000433421,
      "SpecificCharacterSet": "ISO_IR 100",
      "StudyID": "1",
      "StudyTime": "140322.828000",
      "TransmitCoilName": "Body",
      "VariableFlipAngleFlag": "N",
      "WindowCenterWidthExplanation": "Algo1",
      "dBdt": 0.0},
    "slices": {}
  },
  "time": {
    "samples": {
      "AcquisitionNumber": [1, 2, 3, 4, 5, 6, 7, 8, 9, 10, 11, 12, 13, 14, 15, 16, 17, 18, 19, 20, 21, 22, 23, 24, 25, 26, 27, 28, 29, 30, 31, 32, 33, 34, 35, 36, 37, 38, 39, 40, 41, 42, 43, 44, 45, 46, 47, 48, 49, 50, 51, 52, 53, 54, 55, 56, 57, 58, 59, 60, 61, 62, 63, 64, 65, 66, 67, 68, 69, 70, 71, 72, 73, 74, 75, 76, 77, 78, 79, 80, 81, 82, 83, 84, 85, 86, 87, 88, 89, 90, 91, 92, 93, 94, 95, 96, 97, 98, 99, 100, 101, 102, 103, 104, 105, 106, 107, 108, 109, 110, 111, 112, 113, 114, 115, 116, 117, 118, 119, 120, 121, 122, 123, 124, 125, 126, 127, 128, 129, 130, 131, 132, 133, 134, 135, 136, 137, 138, 139, 140, 141, 142, 143, 144, 145, 146, 147, 148, 149, 150, 151, 152, 153, 154, 155, 156, 157, 158, 159, 160, 161, 162, 163, 164, 165, 166, 167, 168, 169, 170, 171, 172, 173, 174, 175, 176, 177, 178, 179, 180, 181, 182, 183, 184, 185, 186, 187, 188, 189, 190, 191, 192, 193, 194, 195, 196, 197, 198, 199, 200, 201, 202, 203, 204, 205, 206, 207, 208, 209, 210, 211, 212, 213, 214, 215, 216, 217, 218, 219, 220, 221, 222, 223, 224, 225, 226, 227, 228, 229, 230, 231, 232, 233, 234, 235, 236, 237, 238, 239, 240, 241, 242, 243, 244, 245, 246, 247, 248, 249, 250, 251, 252, 253, 254, 255, 256, 257, 258, 259, 260, 261, 262, 263, 264, 265, 266, 267, 268, 269, 270, 271, 272, 273, 274, 275, 276, 277, 278, 279, 280, 281, 282, 283, 284, 285, 286, 287, 288, 289, 290, 291, 292, 293, 294, 295, 296, 297, 298, 299, 300, 301, 302, 303, 304, 305, 306, 307, 308, 309, 310, 311, 312, 313, 314, 315, 316, 317, 318, 319, 320, 321, 322, 323, 324, 325, 326, 327, 328, 329, 330, 331, 332, 333, 334, 335, 336, 337, 338, 339, 340, 341, 342, 343, 344, 345, 346, 347, 348, 349, 350, 351, 352, 353, 354, 355, 356, 357, 358, 359, 360, 361, 362, 363, 364, 365, 366, 367, 368, 369, 370, 371, 372, 373, 374, 375, 376, 377, 378, 379, 380, 381, 382, 383, 384, 385, 386, 387, 388, 389, 390, 391, 392, 393, 394, 395, 396, 397, 398, 399, 400, 401, 402, 403, 404, 405, 406, 407, 408, 409, 410, 411, 412, 413, 414, 415, 416, 417, 418, 419, 420, 421, 422, 423, 424, 425, 426, 427, 428, 429, 430, 431, 432, 433, 434, 435, 436, 437, 438, 439, 440, 441, 442, 443, 444, 445, 446, 447, 448, 449, 450, 451, 452, 453, 454, 455, 456, 457, 458, 459, 460, 461, 462, 463, 464, 465, 466, 467, 468, 469, 470, 471, 472, 473, 474, 475, 476, 477, 478, 479, 480, 481, 482, 483, 484, 485, 486, 487, 488, 489, 490, 491, 492, 493, 494, 495, 496, 497, 498, 499, 500, 501, 502, 503, 504, 505, 506, 507, 508, 509, 510, 511, 512, 513, 514, 515, 516, 517, 518, 519, 520, 521, 522, 523, 524, 525, 526, 527, 528, 529, 530, 531, 532, 533, 534, 535, 536, 537, 538, 539, 540, 541, 542, 543, 544, 545, 546, 547, 548, 549, 550, 551, 552, 553, 554, 555, 556, 557, 558, 559, 560, 561, 562, 563, 564, 565, 566, 567, 568, 569, 570, 571, 572, 573, 574, 575, 576, 577, 578, 579, 580, 581],
      "AcquisitionTime": ["152600.720000", "152601.507500", "152602.297500", "152603.085000", "152603.872500", "152604.660000", "152605.450000", "152606.237500", "152607.025000", "152607.812500", "152608.602500", "152609.390000", "152610.177500", "152610.965000", "152611.755000", "152612.542500", "152613.330000", "152614.120000", "152614.907500", "152615.695000", "152616.482500", "152617.272500", "152618.060000", "152618.847500", "152619.635000", "152620.425000", "152621.212500", "152622.000000", "152622.787500", "152623.577500", "152624.365000", "152625.152500", "152625.940000", "152626.730000", "152627.517500", "152628.305000", "152629.092500", "152629.882500", "152630.670000", "152631.457500", "152632.247500", "152633.035000", "152633.822500", "152634.610000", "152635.400000", "152636.187500", "152636.975000", "152637.762500", "152638.552500", "152639.340000", "152640.127500", "152640.915000", "152641.705000", "152642.492500", "152643.280000", "152644.067500", "152644.857500", "152645.645000", "152646.432500", "152647.220000", "152648.010000", "152648.797500", "152649.585000", "152650.375000", "152651.162500", "152651.950000", "152652.737500", "152653.527500", "152654.315000", "152655.102500", "152655.890000", "152656.680000", "152657.467500", "152658.255000", "152659.042500", "152659.832500", "152700.620000", "152701.407500", "152702.195000", "152702.985000", "152703.772500", "152704.560000", "152705.347500", "152706.137500", "152706.925000", "152707.712500", "152708.502500", "152709.290000", "152710.077500", "152710.865000", "152711.655000", "152712.442500", "152713.230000", "152714.017500", "152714.807500", "152715.595000", "152716.382500", "152717.170000", "152717.960000", "152718.747500", "152719.535000", "152720.322500", "152721.112500", "152721.900000", "152722.687500", "152723.475000", "152724.265000", "152725.052500", "152725.840000", "152726.630000", "152727.417500", "152728.205000", "152728.992500", "152729.782500", "152730.570000", "152731.357500", "152732.145000", "152732.935000", "152733.722500", "152734.510000", "152735.297500", "152736.087500", "152736.875000", "152737.662500", "152738.450000", "152739.240000", "152740.027500", "152740.815000", "152741.602500", "152742.392500", "152743.180000", "152743.967500", "152744.757500", "152745.545000", "152746.332500", "152747.120000", "152747.910000", "152748.697500", "152749.485000", "152750.272500", "152751.062500", "152751.850000", "152752.637500", "152753.425000", "152754.215000", "152755.002500", "152755.790000", "152756.577500", "152757.367500", "152758.155000", "152758.942500", "152759.730000", "152800.520000", "152801.307500", "152802.095000", "152802.885000", "152803.672500", "152804.460000", "152805.247500", "152806.037500", "152806.825000", "152807.612500", "152808.400000", "152809.190000", "152809.977500", "152810.765000", "152811.552500", "152812.342500", "152813.130000", "152813.917500", "152814.705000", "152815.495000", "152816.282500", "152817.070000", "152817.857500", "152818.647500", "152819.435000", "152820.222500", "152821.012500", "152821.800000", "152822.587500", "152823.375000", "152824.165000", "152824.952500", "152825.740000", "152826.527500", "152827.317500", "152828.105000", "152828.892500", "152829.680000", "152830.470000", "152831.257500", "152832.045000", "152832.832500", "152833.622500", "152834.410000", "152835.197500", "152835.985000", "152836.775000", "152837.562500", "152838.350000", "152839.140000", "152839.927500", "152840.715000", "152841.502500", "152842.292500", "152843.080000", "152843.867500", "152844.655000", "152845.445000", "152846.232500", "152847.020000", "152847.807500", "152848.597500", "152849.385000", "152850.172500", "152850.960000", "152851.750000", "152852.537500", "152853.325000", "152854.112500", "152854.902500", "152855.690000", "152856.477500", "152857.267500", "152858.055000", "152858.842500", "152859.630000", "152900.420000", "152901.207500", "152901.995000", "152902.782500", "152903.572500", "152904.360000", "152905.147500", "152905.935000", "152906.725000", "152907.512500", "152908.300000", "152909.087500", "152909.877500", "152910.665000", "152911.452500", "152912.242500", "152913.030000", "152913.817500", "152914.605000", "152915.395000", "152916.182500", "152916.970000", "152917.757500", "152918.547500", "152919.335000", "152920.122500", "152920.910000", "152921.700000", "152922.487500", "152923.275000", "152924.062500", "152924.852500", "152925.640000", "152926.427500", "152927.215000", "152928.005000", "152928.792500", "152929.580000", "152930.370000", "152931.157500", "152931.945000", "152932.732500", "152933.522500", "152934.310000", "152935.097500", "152935.885000", "152936.675000", "152937.462500", "152938.250000", "152939.037500", "152939.827500", "152940.615000", "152941.402500", "152942.190000", "152942.980000", "152943.767500", "152944.555000", "152945.342500", "152946.132500", "152946.920000", "152947.707500", "152948.497500", "152949.285000", "152950.072500", "152950.860000", "152951.650000", "152952.437500", "152953.225000", "152954.012500", "152954.802500", "152955.590000", "152956.377500", "152957.165000", "152957.955000", "152958.742500", "152959.530000", "153000.317500", "153001.107500", "153001.895000", "153002.682500", "153003.470000", "153004.260000", "153005.047500", "153005.835000", "153006.625000", "153007.412500", "153008.200000", "153008.987500", "153009.777500", "153010.565000", "153011.352500", "153012.140000", "153012.930000", "153013.717500", "153014.505000", "153015.292500", "153016.082500", "153016.870000", "153017.657500", "153018.445000", "153019.235000", "153020.022500", "153020.810000", "153021.597500", "153022.387500", "153023.175000", "153023.962500", "153024.752500", "153025.540000", "153026.327500", "153027.115000", "153027.905000", "153028.692500", "153029.480000", "153030.267500", "153031.057500", "153031.845000", "153032.632500", "153033.420000", "153034.210000", "153034.997500", "153035.785000", "153036.572500", "153037.362500", "153038.150000", "153038.937500", "153039.725000", "153040.515000", "153041.302500", "153042.090000", "153042.880000", "153043.667500", "153044.455000", "153045.242500", "153046.032500", "153046.820000", "153047.607500", "153048.395000", "153049.185000", "153049.972500", "153050.760000", "153051.547500", "153052.337500", "153053.125000", "153053.912500", "153054.700000", "153055.490000", "153056.277500", "153057.065000", "153057.852500", "153058.642500", "153059.430000", "153100.217500", "153101.007500", "153101.795000", "153102.582500", "153103.370000", "153104.160000", "153104.947500", "153105.735000", "153106.522500", "153107.312500", "153108.100000", "153108.887500", "153109.675000", "153110.465000", "153111.252500", "153112.040000", "153112.827500", "153113.617500", "153114.405000", "153115.192500", "153115.980000", "153116.770000", "153117.557500", "153118.345000", "153119.135000", "153119.922500", "153120.710000", "153121.497500", "153122.287500", "153123.075000", "153123.862500", "153124.650000", "153125.440000", "153126.227500", "153127.015000", "153127.802500", "153128.592500", "153129.380000", "153130.167500", "153130.955000", "153131.745000", "153132.532500", "153133.320000", "153134.107500", "153134.897500", "153135.685000", "153136.472500", "153137.262500", "153138.050000", "153138.837500", "153139.625000", "153140.415000", "153141.202500", "153141.990000", "153142.777500", "153143.567500", "153144.355000", "153145.142500", "153145.930000", "153146.720000", "153147.507500", "153148.295000", "153149.082500", "153149.872500", "153150.660000", "153151.447500", "153152.235000", "153153.025000", "153153.812500", "153154.600000", "153155.390000", "153156.177500", "153156.965000", "153157.752500", "153158.542500", "153159.330000", "153200.117500", "153200.905000", "153201.695000", "153202.482500", "153203.270000", "153204.057500", "153204.847500", "153205.635000", "153206.422500", "153207.210000", "153208.000000", "153208.787500", "153209.575000", "153210.362500", "153211.152500", "153211.940000", "153212.727500", "153213.517500", "153214.305000", "153215.092500", "153215.880000", "153216.670000", "153217.457500", "153218.245000", "153219.032500", "153219.822500", "153220.610000", "153221.397500", "153222.185000", "153222.975000", "153223.762500", "153224.550000", "153225.337500", "153226.127500", "153226.915000", "153227.702500", "153228.492500", "153229.280000", "153230.067500", "153230.855000", "153231.645000", "153232.432500", "153233.220000", "153234.007500", "153234.797500", "153235.585000", "153236.372500", "153237.160000", "153237.950000", "153238.737500", "153239.525000", "153240.312500", "153241.102500", "153241.890000", "153242.677500", "153243.465000", "153244.255000", "153245.042500", "153245.830000", "153246.620000", "153247.407500", "153248.195000", "153248.982500", "153249.772500", "153250.560000", "153251.347500", "153252.135000", "153252.925000", "153253.712500", "153254.500000", "153255.287500", "153256.077500", "153256.865000", "153257.652500", "153258.440000", "153259.230000", "153300.017500", "153300.805000", "153301.592500", "153302.382500", "153303.170000", "153303.957500", "153304.747500", "153305.535000", "153306.322500", "153307.110000", "153307.900000", "153308.687500", "153309.475000", "153310.262500", "153311.052500", "153311.840000", "153312.627500", "153313.415000", "153314.205000", "153314.992500", "153315.780000", "153316.567500", "153317.357500", "153318.145000", "153318.932500", "153319.720000", "153320.510000", "153321.297500", "153322.085000", "153322.875000", "153323.662500", "153324.450000", "153325.237500", "153326.027500", "153326.815000", "153327.602500", "153328.390000", "153329.180000", "153329.967500", "153330.755000", "153331.542500", "153332.332500", "153333.120000", "153333.907500", "153334.695000", "153335.485000", "153336.272500", "153337.060000", "153337.847500"],
      "ContentTime": ["152625.609000", "152625.625000", "152625.625000", "152625.625000", "152625.625000", "152625.625000", "152625.625000", "152625.625000", "152625.640000", "152625.640000", "152625.640000", "152625.640000", "152625.640000", "152625.640000", "152625.640000", "152625.640000", "152625.656000", "152625.656000", "152625.656000", "152625.656000", "152625.656000", "152625.656000", "152625.656000", "152625.656000", "152625.671000", "152625.671000", "152625.671000", "152625.671000", "152625.671000", "152645.593000", "152645.593000", "152645.593000", "152645.593000", "152645.593000", "152645.593000", "152645.593000", "152645.593000", "152645.609000", "152645.609000", "152645.609000", "152645.609000", "152645.609000", "152645.609000", "152645.609000", "152645.625000", "152645.625000", "152645.625000", "152645.625000", "152645.625000", "152645.625000", "152645.625000", "152645.640000", "152645.640000", "152645.640000", "152705.593000", "152705.593000", "152705.593000", "152705.593000", "152705.593000", "152705.593000", "152705.593000", "152705.593000", "152705.609000", "152705.609000", "152705.609000", "152705.609000", "152705.609000", "152705.609000", "152705.609000", "152705.625000", "152705.625000", "152705.625000", "152705.625000", "152705.625000", "152705.625000", "152705.625000", "152705.625000", "152705.640000", "152705.640000", "152705.640000", "152725.593000", "152725.593000", "152725.593000", "152725.593000", "152725.593000", "152725.593000", "152725.593000", "152725.593000", "152725.609000", "152725.609000", "152725.609000", "152725.609000", "152725.609000", "152725.609000", "152725.609000", "152725.609000", "152725.625000", "152725.625000", "152725.625000", "152725.625000", "152725.625000", "152725.625000", "152725.625000", "152725.640000", "152725.640000", "152745.593000", "152745.593000", "152745.593000", "152745.593000", "152745.593000", "152745.593000", "152745.593000", "152745.609000", "152745.609000", "152745.609000", "152745.609000", "152745.609000", "152745.609000", "152745.609000", "152745.609000", "152745.625000", "152745.625000", "152745.625000", "152745.625000", "152745.625000", "152745.625000", "152745.625000", "152745.625000", "152745.640000", "152745.640000", "152745.640000", "152805.593000", "152805.593000", "152805.593000", "152805.593000", "152805.593000", "152805.593000", "152805.593000", "152805.609000", "152805.609000", "152805.609000", "152805.609000", "152805.609000", "152805.609000", "152805.609000", "152805.609000", "152805.625000", "152805.625000", "152805.625000", "152805.625000", "152805.625000", "152805.625000", "152805.625000", "152805.625000", "152805.640000", "152805.640000", "152825.593000", "152825.593000", "152825.593000", "152825.593000", "152825.593000", "152825.593000", "152825.593000", "152825.593000", "152825.609000", "152825.609000", "152825.609000", "152825.609000", "152825.609000", "152825.609000", "152825.609000", "152825.609000", "152825.625000", "152825.625000", "152825.625000", "152825.625000", "152825.625000", "152825.625000", "152825.625000", "152825.640000", "152825.640000", "152825.640000", "152845.593000", "152845.593000", "152845.593000", "152845.593000", "152845.593000", "152845.593000", "152845.593000", "152845.593000", "152845.609000", "152845.609000", "152845.609000", "152845.609000", "152845.609000", "152845.609000", "152845.609000", "152845.625000", "152845.625000", "152845.625000", "152845.625000", "152845.625000", "152845.625000", "152845.625000", "152845.625000", "152845.640000", "152845.640000", "152905.593000", "152905.593000", "152905.593000", "152905.593000", "152905.593000", "152905.593000", "152905.593000", "152905.609000", "152905.609000", "152905.609000", "152905.609000", "152905.609000", "152905.609000", "152905.609000", "152905.609000", "152905.625000", "152905.625000", "152905.625000", "152905.625000", "152905.625000", "152905.625000", "152905.625000", "152905.625000", "152905.640000", "152905.640000", "152905.640000", "152925.593000", "152925.593000", "152925.593000", "152925.593000", "152925.593000", "152925.593000", "152925.593000", "152925.593000", "152925.609000", "152925.609000", "152925.609000", "152925.609000", "152925.609000", "152925.609000", "152925.609000", "152925.625000", "152925.625000", "152925.625000", "152925.625000", "152925.625000", "152925.625000", "152925.625000", "152925.625000", "152925.640000", "152925.640000", "152945.593000", "152945.593000", "152945.593000", "152945.593000", "152945.593000", "152945.593000", "152945.593000", "152945.609000", "152945.609000", "152945.609000", "152945.609000", "152945.609000", "152945.609000", "152945.609000", "152945.609000", "152945.625000", "152945.625000", "152945.625000", "152945.625000", "152945.625000", "152945.625000", "152945.625000", "152945.640000", "152945.640000", "152945.640000", "152945.640000", "153005.593000", "153005.593000", "153005.593000", "153005.593000", "153005.593000", "153005.593000", "153005.593000", "153005.593000", "153005.609000", "153005.609000", "153005.609000", "153005.609000", "153005.609000", "153005.609000", "153005.609000", "153005.625000", "153005.625000", "153005.625000", "153005.625000", "153005.625000", "153005.625000", "153005.625000", "153005.640000", "153005.640000", "153005.640000", "153025.593000", "153025.593000", "153025.593000", "153025.593000", "153025.593000", "153025.593000", "153025.593000", "153025.593000", "153025.609000", "153025.609000", "153025.609000", "153025.609000", "153025.609000", "153025.609000", "153025.609000", "153025.625000", "153025.625000", "153025.625000", "153025.625000", "153025.625000", "153025.625000", "153025.625000", "153025.625000", "153025.640000", "153025.640000", "153025.640000", "153045.593000", "153045.593000", "153045.593000", "153045.593000", "153045.593000", "153045.593000", "153045.593000", "153045.593000", "153045.609000", "153045.609000", "153045.609000", "153045.609000", "153045.609000", "153045.609000", "153045.609000", "153045.625000", "153045.625000", "153045.625000", "153045.625000", "153045.625000", "153045.625000", "153045.625000", "153045.625000", "153045.640000", "153045.640000", "153105.593000", "153105.593000", "153105.593000", "153105.593000", "153105.593000", "153105.593000", "153105.593000", "153105.593000", "153105.609000", "153105.609000", "153105.609000", "153105.609000", "153105.609000", "153105.609000", "153105.609000", "153105.625000", "153105.625000", "153105.625000", "153105.625000", "153105.625000", "153105.625000", "153105.625000", "153105.625000", "153105.640000", "153105.640000", "153105.640000", "153125.593000", "153125.593000", "153125.593000", "153125.593000", "153125.593000", "153125.593000", "153125.593000", "153125.609000", "153125.609000", "153125.609000", "153125.609000", "153125.609000", "153125.609000", "153125.609000", "153125.625000", "153125.625000", "153125.625000", "153125.625000", "153125.625000", "153125.625000", "153125.625000", "153125.625000", "153125.640000", "153125.640000", "153125.640000", "153145.593000", "153145.593000", "153145.593000", "153145.593000", "153145.593000", "153145.593000", "153145.593000", "153145.593000", "153145.609000", "153145.609000", "153145.609000", "153145.609000", "153145.609000", "153145.609000", "153145.609000", "153145.625000", "153145.625000", "153145.625000", "153145.625000", "153145.625000", "153145.625000", "153145.625000", "153145.625000", "153145.640000", "153145.640000", "153145.640000", "153205.593000", "153205.593000", "153205.593000", "153205.593000", "153205.593000", "153205.593000", "153205.593000", "153205.593000", "153205.609000", "153205.609000", "153205.609000", "153205.609000", "153205.609000", "153205.625000", "153205.625000", "153205.625000", "153205.625000", "153205.625000", "153205.640000", "153205.640000", "153205.640000", "153205.640000", "153205.640000", "153205.640000", "153205.640000", "153225.593000", "153225.593000", "153225.593000", "153225.593000", "153225.593000", "153225.593000", "153225.593000", "153225.609000", "153225.609000", "153225.609000", "153225.609000", "153225.609000", "153225.609000", "153225.609000", "153225.609000", "153225.625000", "153225.625000", "153225.625000", "153225.625000", "153225.625000", "153225.625000", "153225.625000", "153225.640000", "153225.640000", "153225.640000", "153245.593000", "153245.593000", "153245.593000", "153245.593000", "153245.593000", "153245.593000", "153245.593000", "153245.609000", "153245.609000", "153245.609000", "153245.609000", "153245.609000", "153245.609000", "153245.609000", "153245.609000", "153245.625000", "153245.625000", "153245.625000", "153245.625000", "153245.625000", "153245.625000", "153245.625000", "153245.640000", "153245.640000", "153245.640000", "153245.640000", "153305.593000", "153305.593000", "153305.593000", "153305.593000", "153305.593000", "153305.593000", "153305.593000", "153305.609000", "153305.609000", "153305.609000", "153305.609000", "153305.609000", "153305.625000", "153305.625000", "153305.625000", "153305.625000", "153305.625000", "153305.625000", "153305.625000", "153305.625000", "153305.640000", "153305.640000", "153305.640000", "153305.640000", "153305.640000", "153325.593000", "153325.593000", "153325.593000", "153325.593000", "153325.593000", "153325.593000", "153325.593000", "153325.609000", "153325.609000", "153325.609000", "153325.609000", "153325.609000", "153325.609000", "153325.609000", "153325.609000", "153325.625000", "153325.625000", "153325.625000", "153325.625000", "153325.625000", "153325.625000", "153325.625000", "153325.625000", "153325.640000", "153325.640000", "153325.640000", "153338.671000", "153338.671000", "153338.671000", "153338.671000", "153338.687000", "153338.687000", "153338.687000", "153338.687000", "153338.687000", "153338.687000", "153338.687000", "153338.703000", "153338.703000", "153338.703000", "153338.703000", "153338.703000", "153338.703000"],
