{
  "AcquisitionMatrixPE": 104,
  "AcquisitionNumber": 1,
  "AcquisitionTime": "15:58:5.742500",
  "BandwidthPerPixelPhaseEncode": 13.935,
  "BaseResolution": 104,
  "CoilString": "C:HEA;HEP",
  "ConversionSoftware": "dcm2niix",
  "ConversionSoftwareVersion": "v1.0.20210317",
  "DerivedVendorReportedEchoSpacing": 0.000690017,
  "DeviceSerialNumber": "35450",
  "DwellTime": 2.5e-06,
  "EchoTime": 0.0348,
  "EffectiveEchoSpacing": 0.000690017,
  "FlipAngle": 55,
  "ImageComments": "Unaliased MB8/PE3 (remote)",
  "ImageOrientationPatientDICOM": [0.999976, -9.74655e-05, 0.00698186, -2.49984e-08, 0.999903, 0.0139621],
  "ImageType": [
    "ORIGINAL",
    "PRIMARY",
    "M",
    "MB",
    "ND",
    "MOSAIC"
],
  "ImagingFrequency": 123.235,
  "InPlanePhaseEncodingDirectionDICOM": "COL",
  "InstitutionAddress": "Univeristy Ave. 197,Newark,North East,US,07102-1814",
  "InstitutionName": "RUBIC",
  "InstitutionalDepartmentName": "Department",
  "MRAcquisitionType": "2D",
  "MagneticFieldStrength": 3,
  "Manufacturer": "Siemens",
  "ManufacturersModelName": "TrioTim",
  "Modality": "MR",
  "MultibandAccelerationFactor": 8,
  "PartialFourier": 0.875,
  "PatientPosition": "HFS",
  "PercentPhaseFOV": 100,
  "PercentSampling": 100,
  "PhaseEncodingDirection": "j-",
  "PhaseEncodingSteps": 91,
  "PhaseResolution": 1,
  "PixelBandwidth": 1923,
  "ProcedureStepDescription": "Cole^Michael",
  "ProtocolName": "cmrr_mbep2d_bold_2mm_MB8_Task_8x",
  "PulseSequenceDetails": "%CustomerSeq%\\cmrr_mbep2d_bold",
  "ReceiveCoilName": "32Ch_Head",
  "ReconMatrixPE": 104,
  "RepetitionTime": 0.785,
  "SAR": 0.133264,
  "ScanOptions": "PFP\\FS",
  "ScanningSequence": "EP",
  "SequenceName": "epfid2d1_104",
  "SequenceVariant": "SK\\SS",
  "SeriesDescription": "cmrr_mbep2d_bold_2mm_MB8_Task_8x",
  "SeriesNumber": 25,
  "ShimSetting": [2188, -304, -7393, 318, 57, 35, 238, -150],
  "SliceThickness": 2,
  "SliceTiming": [0, 0.4375, 0.0875, 0.525, 0.175, 0.6125, 0.2625, 0.7, 0.35, 0, 0.4375, 0.0875, 0.525, 0.175, 0.6125, 0.2625, 0.7, 0.35, 0, 0.4375, 0.0875, 0.525, 0.175, 0.6125, 0.2625, 0.7, 0.35, 0, 0.4375, 0.0875, 0.525, 0.175, 0.6125, 0.2625, 0.7, 0.35, 0, 0.4375, 0.0875, 0.525, 0.175, 0.6125, 0.2625, 0.7, 0.35, 0, 0.4375, 0.0875, 0.525, 0.175, 0.6125, 0.2625, 0.7, 0.35, 0, 0.4375, 0.0875, 0.525, 0.175, 0.6125, 0.2625, 0.7, 0.35, 0, 0.4375, 0.0875, 0.525, 0.175, 0.6125, 0.2625, 0.7, 0.35],
  "SoftwareVersions": "syngo MR B19",
  "SpacingBetweenSlices": 2,
  "StationName": "MRC35450",
  "TaskName": "cpro",
  "TotalReadoutTime": 0.0710717,
  "TxRefAmp": 317.752,
  "dcmmeta_affine": [
    [-1.9999512434005737, -4.999672142957934e-08, 0.013965072110295296, 103.53282165527344],
    [0.00019493108266033232, 1.9998050928115845, 0.027923425659537315, -76.11195373535156],
    [0.013963711448013783, -0.027924105525016785, 1.9997563362121582, -80.88121032714844],
    [0.0, 0.0, 0.0, 1.0]
],
  "dcmmeta_reorient_transform": [
    [0.0, -1.0, 0.0, 103.0],
    [1.0, 0.0, 0.0, 0.0],
    [0.0, 0.0, 1.0, 0.0],
    [0.0, 0.0, 0.0, 1.0]
],
  "dcmmeta_shape": [104, 104, 72, 581],
  "dcmmeta_slice_dim": 2,
  "dcmmeta_version": 0.6,
  "global": {
    "const": {
      "AcquisitionMatrix": [104, 0, 0, 104],
      "AngioFlag": "N",
      "BitsAllocated": 16,
      "BitsStored": 12,
      "Columns": 936,
      "EchoNumbers": 1,
      "EchoTime": 34.8,
      "EchoTrainLength": 1,
      "FlipAngle": 55.0,
      "HighBit": 11,
      "ImageOrientationPatient": [0.9999756217976, -9.74655421e-05, 0.0069818558408, -2.499836e-08, 0.99990252579103, 0.01396205274001],
      "ImagePositionPatient": [-935.5125164668, -961.70577720721, -101.18272206445],
      "ImageType": [
        "ORIGINAL",
        "PRIMARY",
        "M",
        "MB",
        "ND",
        "MOSAIC"
],
      "ImagedNucleus": "1H",
      "ImagingFrequency": 123.234575,
      "InPlanePhaseEncodingDirection": "COL",
      "MRAcquisitionType": "2D",
      "MagneticFieldStrength": 3.0,
      "Manufacturer": "SIEMENS",
      "ManufacturerModelName": "TrioTim",
      "Modality": "MR",
      "NumberOfAverages": 1.0,
      "NumberOfPhaseEncodingSteps": 91,
      "PercentPhaseFieldOfView": 100.0,
      "PercentSampling": 100.0,
      "PerformedProcedureStepStartTime": "140322.859000",
      "PhotometricInterpretation": "MONOCHROME2",
      "PixelBandwidth": 1923.0,
      "PixelRepresentation": 0,
      "PixelSpacing": [2.0, 2.0],
      "ProtocolName": "cmrr_mbep2d_bold_2mm_MB8_Task_8x",
      "RepetitionTime": 785.0,
      "Rows": 936,
      "SAR": 0.13326429323923,
      "SamplesPerPixel": 1,
      "ScanOptions": [
        "PFP",
        "FS"
],
      "ScanningSequence": "EP",
      "SequenceName": "epfid2d1_104",
      "SequenceVariant": [
        "SK",
        "SS"
],
      "SeriesDescription": "cmrr_mbep2d_bold_2mm_MB8_Task_8x",
      "SeriesNumber": 25,
      "SeriesTime": "155835.390000",
      "SliceLocation": -81.211083405311,
      "SliceThickness": 2.0,
      "SmallestImagePixelValue": 0,
      "SoftwareVersions": "syngo MR B19",
      "SpacingBetweenSlices": 2.0000000433421,
      "SpecificCharacterSet": "ISO_IR 100",
      "StudyID": "1",
      "StudyTime": "140322.828000",
      "TransmitCoilName": "Body",
      "VariableFlipAngleFlag": "N",
      "WindowCenterWidthExplanation": "Algo1",
      "dBdt": 0.0},
    "slices": {}
  },
  "time": {
    "samples": {
      "AcquisitionNumber": [1, 2, 3, 4, 5, 6, 7, 8, 9, 10, 11, 12, 13, 14, 15, 16, 17, 18, 19, 20, 21, 22, 23, 24, 25, 26, 27, 28, 29, 30, 31, 32, 33, 34, 35, 36, 37, 38, 39, 40, 41, 42, 43, 44, 45, 46, 47, 48, 49, 50, 51, 52, 53, 54, 55, 56, 57, 58, 59, 60, 61, 62, 63, 64, 65, 66, 67, 68, 69, 70, 71, 72, 73, 74, 75, 76, 77, 78, 79, 80, 81, 82, 83, 84, 85, 86, 87, 88, 89, 90, 91, 92, 93, 94, 95, 96, 97, 98, 99, 100, 101, 102, 103, 104, 105, 106, 107, 108, 109, 110, 111, 112, 113, 114, 115, 116, 117, 118, 119, 120, 121, 122, 123, 124, 125, 126, 127, 128, 129, 130, 131, 132, 133, 134, 135, 136, 137, 138, 139, 140, 141, 142, 143, 144, 145, 146, 147, 148, 149, 150, 151, 152, 153, 154, 155, 156, 157, 158, 159, 160, 161, 162, 163, 164, 165, 166, 167, 168, 169, 170, 171, 172, 173, 174, 175, 176, 177, 178, 179, 180, 181, 182, 183, 184, 185, 186, 187, 188, 189, 190, 191, 192, 193, 194, 195, 196, 197, 198, 199, 200, 201, 202, 203, 204, 205, 206, 207, 208, 209, 210, 211, 212, 213, 214, 215, 216, 217, 218, 219, 220, 221, 222, 223, 224, 225, 226, 227, 228, 229, 230, 231, 232, 233, 234, 235, 236, 237, 238, 239, 240, 241, 242, 243, 244, 245, 246, 247, 248, 249, 250, 251, 252, 253, 254, 255, 256, 257, 258, 259, 260, 261, 262, 263, 264, 265, 266, 267, 268, 269, 270, 271, 272, 273, 274, 275, 276, 277, 278, 279, 280, 281, 282, 283, 284, 285, 286, 287, 288, 289, 290, 291, 292, 293, 294, 295, 296, 297, 298, 299, 300, 301, 302, 303, 304, 305, 306, 307, 308, 309, 310, 311, 312, 313, 314, 315, 316, 317, 318, 319, 320, 321, 322, 323, 324, 325, 326, 327, 328, 329, 330, 331, 332, 333, 334, 335, 336, 337, 338, 339, 340, 341, 342, 343, 344, 345, 346, 347, 348, 349, 350, 351, 352, 353, 354, 355, 356, 357, 358, 359, 360, 361, 362, 363, 364, 365, 366, 367, 368, 369, 370, 371, 372, 373, 374, 375, 376, 377, 378, 379, 380, 381, 382, 383, 384, 385, 386, 387, 388, 389, 390, 391, 392, 393, 394, 395, 396, 397, 398, 399, 400, 401, 402, 403, 404, 405, 406, 407, 408, 409, 410, 411, 412, 413, 414, 415, 416, 417, 418, 419, 420, 421, 422, 423, 424, 425, 426, 427, 428, 429, 430, 431, 432, 433, 434, 435, 436, 437, 438, 439, 440, 441, 442, 443, 444, 445, 446, 447, 448, 449, 450, 451, 452, 453, 454, 455, 456, 457, 458, 459, 460, 461, 462, 463, 464, 465, 466, 467, 468, 469, 470, 471, 472, 473, 474, 475, 476, 477, 478, 479, 480, 481, 482, 483, 484, 485, 486, 487, 488, 489, 490, 491, 492, 493, 494, 495, 496, 497, 498, 499, 500, 501, 502, 503, 504, 505, 506, 507, 508, 509, 510, 511, 512, 513, 514, 515, 516, 517, 518, 519, 520, 521, 522, 523, 524, 525, 526, 527, 528, 529, 530, 531, 532, 533, 534, 535, 536, 537, 538, 539, 540, 541, 542, 543, 544, 545, 546, 547, 548, 549, 550, 551, 552, 553, 554, 555, 556, 557, 558, 559, 560, 561, 562, 563, 564, 565, 566, 567, 568, 569, 570, 571, 572, 573, 574, 575, 576, 577, 578, 579, 580, 581],
      "AcquisitionTime": ["155805.742500", "155806.532500", "155807.320000", "155808.107500", "155808.895000", "155809.685000", "155810.472500", "155811.260000", "155812.047500", "155812.837500", "155813.625000", "155814.412500", "155815.200000", "155815.990000", "155816.777500", "155817.565000", "155818.352500", "155819.142500", "155819.930000", "155820.717500", "155821.505000", "155822.295000", "155823.082500", "155823.870000", "155824.660000", "155825.447500", "155826.235000", "155827.022500", "155827.812500", "155828.600000", "155829.387500", "155830.175000", "155830.965000", "155831.752500", "155832.540000", "155833.327500", "155834.117500", "155834.905000", "155835.692500", "155836.480000", "155837.270000", "155838.057500", "155838.845000", "155839.632500", "155840.422500", "155841.210000", "155841.997500", "155842.787500", "155843.575000", "155844.362500", "155845.150000", "155845.940000", "155846.727500", "155847.515000", "155848.302500", "155849.092500", "155849.880000", "155850.667500", "155851.455000", "155852.245000", "155853.032500", "155853.820000", "155854.607500", "155855.397500", "155856.185000", "155856.972500", "155857.760000", "155858.550000", "155859.337500", "155900.125000", "155900.915000", "155901.702500", "155902.490000", "155903.277500", "155904.067500", "155904.855000", "155905.642500", "155906.430000", "155907.220000", "155908.007500", "155908.795000", "155909.582500", "155910.372500", "155911.160000", "155911.947500", "155912.735000", "155913.525000", "155914.312500", "155915.100000", "155915.887500", "155916.677500", "155917.465000", "155918.252500", "155919.042500", "155919.830000", "155920.617500", "155921.405000", "155922.195000", "155922.982500", "155923.770000", "155924.557500", "155925.347500", "155926.135000", "155926.922500", "155927.710000", "155928.500000", "155929.287500", "155930.075000", "155930.862500", "155931.652500", "155932.440000", "155933.227500", "155934.015000", "155934.805000", "155935.592500", "155936.380000", "155937.170000", "155937.957500", "155938.745000", "155939.532500", "155940.322500", "155941.110000", "155941.897500", "155942.685000", "155943.475000", "155944.262500", "155945.050000", "155945.837500", "155946.627500", "155947.415000", "155948.202500", "155948.990000", "155949.780000", "155950.567500", "155951.355000", "155952.142500", "155952.932500", "155953.720000", "155954.507500", "155955.297500", "155956.085000", "155956.872500", "155957.660000", "155958.450000", "155959.237500", "160000.025000", "160000.812500", "160001.602500", "160002.390000", "160003.177500", "160003.965000", "160004.755000", "160005.542500", "160006.330000", "160007.117500", "160007.907500", "160008.695000", "160009.482500", "160010.270000", "160011.060000", "160011.847500", "160012.635000", "160013.425000", "160014.212500", "160015.000000", "160015.787500", "160016.577500", "160017.365000", "160018.152500", "160018.940000", "160019.730000", "160020.517500", "160021.305000", "160022.092500", "160022.882500", "160023.670000", "160024.457500", "160025.245000", "160026.035000", "160026.822500", "160027.610000", "160028.397500", "160029.187500", "160029.975000", "160030.762500", "160031.552500", "160032.340000", "160033.127500", "160033.915000", "160034.705000", "160035.492500", "160036.280000", "160037.067500", "160037.857500", "160038.645000", "160039.432500", "160040.220000", "160041.010000", "160041.797500", "160042.585000", "160043.372500", "160044.162500", "160044.950000", "160045.737500", "160046.525000", "160047.315000", "160048.102500", "160048.890000", "160049.680000", "160050.467500", "160051.255000", "160052.042500", "160052.832500", "160053.620000", "160054.407500", "160055.195000", "160055.985000", "160056.772500", "160057.560000", "160058.347500", "160059.137500", "160059.925000", "160100.712500", "160101.500000", "160102.290000", "160103.077500", "160103.865000", "160104.652500", "160105.442500", "160106.230000", "160107.017500", "160107.807500", "160108.595000", "160109.382500", "160110.170000", "160110.960000", "160111.747500", "160112.535000", "160113.322500", "160114.112500", "160114.900000", "160115.687500", "160116.475000", "160117.265000", "160118.052500", "160118.840000", "160119.627500", "160120.417500", "160121.205000", "160121.992500", "160122.782500", "160123.570000", "160124.357500", "160125.145000", "160125.935000", "160126.722500", "160127.510000", "160128.297500", "160129.087500", "160129.875000", "160130.662500", "160131.450000", "160132.240000", "160133.027500", "160133.815000", "160134.602500", "160135.392500", "160136.180000", "160136.967500", "160137.755000", "160138.545000", "160139.332500", "160140.120000", "160140.910000", "160141.697500", "160142.485000", "160143.272500", "160144.062500", "160144.850000", "160145.637500", "160146.425000", "160147.215000", "160148.002500", "160148.790000", "160149.577500", "160150.367500", "160151.155000", "160151.942500", "160152.730000", "160153.520000", "160154.307500", "160155.095000", "160155.882500", "160156.672500", "160157.460000", "160158.247500", "160159.037500", "160159.825000", "160200.612500", "160201.400000", "160202.190000", "160202.977500", "160203.765000", "160204.552500", "160205.342500", "160206.130000", "160206.917500", "160207.705000", "160208.495000", "160209.282500", "160210.070000", "160210.857500", "160211.647500", "160212.435000", "160213.222500", "160214.010000", "160214.800000", "160215.587500", "160216.375000", "160217.165000", "160217.952500", "160218.740000", "160219.527500", "160220.317500", "160221.105000", "160221.892500", "160222.680000", "160223.470000", "160224.257500", "160225.045000", "160225.832500", "160226.622500", "160227.410000", "160228.197500", "160228.985000", "160229.775000", "160230.562500", "160231.350000", "160232.137500", "160232.927500", "160233.715000", "160234.502500", "160235.292500", "160236.080000", "160236.867500", "160237.655000", "160238.445000", "160239.232500", "160240.020000", "160240.807500", "160241.597500", "160242.385000", "160243.172500", "160243.960000", "160244.750000", "160245.537500", "160246.325000", "160247.112500", "160247.902500", "160248.690000", "160249.477500", "160250.265000", "160251.055000", "160251.842500", "160252.630000", "160253.420000", "160254.207500", "160254.995000", "160255.782500", "160256.572500", "160257.360000", "160258.147500", "160258.935000", "160259.725000", "160300.512500", "160301.300000", "160302.087500", "160302.877500", "160303.665000", "160304.452500", "160305.240000", "160306.030000", "160306.817500", "160307.605000", "160308.392500", "160309.182500", "160309.970000", "160310.757500", "160311.547500", "160312.335000", "160313.122500", "160313.910000", "160314.700000", "160315.487500", "160316.275000", "160317.062500", "160317.852500", "160318.640000", "160319.427500", "160320.215000", "160321.005000", "160321.792500", "160322.580000", "160323.367500", "160324.157500", "160324.945000", "160325.732500", "160326.520000", "160327.310000", "160328.097500", "160328.885000", "160329.675000", "160330.462500", "160331.250000", "160332.037500", "160332.827500", "160333.615000", "160334.402500", "160335.190000", "160335.980000", "160336.767500", "160337.555000", "160338.342500", "160339.132500", "160339.920000", "160340.707500", "160341.495000", "160342.285000", "160343.072500", "160343.860000", "160344.647500", "160345.437500", "160346.225000", "160347.012500", "160347.802500", "160348.590000", "160349.377500", "160350.165000", "160350.955000", "160351.742500", "160352.530000", "160353.317500", "160354.107500", "160354.895000", "160355.682500", "160356.470000", "160357.260000", "160358.047500", "160358.835000", "160359.622500", "160400.412500", "160401.200000", "160401.987500", "160402.775000", "160403.565000", "160404.352500", "160405.140000", "160405.930000", "160406.717500", "160407.505000", "160408.292500", "160409.082500", "160409.870000", "160410.657500", "160411.445000", "160412.235000", "160413.022500", "160413.810000", "160414.597500", "160415.387500", "160416.175000", "160416.962500", "160417.750000", "160418.540000", "160419.327500", "160420.115000", "160420.902500", "160421.692500", "160422.480000", "160423.267500", "160424.057500", "160424.845000", "160425.632500", "160426.420000", "160427.210000", "160427.997500", "160428.785000", "160429.572500", "160430.362500", "160431.150000", "160431.937500", "160432.725000", "160433.515000", "160434.302500", "160435.090000", "160435.877500", "160436.667500", "160437.455000", "160438.242500", "160439.032500", "160439.820000", "160440.607500", "160441.395000", "160442.185000", "160442.972500", "160443.760000", "160444.547500", "160445.337500", "160446.125000", "160446.912500", "160447.700000", "160448.490000", "160449.277500", "160450.065000", "160450.852500", "160451.642500", "160452.430000", "160453.217500", "160454.005000", "160454.795000", "160455.582500", "160456.370000", "160457.160000", "160457.947500", "160458.735000", "160459.522500", "160500.312500", "160501.100000", "160501.887500", "160502.675000", "160503.465000", "160504.252500", "160505.040000", "160505.827500", "160506.617500", "160507.405000", "160508.192500", "160508.980000", "160509.770000", "160510.557500", "160511.345000", "160512.132500", "160512.922500", "160513.710000", "160514.497500", "160515.287500", "160516.075000", "160516.862500", "160517.650000", "160518.440000", "160519.227500", "160520.015000", "160520.802500", "160521.592500", "160522.380000", "160523.167500", "160523.955000", "160524.745000", "160525.532500", "160526.320000", "160527.107500", "160527.897500", "160528.685000", "160529.472500", "160530.260000", "160531.050000", "160531.837500", "160532.625000", "160533.415000", "160534.202500", "160534.990000", "160535.777500", "160536.567500", "160537.355000", "160538.142500", "160538.930000", "160539.720000", "160540.507500", "160541.295000", "160542.082500", "160542.872500"],
      "ContentTime": ["155835.390000", "155835.390000", "155835.390000", "155835.406000", "155835.406000", "155835.406000", "155835.406000", "155835.406000", "155835.406000", "155835.406000", "155835.421000", "155835.421000", "155835.421000", "155835.421000", "155835.421000", "155835.421000", "155835.421000", "155835.421000", "155835.437000", "155835.437000", "155835.437000", "155835.437000", "155835.437000", "155835.437000", "155835.437000", "155835.437000", "155835.453000", "155835.453000", "155835.453000", "155835.453000", "155835.453000", "155835.453000", "155835.453000", "155835.468000", "155855.375000", "155855.375000", "155855.375000", "155855.375000", "155855.375000", "155855.375000", "155855.375000", "155855.390000", "155855.390000", "155855.390000", "155855.390000", "155855.390000", "155855.390000", "155855.390000", "155855.390000", "155855.406000", "155855.406000", "155855.406000", "155855.406000", "155855.406000", "155855.406000", "155855.406000", "155855.406000", "155855.421000", "155855.421000", "155855.421000", "155915.375000", "155915.375000", "155915.375000", "155915.375000", "155915.375000", "155915.375000", "155915.375000", "155915.390000", "155915.390000", "155915.390000", "155915.390000", "155915.390000", "155915.390000", "155915.390000", "155915.390000", "155915.406000", "155915.406000", "155915.406000", "155915.406000", "155915.406000", "155915.406000", "155915.406000", "155915.406000", "155915.421000", "155915.421000", "155935.375000", "155935.375000", "155935.375000", "155935.375000", "155935.375000", "155935.375000", "155935.375000", "155935.406000", "155935.406000", "155935.406000", "155935.406000", "155935.406000", "155935.406000", "155935.406000", "155935.421000", "155935.421000", "155935.421000", "155935.421000", "155935.421000", "155935.421000", "155935.421000", "155935.421000", "155935.437000", "155935.437000", "155935.437000", "155955.375000", "155955.375000", "155955.375000", "155955.375000", "155955.375000", "155955.375000", "155955.375000", "155955.375000", "155955.390000", "155955.390000", "155955.390000", "155955.390000", "155955.390000", "155955.390000", "155955.390000", "155955.406000", "155955.406000", "155955.406000", "155955.406000", "155955.406000", "155955.406000", "155955.406000", "155955.406000", "155955.421000", "155955.421000", "155955.421000", "160015.375000", "160015.375000", "160015.375000", "160015.375000", "160015.375000", "160015.375000", "160015.375000", "160015.375000", "160015.390000", "160015.390000", "160015.390000", "160015.390000", "160015.390000", "160015.390000", "160015.390000", "160015.406000", "160015.406000", "160015.406000", "160015.406000", "160015.406000", "160015.406000", "160015.406000", "160015.406000", "160015.421000", "160015.421000", "160035.375000", "160035.375000", "160035.375000", "160035.375000", "160035.375000", "160035.375000", "160035.375000", "160035.390000", "160035.390000", "160035.390000", "160035.390000", "160035.390000", "160035.390000", "160035.390000", "160035.390000", "160035.406000", "160035.406000", "160035.406000", "160035.406000", "160035.406000", "160035.406000", "160035.406000", "160035.421000", "160035.421000", "160035.421000", "160035.421000", "160055.375000", "160055.375000", "160055.375000", "160055.375000", "160055.375000", "160055.375000", "160055.390000", "160055.390000", "160055.390000", "160055.390000", "160055.390000", "160055.390000", "160055.390000", "160055.406000", "160055.406000", "160055.406000", "160055.406000", "160055.406000", "160055.406000", "160055.406000", "160055.421000", "160055.421000", "160055.421000", "160055.421000", "160055.421000", "160115.375000", "160115.375000", "160115.375000", "160115.375000", "160115.375000", "160115.375000", "160115.375000", "160115.390000", "160115.390000", "160115.390000", "160115.390000", "160115.390000", "160115.390000", "160115.390000", "160115.390000", "160115.406000", "160115.406000", "160115.406000", "160115.406000", "160115.406000", "160115.406000", "160115.406000", "160115.406000", "160115.421000", "160115.421000", "160115.421000", "160135.375000", "160135.375000", "160135.375000", "160135.375000", "160135.375000", "160135.375000", "160135.375000", "160135.390000", "160135.390000", "160135.390000", "160135.390000", "160135.390000", "160135.390000", "160135.390000", "160135.390000", "160135.406000", "160135.406000", "160135.406000", "160135.406000", "160135.406000", "160135.406000", "160135.421000", "160135.421000", "160135.421000", "160135.421000", "160155.375000", "160155.375000", "160155.375000", "160155.375000", "160155.375000", "160155.375000", "160155.375000", "160155.390000", "160155.390000", "160155.390000", "160155.390000", "160155.390000", "160155.390000", "160155.390000", "160155.390000", "160155.406000", "160155.406000", "160155.406000", "160155.406000", "160155.406000", "160155.406000", "160155.406000", "160155.421000", "160155.421000", "160155.421000", "160155.421000", "160215.375000", "160215.375000", "160215.375000", "160215.375000", "160215.375000", "160215.375000", "160215.375000", "160215.390000", "160215.390000", "160215.390000", "160215.390000", "160215.390000", "160215.390000", "160215.390000", "160215.390000", "160215.406000", "160215.406000", "160215.406000", "160215.406000", "160215.406000", "160215.406000", "160215.406000", "160215.406000", "160215.421000", "160215.421000", "160235.375000", "160235.375000", "160235.375000", "160235.375000", "160235.375000", "160235.375000", "160235.375000", "160235.390000", "160235.390000", "160235.390000", "160235.390000", "160235.390000", "160235.390000", "160235.390000", "160235.390000", "160235.406000", "160235.406000", "160235.406000", "160235.406000", "160235.406000", "160235.406000", "160235.406000", "160235.421000", "160235.421000", "160235.421000", "160235.421000", "160255.375000", "160255.375000", "160255.375000", "160255.375000", "160255.375000", "160255.375000", "160255.375000", "160255.390000", "160255.390000", "160255.390000", "160255.390000", "160255.390000", "160255.390000", "160255.390000", "160255.390000", "160255.406000", "160255.406000", "160255.406000", "160255.406000", "160255.406000", "160255.406000", "160255.406000", "160255.421000", "160255.421000", "160255.421000", "160315.375000", "160315.375000", "160315.375000", "160315.375000", "160315.375000", "160315.375000", "160315.375000", "160315.375000", "160315.390000", "160315.390000", "160315.390000", "160315.390000", "160315.390000", "160315.390000", "160315.390000", "160315.406000", "160315.406000", "160315.406000", "160315.406000", "160315.406000", "160315.406000", "160315.406000", "160315.406000", "160315.421000", "160315.421000", "160315.421000", "160335.375000", "160335.375000", "160335.375000", "160335.375000", "160335.375000", "160335.375000", "160335.375000", "160335.390000", "160335.390000", "160335.390000", "160335.390000", "160335.390000", "160335.390000", "160335.390000", "160335.390000", "160335.406000", "160335.406000", "160335.406000", "160335.406000", "160335.406000", "160335.406000", "160335.406000", "160335.421000", "160335.421000", "160335.421000", "160355.375000", "160355.375000", "160355.375000", "160355.375000", "160355.375000", "160355.375000", "160355.375000", "160355.390000", "160355.390000", "160355.390000", "160355.390000", "160355.390000", "160355.390000", "160355.390000", "160355.390000", "160355.406000", "160355.406000", "160355.406000", "160355.406000", "160355.406000", "160355.406000", "160355.406000", "160355.406000", "160355.421000", "160355.421000", "160355.421000", "160415.375000", "160415.375000", "160415.375000", "160415.375000", "160415.375000", "160415.375000", "160415.375000", "160415.390000", "160415.390000", "160415.390000", "160415.390000", "160415.390000", "160415.390000", "160415.390000", "160415.390000", "160415.406000", "160415.406000", "160415.406000", "160415.406000", "160415.406000", "160415.406000", "160415.406000", "160415.421000", "160415.421000", "160415.421000", "160435.375000", "160435.375000", "160435.375000", "160435.375000", "160435.375000", "160435.375000", "160435.375000", "160435.390000", "160435.390000", "160435.390000", "160435.390000", "160435.390000", "160435.390000", "160435.390000", "160435.390000", "160435.406000", "160435.406000", "160435.406000", "160435.406000", "160435.406000", "160435.406000", "160435.406000", "160435.406000", "160435.421000", "160435.421000", "160435.421000", "160455.375000", "160455.375000", "160455.375000", "160455.375000", "160455.375000", "160455.375000", "160455.375000", "160455.390000", "160455.390000", "160455.390000", "160455.390000", "160455.390000", "160455.390000", "160455.390000", "160455.390000", "160455.406000", "160455.406000", "160455.406000", "160455.406000", "160455.406000", "160455.406000", "160455.406000", "160455.406000", "160455.421000", "160455.421000", "160515.375000", "160515.375000", "160515.375000", "160515.375000", "160515.375000", "160515.375000", "160515.375000", "160515.390000", "160515.390000", "160515.390000", "160515.390000", "160515.390000", "160515.390000", "160515.390000", "160515.390000", "160515.406000", "160515.406000", "160515.406000", "160515.406000", "160515.406000", "160515.406000", "160515.406000", "160515.406000", "160515.421000", "160515.421000", "160515.421000", "160535.375000", "160535.375000", "160535.375000", "160535.375000", "160535.375000", "160535.375000", "160535.375000", "160535.390000", "160535.390000", "160535.390000", "160535.390000", "160535.390000", "160535.390000", "160535.390000", "160535.390000", "160535.406000", "160535.406000", "160535.406000", "160535.406000", "160535.421000", "160535.421000", "160535.421000", "160535.421000", "160535.421000", "160535.437000", "160544.390000", "160544.390000", "160544.390000", "160544.390000", "160544.406000", "160544.406000", "160544.406000", "160544.406000", "160544.406000", "160544.406000", "160544.406000", "160544.421000"],
