{
  "AcquisitionMatrixPE": 104,
  "AcquisitionNumber": 1,
  "AcquisitionTime": "15:56:26.722500",
  "BandwidthPerPixelPhaseEncode": 13.935,
  "BaseResolution": 104,
  "CoilString": "C:HEA;HEP",
  "ConversionSoftware": "dcm2niix",
  "ConversionSoftwareVersion": "v1.0.20210317",
  "DerivedVendorReportedEchoSpacing": 0.000690017,
  "DeviceSerialNumber": "35450",
  "DwellTime": 2.5e-06,
  "EchoTime": 0.0348,
  "EffectiveEchoSpacing": 0.000690017,
  "FlipAngle": 55,
  "ImageComments": "Unaliased MB8/PE3",
  "ImageOrientationPatientDICOM": [0.999926, 0.000744659, 0.0121747, 3.27946e-08, 0.998135, -0.061053],
  "ImageType": [
    "ORIGINAL",
    "PRIMARY",
    "M",
    "MB",
    "ND",
    "MOSAIC"
],
  "ImagingFrequency": 123.235,
  "InPlanePhaseEncodingDirectionDICOM": "COL",
  "InstitutionAddress": "Univeristy Ave. 197,Newark,North East,US,07102-1814",
  "InstitutionName": "RUBIC",
  "InstitutionalDepartmentName": "Department",
  "MRAcquisitionType": "2D",
  "MagneticFieldStrength": 3,
  "Manufacturer": "Siemens",
  "ManufacturersModelName": "TrioTim",
  "Modality": "MR",
  "MultibandAccelerationFactor": 8,
  "PartialFourier": 0.875,
  "PatientPosition": "HFS",
  "PercentPhaseFOV": 100,
  "PercentSampling": 100,
  "PhaseEncodingDirection": "j-",
  "PhaseEncodingSteps": 91,
  "PhaseResolution": 1,
  "PixelBandwidth": 1923,
  "ProcedureStepDescription": "Cole^Michael",
  "ProtocolName": "cmrr_mbep2d_bold_2mm_MB8_Task_8x",
  "PulseSequenceDetails": "%CustomerSeq%\\cmrr_mbep2d_bold",
  "ReceiveCoilName": "32Ch_Head",
  "ReconMatrixPE": 104,
  "RepetitionTime": 0.785,
  "SAR": 0.122688,
  "ScanOptions": "PFP\\FS",
  "ScanningSequence": "EP",
  "SequenceName": "epfid2d1_104",
  "SequenceVariant": "SK\\SS",
  "SeriesDescription": "cmrr_mbep2d_bold_2mm_MB8_Task_8x",
  "SeriesNumber": 15,
  "ShimSetting": [2086, -476, -7257, 683, -102, -424, 439, 14],
  "SliceThickness": 2,
  "SliceTiming": [0, 0.4375, 0.0875, 0.525, 0.175, 0.615, 0.2625, 0.7025, 0.35, 0, 0.4375, 0.0875, 0.525, 0.175, 0.615, 0.2625, 0.7025, 0.35, 0, 0.4375, 0.0875, 0.525, 0.175, 0.615, 0.2625, 0.7025, 0.35, 0, 0.4375, 0.0875, 0.525, 0.175, 0.615, 0.2625, 0.7025, 0.35, 0, 0.4375, 0.0875, 0.525, 0.175, 0.615, 0.2625, 0.7025, 0.35, 0, 0.4375, 0.0875, 0.525, 0.175, 0.615, 0.2625, 0.7025, 0.35, 0, 0.4375, 0.0875, 0.525, 0.175, 0.615, 0.2625, 0.7025, 0.35, 0, 0.4375, 0.0875, 0.525, 0.175, 0.615, 0.2625, 0.7025, 0.35],
  "SoftwareVersions": "syngo MR B19",
  "SpacingBetweenSlices": 2,
  "StationName": "MRC35450",
  "TaskName": "cpro",
  "TotalReadoutTime": 0.0710717,
  "TxRefAmp": 316.809,
  "dcmmeta_affine": [
    [-1.9998512268066406, 6.558924781074893e-08, 0.024394936859607697, 105.92284393310547],
    [-0.0014893183251842856, 1.9962691068649292, -0.12209688872098923, -84.33844757080078],
    [0.024349432438611984, 0.12210597097873688, 1.9961204528808594, -85.85736846923828],
    [0.0, 0.0, 0.0, 1.0]
],
  "dcmmeta_reorient_transform": [
    [0.0, -1.0, 0.0, 103.0],
    [1.0, 0.0, 0.0, 0.0],
    [0.0, 0.0, 1.0, 0.0],
    [0.0, 0.0, 0.0, 1.0]
],
  "dcmmeta_shape": [104, 104, 72, 581],
  "dcmmeta_slice_dim": 2,
  "dcmmeta_version": 0.6,
  "global": {
    "const": {
      "AcquisitionMatrix": [104, 0, 0, 104],
      "AngioFlag": "N",
      "BitsAllocated": 16,
      "BitsStored": 12,
      "Columns": 936,
      "EchoNumbers": 1,
      "EchoTime": 34.8,
      "EchoTrainLength": 1,
      "FlipAngle": 55.0,
      "HighBit": 11,
      "ImageOrientationPatient": [0.99992560811753, 0.000744659134, 0.01217471615917, 3.2794625e-08, 0.99813452640914, -0.061052986741],
      "ImagePositionPatient": [-937.86098289396, -952.34474510674, -32.613731154811],
      "ImageType": [
        "ORIGINAL",
        "PRIMARY",
        "M",
        "MB",
        "ND",
        "MOSAIC"
],
      "ImagedNucleus": "1H",
      "ImagingFrequency": 123.234667,
      "InPlanePhaseEncodingDirection": "COL",
      "MRAcquisitionType": "2D",
      "MagneticFieldStrength": 3.0,
      "Manufacturer": "SIEMENS",
      "ManufacturerModelName": "TrioTim",
      "Modality": "MR",
      "NumberOfAverages": 1.0,
      "NumberOfPhaseEncodingSteps": 91,
      "PercentPhaseFieldOfView": 100.0,
      "PercentSampling": 100.0,
      "PerformedProcedureStepStartTime": "145434.671000",
      "PhotometricInterpretation": "MONOCHROME2",
      "PixelBandwidth": 1923.0,
      "PixelRepresentation": 0,
      "PixelSpacing": [2.0, 2.0],
      "ProtocolName": "cmrr_mbep2d_bold_2mm_MB8_Task_8x",
      "RepetitionTime": 785.0,
      "Rows": 936,
      "SAR": 0.12268767789709,
      "SamplesPerPixel": 1,
      "ScanOptions": [
        "PFP",
        "FS"
],
      "ScanningSequence": "EP",
      "SequenceName": "epfid2d1_104",
      "SequenceVariant": [
        "SK",
        "SS"
],
      "SeriesDescription": "cmrr_mbep2d_bold_2mm_MB8_Task_8x",
      "SeriesNumber": 15,
      "SeriesTime": "163957.703000",
      "SliceLocation": -79.25010597531,
      "SliceThickness": 2.0,
      "SmallestImagePixelValue": 0,
      "SoftwareVersions": "syngo MR B19",
      "SpacingBetweenSlices": 1.9999999603953,
      "SpecificCharacterSet": "ISO_IR 100",
      "StudyID": "1",
      "StudyTime": "145434.562000",
      "TransmitCoilName": "Body",
      "VariableFlipAngleFlag": "N",
      "WindowCenterWidthExplanation": "Algo1",
      "dBdt": 0.0},
    "slices": {}
  },
  "time": {
    "samples": {
      "AcquisitionNumber": [1, 2, 3, 4, 5, 6, 7, 8, 9, 10, 11, 12, 13, 14, 15, 16, 17, 18, 19, 20, 21, 22, 23, 24, 25, 26, 27, 28, 29, 30, 31, 32, 33, 34, 35, 36, 37, 38, 39, 40, 41, 42, 43, 44, 45, 46, 47, 48, 49, 50, 51, 52, 53, 54, 55, 56, 57, 58, 59, 60, 61, 62, 63, 64, 65, 66, 67, 68, 69, 70, 71, 72, 73, 74, 75, 76, 77, 78, 79, 80, 81, 82, 83, 84, 85, 86, 87, 88, 89, 90, 91, 92, 93, 94, 95, 96, 97, 98, 99, 100, 101, 102, 103, 104, 105, 106, 107, 108, 109, 110, 111, 112, 113, 114, 115, 116, 117, 118, 119, 120, 121, 122, 123, 124, 125, 126, 127, 128, 129, 130, 131, 132, 133, 134, 135, 136, 137, 138, 139, 140, 141, 142, 143, 144, 145, 146, 147, 148, 149, 150, 151, 152, 153, 154, 155, 156, 157, 158, 159, 160, 161, 162, 163, 164, 165, 166, 167, 168, 169, 170, 171, 172, 173, 174, 175, 176, 177, 178, 179, 180, 181, 182, 183, 184, 185, 186, 187, 188, 189, 190, 191, 192, 193, 194, 195, 196, 197, 198, 199, 200, 201, 202, 203, 204, 205, 206, 207, 208, 209, 210, 211, 212, 213, 214, 215, 216, 217, 218, 219, 220, 221, 222, 223, 224, 225, 226, 227, 228, 229, 230, 231, 232, 233, 234, 235, 236, 237, 238, 239, 240, 241, 242, 243, 244, 245, 246, 247, 248, 249, 250, 251, 252, 253, 254, 255, 256, 257, 258, 259, 260, 261, 262, 263, 264, 265, 266, 267, 268, 269, 270, 271, 272, 273, 274, 275, 276, 277, 278, 279, 280, 281, 282, 283, 284, 285, 286, 287, 288, 289, 290, 291, 292, 293, 294, 295, 296, 297, 298, 299, 300, 301, 302, 303, 304, 305, 306, 307, 308, 309, 310, 311, 312, 313, 314, 315, 316, 317, 318, 319, 320, 321, 322, 323, 324, 325, 326, 327, 328, 329, 330, 331, 332, 333, 334, 335, 336, 337, 338, 339, 340, 341, 342, 343, 344, 345, 346, 347, 348, 349, 350, 351, 352, 353, 354, 355, 356, 357, 358, 359, 360, 361, 362, 363, 364, 365, 366, 367, 368, 369, 370, 371, 372, 373, 374, 375, 376, 377, 378, 379, 380, 381, 382, 383, 384, 385, 386, 387, 388, 389, 390, 391, 392, 393, 394, 395, 396, 397, 398, 399, 400, 401, 402, 403, 404, 405, 406, 407, 408, 409, 410, 411, 412, 413, 414, 415, 416, 417, 418, 419, 420, 421, 422, 423, 424, 425, 426, 427, 428, 429, 430, 431, 432, 433, 434, 435, 436, 437, 438, 439, 440, 441, 442, 443, 444, 445, 446, 447, 448, 449, 450, 451, 452, 453, 454, 455, 456, 457, 458, 459, 460, 461, 462, 463, 464, 465, 466, 467, 468, 469, 470, 471, 472, 473, 474, 475, 476, 477, 478, 479, 480, 481, 482, 483, 484, 485, 486, 487, 488, 489, 490, 491, 492, 493, 494, 495, 496, 497, 498, 499, 500, 501, 502, 503, 504, 505, 506, 507, 508, 509, 510, 511, 512, 513, 514, 515, 516, 517, 518, 519, 520, 521, 522, 523, 524, 525, 526, 527, 528, 529, 530, 531, 532, 533, 534, 535, 536, 537, 538, 539, 540, 541, 542, 543, 544, 545, 546, 547, 548, 549, 550, 551, 552, 553, 554, 555, 556, 557, 558, 559, 560, 561, 562, 563, 564, 565, 566, 567, 568, 569, 570, 571, 572, 573, 574, 575, 576, 577, 578, 579, 580, 581],
      "AcquisitionTime": ["155626.722500", "155627.512500", "155628.300000", "155629.087500", "155629.875000", "155630.665000", "155631.452500", "155632.240000", "155633.030000", "155633.817500", "155634.605000", "155635.392500", "155636.182500", "155636.970000", "155637.757500", "155638.545000", "155639.335000", "155640.122500", "155640.910000", "155641.697500", "155642.487500", "155643.275000", "155644.062500", "155644.850000", "155645.640000", "155646.427500", "155647.215000", "155648.002500", "155648.792500", "155649.580000", "155650.367500", "155651.157500", "155651.945000", "155652.732500", "155653.520000", "155654.310000", "155655.097500", "155655.885000", "155656.672500", "155657.462500", "155658.250000", "155659.037500", "155659.825000", "155700.615000", "155701.402500", "155702.190000", "155702.977500", "155703.767500", "155704.555000", "155705.342500", "155706.130000", "155706.920000", "155707.707500", "155708.495000", "155709.285000", "155710.072500", "155710.860000", "155711.647500", "155712.437500", "155713.225000", "155714.012500", "155714.800000", "155715.590000", "155716.377500", "155717.165000", "155717.952500", "155718.742500", "155719.530000", "155720.317500", "155721.105000", "155721.895000", "155722.682500", "155723.470000", "155724.257500", "155725.047500", "155725.835000", "155726.622500", "155727.412500", "155728.200000", "155728.987500", "155729.775000", "155730.565000", "155731.352500", "155732.140000", "155732.927500", "155733.717500", "155734.505000", "155735.292500", "155736.080000", "155736.870000", "155737.657500", "155738.445000", "155739.232500", "155740.022500", "155740.810000", "155741.597500", "155742.385000", "155743.175000", "155743.962500", "155744.750000", "155745.540000", "155746.327500", "155747.115000", "155747.902500", "155748.692500", "155749.480000", "155750.267500", "155751.055000", "155751.845000", "155752.632500", "155753.420000", "155754.207500", "155754.997500", "155755.785000", "155756.572500", "155757.360000", "155758.150000", "155758.937500", "155759.725000", "155800.512500", "155801.302500", "155802.090000", "155802.877500", "155803.667500", "155804.455000", "155805.242500", "155806.030000", "155806.820000", "155807.607500", "155808.395000", "155809.182500", "155809.972500", "155810.760000", "155811.547500", "155812.335000", "155813.125000", "155813.912500", "155814.700000", "155815.487500", "155816.277500", "155817.065000", "155817.852500", "155818.640000", "155819.430000", "155820.217500", "155821.005000", "155821.795000", "155822.582500", "155823.370000", "155824.157500", "155824.947500", "155825.735000", "155826.522500", "155827.310000", "155828.100000", "155828.887500", "155829.675000", "155830.462500", "155831.252500", "155832.040000", "155832.827500", "155833.615000", "155834.405000", "155835.192500", "155835.980000", "155836.767500", "155837.557500", "155838.345000", "155839.132500", "155839.922500", "155840.710000", "155841.497500", "155842.285000", "155843.075000", "155843.862500", "155844.650000", "155845.437500", "155846.227500", "155847.015000", "155847.802500", "155848.590000", "155849.380000", "155850.167500", "155850.955000", "155851.742500", "155852.532500", "155853.320000", "155854.107500", "155854.897500", "155855.685000", "155856.472500", "155857.260000", "155858.050000", "155858.837500", "155859.625000", "155900.412500", "155901.202500", "155901.990000", "155902.777500", "155903.565000", "155904.355000", "155905.142500", "155905.930000", "155906.717500", "155907.507500", "155908.295000", "155909.082500", "155909.870000", "155910.660000", "155911.447500", "155912.235000", "155913.025000", "155913.812500", "155914.600000", "155915.387500", "155916.177500", "155916.965000", "155917.752500", "155918.540000", "155919.330000", "155920.117500", "155920.905000", "155921.692500", "155922.482500", "155923.270000", "155924.057500", "155924.845000", "155925.635000", "155926.422500", "155927.210000", "155927.997500", "155928.787500", "155929.575000", "155930.362500", "155931.152500", "155931.940000", "155932.727500", "155933.515000", "155934.305000", "155935.092500", "155935.880000", "155936.667500", "155937.457500", "155938.245000", "155939.032500", "155939.820000", "155940.610000", "155941.397500", "155942.185000", "155942.972500", "155943.762500", "155944.550000", "155945.337500", "155946.125000", "155946.915000", "155947.702500", "155948.490000", "155949.280000", "155950.067500", "155950.855000", "155951.642500", "155952.432500", "155953.220000", "155954.007500", "155954.795000", "155955.585000", "155956.372500", "155957.160000", "155957.947500", "155958.737500", "155959.525000", "160000.312500", "160001.100000", "160001.890000", "160002.677500", "160003.465000", "160004.252500", "160005.042500", "160005.830000", "160006.617500", "160007.407500", "160008.195000", "160008.982500", "160009.770000", "160010.560000", "160011.347500", "160012.135000", "160012.922500", "160013.712500", "160014.500000", "160015.287500", "160016.075000", "160016.865000", "160017.652500", "160018.440000", "160019.227500", "160020.017500", "160020.805000", "160021.592500", "160022.380000", "160023.170000", "160023.957500", "160024.745000", "160025.535000", "160026.322500", "160027.110000", "160027.897500", "160028.687500", "160029.475000", "160030.262500", "160031.050000", "160031.840000", "160032.627500", "160033.415000", "160034.202500", "160034.992500", "160035.780000", "160036.567500", "160037.355000", "160038.145000", "160038.932500", "160039.720000", "160040.507500", "160041.297500", "160042.085000", "160042.872500", "160043.662500", "160044.450000", "160045.237500", "160046.025000", "160046.815000", "160047.602500", "160048.390000", "160049.177500", "160049.967500", "160050.755000", "160051.542500", "160052.330000", "160053.120000", "160053.907500", "160054.695000", "160055.482500", "160056.272500", "160057.060000", "160057.847500", "160058.635000", "160059.425000", "160100.212500", "160101.000000", "160101.790000", "160102.577500", "160103.365000", "160104.152500", "160104.942500", "160105.730000", "160106.517500", "160107.305000", "160108.095000", "160108.882500", "160109.670000", "160110.457500", "160111.247500", "160112.035000", "160112.822500", "160113.610000", "160114.400000", "160115.187500", "160115.975000", "160116.762500", "160117.552500", "160118.340000", "160119.127500", "160119.917500", "160120.705000", "160121.492500", "160122.280000", "160123.070000", "160123.857500", "160124.645000", "160125.432500", "160126.222500", "160127.010000", "160127.797500", "160128.585000", "160129.375000", "160130.162500", "160130.950000", "160131.737500", "160132.527500", "160133.315000", "160134.102500", "160134.890000", "160135.680000", "160136.467500", "160137.255000", "160138.045000", "160138.832500", "160139.620000", "160140.407500", "160141.197500", "160141.985000", "160142.772500", "160143.560000", "160144.350000", "160145.137500", "160145.925000", "160146.712500", "160147.502500", "160148.290000", "160149.077500", "160149.865000", "160150.655000", "160151.442500", "160152.230000", "160153.017500", "160153.807500", "160154.595000", "160155.382500", "160156.172500", "160156.960000", "160157.747500", "160158.535000", "160159.325000", "160200.112500", "160200.900000", "160201.687500", "160202.477500", "160203.265000", "160204.052500", "160204.840000", "160205.630000", "160206.417500", "160207.205000", "160207.992500", "160208.782500", "160209.570000", "160210.357500", "160211.147500", "160211.935000", "160212.722500", "160213.510000", "160214.300000", "160215.087500", "160215.875000", "160216.662500", "160217.452500", "160218.240000", "160219.027500", "160219.815000", "160220.605000", "160221.392500", "160222.180000", "160222.967500", "160223.757500", "160224.545000", "160225.332500", "160226.120000", "160226.910000", "160227.697500", "160228.485000", "160229.275000", "160230.062500", "160230.850000", "160231.637500", "160232.427500", "160233.215000", "160234.002500", "160234.790000", "160235.580000", "160236.367500", "160237.155000", "160237.942500", "160238.732500", "160239.520000", "160240.307500", "160241.095000", "160241.885000", "160242.672500", "160243.460000", "160244.247500", "160245.037500", "160245.825000", "160246.612500", "160247.402500", "160248.190000", "160248.977500", "160249.765000", "160250.555000", "160251.342500", "160252.130000", "160252.917500", "160253.707500", "160254.495000", "160255.282500", "160256.070000", "160256.860000", "160257.647500", "160258.435000", "160259.222500", "160300.012500", "160300.800000", "160301.587500", "160302.375000", "160303.165000", "160303.952500", "160304.740000", "160305.530000", "160306.317500", "160307.105000", "160307.892500", "160308.682500", "160309.470000", "160310.257500", "160311.045000", "160311.835000", "160312.622500", "160313.410000", "160314.197500", "160314.987500", "160315.775000", "160316.562500", "160317.350000", "160318.140000", "160318.927500", "160319.715000", "160320.502500", "160321.292500", "160322.080000", "160322.867500", "160323.657500", "160324.445000", "160325.232500", "160326.020000", "160326.810000", "160327.597500", "160328.385000", "160329.172500", "160329.962500", "160330.750000", "160331.537500", "160332.325000", "160333.115000", "160333.902500", "160334.690000", "160335.477500", "160336.267500", "160337.055000", "160337.842500", "160338.630000", "160339.420000", "160340.207500", "160340.995000", "160341.785000", "160342.572500", "160343.360000", "160344.147500", "160344.937500", "160345.725000", "160346.512500", "160347.300000", "160348.090000", "160348.877500", "160349.665000", "160350.452500", "160351.242500", "160352.030000", "160352.817500", "160353.605000", "160354.395000", "160355.182500", "160355.970000", "160356.757500", "160357.547500", "160358.335000", "160359.122500", "160359.912500", "160400.700000", "160401.487500", "160402.275000", "160403.065000", "160403.852500"],
      "ContentTime": ["163957.703000", "163957.703000", "163957.703000", "163957.703000", "164057.671000", "164057.687000", "164057.687000", "164057.687000", "164057.687000", "164057.687000", "164057.687000", "164057.687000", "164057.703000", "164057.703000", "164057.703000", "164057.703000", "164057.703000", "164057.703000", "164057.703000", "164057.703000", "164057.718000", "164057.718000", "164057.718000", "164057.718000", "164057.718000", "164057.734000", "164057.734000", "164057.734000", "164057.734000", "164057.734000", "164057.734000", "164057.750000", "164157.671000", "164157.687000", "164157.687000", "164157.687000", "164157.687000", "164157.687000", "164157.687000", "164157.687000", "164157.703000", "164157.703000", "164157.703000", "164157.703000", "164157.703000", "164157.703000", "164157.703000", "164157.703000", "164157.718000", "164157.718000", "164157.718000", "164157.718000", "164157.718000", "164157.718000", "164157.734000", "164157.734000", "164157.734000", "164157.734000", "164157.734000", "164257.671000", "164257.687000", "164257.687000", "164257.687000", "164257.687000", "164257.687000", "164257.687000", "164257.687000", "164257.703000", "164257.703000", "164257.703000", "164257.703000", "164257.703000", "164257.703000", "164257.703000", "164257.718000", "164257.718000", "164257.718000", "164257.718000", "164257.718000", "164257.718000", "164257.734000", "164257.734000", "164257.734000", "164257.734000", "164257.734000", "164257.734000", "164257.734000", "164357.671000", "164357.687000", "164357.687000", "164357.687000", "164357.687000", "164357.687000", "164357.687000", "164357.687000", "164357.703000", "164357.703000", "164357.703000", "164357.703000", "164357.703000", "164357.703000", "164357.703000", "164357.718000", "164357.718000", "164357.718000", "164357.718000", "164357.718000", "164357.718000", "164357.718000", "164357.734000", "164357.734000", "164357.734000", "164357.734000", "164357.734000", "164457.671000", "164457.687000", "164457.687000", "164457.687000", "164457.687000", "164457.687000", "164457.687000", "164457.687000", "164457.687000", "164457.703000", "164457.703000", "164457.703000", "164457.703000", "164457.703000", "164457.703000", "164457.718000", "164457.718000", "164457.718000", "164457.718000", "164457.718000", "164457.718000", "164457.718000", "164457.734000", "164457.734000", "164457.734000", "164457.734000", "164457.734000", "164557.671000", "164557.687000", "164557.687000", "164557.687000", "164557.687000", "164557.687000", "164557.687000", "164557.687000", "164557.703000", "164557.703000", "164557.703000", "164557.703000", "164557.703000", "164557.703000", "164557.703000", "164557.718000", "164557.718000", "164557.718000", "164557.718000", "164557.718000", "164557.718000", "164557.718000", "164557.734000", "164557.734000", "164557.734000", "164557.734000", "164557.734000", "164557.734000", "164637.671000", "164637.687000", "164637.687000", "164637.687000", "164637.687000", "164637.687000", "164637.687000", "164637.687000", "164637.703000", "164637.703000", "164637.703000", "164637.703000", "164637.703000", "164637.703000", "164637.703000", "164637.718000", "164637.718000", "164637.718000", "164737.671000", "164737.687000", "164737.687000", "164737.687000", "164737.687000", "164737.687000", "164737.687000", "164737.687000", "164737.703000", "164737.703000", "164737.703000", "164737.703000", "164737.703000", "164737.703000", "164737.703000", "164737.718000", "164737.718000", "164737.718000", "164737.718000", "164737.718000", "164737.718000", "164737.718000", "164737.734000", "164737.734000", "164737.734000", "164737.734000", "164737.734000", "164737.750000", "164837.671000", "164837.687000", "164837.687000", "164837.687000", "164837.687000", "164837.687000", "164837.687000", "164837.687000", "164837.703000", "164837.703000", "164837.703000", "164837.703000", "164837.703000", "164837.703000", "164837.703000", "164837.718000", "164837.718000", "164837.718000", "164837.718000", "164837.718000", "164837.718000", "164837.718000", "164837.734000", "164837.734000", "164837.734000", "164837.734000", "164837.734000", "164937.671000", "164937.687000", "164937.687000", "164937.687000", "164937.687000", "164937.687000", "164937.687000", "164937.687000", "164937.703000", "164937.703000", "164937.703000", "164937.703000", "164937.703000", "164937.703000", "164937.703000", "164937.718000", "164937.718000", "164937.718000", "164937.718000", "164937.718000", "164937.718000", "164937.718000", "164937.734000", "164937.734000", "164937.734000", "164937.734000", "164937.734000", "164937.734000", "165037.671000", "165037.687000", "165037.687000", "165037.687000", "165037.687000", "165037.687000", "165037.687000", "165037.687000", "165037.703000", "165037.703000", "165037.703000", "165037.703000", "165037.703000", "165037.703000", "165037.703000", "165037.718000", "165037.718000", "165037.718000", "165037.718000", "165037.718000", "165037.718000", "165037.734000", "165037.734000", "165037.734000", "165037.734000", "165037.734000", "165037.734000", "165137.671000", "165137.687000", "165137.687000", "165137.687000", "165137.687000", "165137.687000", "165137.687000", "165137.687000", "165137.703000", "165137.703000", "165137.703000", "165137.703000", "165137.703000", "165137.703000", "165137.703000", "165137.718000", "165137.718000", "165137.718000", "165137.718000", "165137.718000", "165137.718000", "165137.718000", "165137.734000", "165137.734000", "165137.734000", "165137.734000", "165137.734000", "165237.671000", "165237.687000", "165237.687000", "165237.687000", "165237.687000", "165237.687000", "165237.687000", "165237.687000", "165237.703000", "165237.703000", "165237.703000", "165237.703000", "165237.703000", "165237.703000", "165237.703000", "165237.718000", "165237.718000", "165237.718000", "165237.718000", "165237.718000", "165237.718000", "165237.734000", "165237.734000", "165237.734000", "165237.734000", "165237.734000", "165237.734000", "165237.734000", "165337.671000", "165337.687000", "165337.687000", "165337.687000", "165337.687000", "165337.687000", "165337.687000", "165337.703000", "165337.703000", "165337.703000", "165337.703000", "165337.703000", "165337.718000", "165337.718000", "165337.718000", "165337.718000", "165337.718000", "165337.734000", "165337.734000", "165337.734000", "165337.734000", "165337.750000", "165337.750000", "165337.750000", "165337.750000", "165337.750000", "165337.750000", "165437.671000", "165437.687000", "165437.687000", "165437.687000", "165437.687000", "165437.687000", "165437.687000", "165437.687000", "165437.703000", "165437.703000", "165437.703000", "165437.718000", "165437.718000", "165437.718000", "165437.718000", "165437.718000", "165437.718000", "165437.718000", "165437.734000", "165437.734000", "165437.734000", "165437.734000", "165437.734000", "165437.734000", "165437.734000", "165437.750000", "165437.750000", "165437.750000", "165537.671000", "165537.687000", "165537.687000", "165537.687000", "165537.687000", "165537.687000", "165537.687000", "165537.687000", "165537.703000", "165537.703000", "165537.703000", "165537.703000", "165537.703000", "165537.718000", "165537.718000", "165537.718000", "165537.718000", "165537.718000", "165537.734000", "165537.734000", "165537.734000", "165537.734000", "165537.734000", "165537.734000", "165537.734000", "165537.750000", "165537.750000", "165537.750000", "165617.671000", "165617.687000", "165617.687000", "165617.687000", "165617.687000", "165617.687000", "165617.687000", "165617.703000", "165617.703000", "165617.703000", "165617.703000", "165617.703000", "165617.703000", "165617.703000", "165617.718000", "165617.718000", "165617.718000", "165617.718000", "165717.671000", "165717.687000", "165717.687000", "165717.687000", "165717.687000", "165717.687000", "165717.687000", "165717.703000", "165717.703000", "165717.703000", "165717.703000", "165717.718000", "165717.718000", "165717.718000", "165717.718000", "165717.718000", "165717.718000", "165717.734000", "165717.734000", "165717.734000", "165717.734000", "165717.734000", "165717.734000", "165717.734000", "165717.750000", "165717.750000", "165717.750000", "165717.750000", "165817.671000", "165817.687000", "165817.687000", "165817.687000", "165817.687000", "165817.687000", "165817.687000", "165817.687000", "165817.703000", "165817.703000", "165817.718000", "165817.718000", "165817.718000", "165817.718000", "165817.718000", "165817.718000", "165817.718000", "165817.734000", "165817.734000", "165817.734000", "165817.734000", "165817.734000", "165817.734000", "165817.734000", "165817.750000", "165817.750000", "165817.750000", "165817.750000", "165917.687000", "165917.687000", "165917.687000", "165917.687000", "165917.687000", "165917.687000", "165917.687000", "165917.703000", "165917.703000", "165917.703000", "165917.703000", "165917.703000", "165917.703000", "165917.703000", "165917.718000", "165917.718000", "165917.718000", "165917.718000", "165917.718000", "165917.718000", "165917.718000", "165917.734000", "165917.734000", "165917.734000", "165917.734000", "165917.734000", "165917.734000", "165917.734000", "170017.687000", "170017.687000", "170017.687000", "170017.687000", "170017.687000", "170017.687000", "170017.703000", "170017.703000", "170017.703000", "170017.703000", "170017.703000", "170017.703000", "170017.703000", "170017.718000", "170017.718000", "170017.718000", "170017.718000", "170017.718000", "170017.718000", "170017.718000", "170017.734000", "170017.734000", "170017.734000", "170017.734000", "170017.750000", "170017.750000", "170017.750000", "170017.750000", "170051.484000", "170051.484000", "170051.500000", "170051.500000", "170051.500000", "170051.500000", "170051.500000", "170051.500000", "170051.515000", "170051.515000", "170051.515000", "170051.515000", "170051.515000", "170051.515000", "170051.515000", "170051.531000"],
      "DataSetTrailingPadding": [
        "\u0000\u0000\u0000\u0000\u0000\u0000",
        "\u0000\u0000\u0000\u0000",
        "\u0000\u0000\u0000\u0000\u0000\u0000",
        "\u0000\u0000\u0000\u0000",
        "\u0000\u0000\u0000\u0000\u0000\u0000",
        "\u0000\u0000\u0000\u0000\u0000\u0000\u0000\u0000",
        "\u0000\u0000\u0000\u0000",
        "\u0000\u0000\u0000\u0000\u0000\u0000",
        "\u0000\u0000\u0000\u0000\u0000\u0000",
