{
  "AcquisitionMatrixPE": 104,
  "AcquisitionNumber": 1,
  "AcquisitionTime": "16:04:42.725000",
  "BandwidthPerPixelPhaseEncode": 13.935,
  "BaseResolution": 104,
  "CoilString": "C:HEA;HEP",
  "ConversionSoftware": "dcm2niix",
  "ConversionSoftwareVersion": "v1.0.20210317",
  "DerivedVendorReportedEchoSpacing": 0.000690017,
  "DeviceSerialNumber": "35450",
  "DwellTime": 2.5e-06,
  "EchoTime": 0.0348,
  "EffectiveEchoSpacing": 0.000690017,
  "FlipAngle": 55,
  "ImageComments": "Unaliased MB8/PE3",
  "ImageOrientationPatientDICOM": [0.999926, 0.000744659, 0.0121747, 3.27946e-08, 0.998135, -0.061053],
  "ImageType": [
    "ORIGINAL",
    "PRIMARY",
    "M",
    "MB",
    "ND",
    "MOSAIC"
],
  "ImagingFrequency": 123.235,
  "InPlanePhaseEncodingDirectionDICOM": "COL",
  "InstitutionAddress": "Univeristy Ave. 197,Newark,North East,US,07102-1814",
  "InstitutionName": "RUBIC",
  "InstitutionalDepartmentName": "Department",
  "MRAcquisitionType": "2D",
  "MagneticFieldStrength": 3,
  "Manufacturer": "Siemens",
  "ManufacturersModelName": "TrioTim",
  "Modality": "MR",
  "MultibandAccelerationFactor": 8,
  "PartialFourier": 0.875,
  "PatientPosition": "HFS",
  "PercentPhaseFOV": 100,
  "PercentSampling": 100,
  "PhaseEncodingDirection": "j-",
  "PhaseEncodingSteps": 91,
  "PhaseResolution": 1,
  "PixelBandwidth": 1923,
  "ProcedureStepDescription": "Cole^Michael",
  "ProtocolName": "cmrr_mbep2d_bold_2mm_MB8_Task_8x",
  "PulseSequenceDetails": "%CustomerSeq%\\cmrr_mbep2d_bold",
  "ReceiveCoilName": "32Ch_Head",
  "ReconMatrixPE": 104,
  "RepetitionTime": 0.785,
  "SAR": 0.122688,
  "ScanOptions": "PFP\\FS",
  "ScanningSequence": "EP",
  "SequenceName": "epfid2d1_104",
  "SequenceVariant": "SK\\SS",
  "SeriesDescription": "cmrr_mbep2d_bold_2mm_MB8_Task_8x",
  "SeriesNumber": 17,
  "ShimSetting": [2086, -476, -7257, 683, -102, -424, 439, 14],
  "SliceThickness": 2,
  "SliceTiming": [0, 0.4375, 0.0875, 0.525, 0.175, 0.6125, 0.2625, 0.7, 0.35, 0, 0.4375, 0.0875, 0.525, 0.175, 0.6125, 0.2625, 0.7, 0.35, 0, 0.4375, 0.0875, 0.525, 0.175, 0.6125, 0.2625, 0.7, 0.35, 0, 0.4375, 0.0875, 0.525, 0.175, 0.6125, 0.2625, 0.7, 0.35, 0, 0.4375, 0.0875, 0.525, 0.175, 0.6125, 0.2625, 0.7, 0.35, 0, 0.4375, 0.0875, 0.525, 0.175, 0.6125, 0.2625, 0.7, 0.35, 0, 0.4375, 0.0875, 0.525, 0.175, 0.6125, 0.2625, 0.7, 0.35, 0, 0.4375, 0.0875, 0.525, 0.175, 0.6125, 0.2625, 0.7, 0.35],
  "SoftwareVersions": "syngo MR B19",
  "SpacingBetweenSlices": 2,
  "StationName": "MRC35450",
  "TaskName": "cpro",
  "TotalReadoutTime": 0.0710717,
  "TxRefAmp": 316.809,
  "dcmmeta_affine": [
    [-1.9998512268066406, 6.558924781074893e-08, 0.024394936859607697, 105.92284393310547],
    [-0.0014893183251842856, 1.9962691068649292, -0.12209688872098923, -84.33844757080078],
    [0.024349432438611984, 0.12210597097873688, 1.9961204528808594, -85.85736846923828],
    [0.0, 0.0, 0.0, 1.0]
],
  "dcmmeta_reorient_transform": [
    [0.0, -1.0, 0.0, 103.0],
    [1.0, 0.0, 0.0, 0.0],
    [0.0, 0.0, 1.0, 0.0],
    [0.0, 0.0, 0.0, 1.0]
],
  "dcmmeta_shape": [104, 104, 72, 581],
  "dcmmeta_slice_dim": 2,
  "dcmmeta_version": 0.6,
  "global": {
    "const": {
      "AcquisitionMatrix": [104, 0, 0, 104],
      "AngioFlag": "N",
      "BitsAllocated": 16,
      "BitsStored": 12,
      "Columns": 936,
      "EchoNumbers": 1,
      "EchoTime": 34.8,
      "EchoTrainLength": 1,
      "FlipAngle": 55.0,
      "HighBit": 11,
      "ImageOrientationPatient": [0.99992560811753, 0.000744659134, 0.01217471615917, 3.2794625e-08, 0.99813452640914, -0.061052986741],
      "ImagePositionPatient": [-937.86098289396, -952.34474510674, -32.613731154811],
      "ImageType": [
        "ORIGINAL",
        "PRIMARY",
        "M",
        "MB",
        "ND",
        "MOSAIC"
],
      "ImagedNucleus": "1H",
      "ImagingFrequency": 123.234667,
      "InPlanePhaseEncodingDirection": "COL",
      "MRAcquisitionType": "2D",
      "MagneticFieldStrength": 3.0,
      "Manufacturer": "SIEMENS",
      "ManufacturerModelName": "TrioTim",
      "Modality": "MR",
      "NumberOfAverages": 1.0,
      "NumberOfPhaseEncodingSteps": 91,
      "PercentPhaseFieldOfView": 100.0,
      "PercentSampling": 100.0,
      "PerformedProcedureStepStartTime": "145434.671000",
      "PhotometricInterpretation": "MONOCHROME2",
      "PixelBandwidth": 1923.0,
      "PixelRepresentation": 0,
      "PixelSpacing": [2.0, 2.0],
      "ProtocolName": "cmrr_mbep2d_bold_2mm_MB8_Task_8x",
      "RepetitionTime": 785.0,
      "Rows": 936,
      "SAR": 0.12268767789709,
      "SamplesPerPixel": 1,
      "ScanOptions": [
        "PFP",
        "FS"
],
      "ScanningSequence": "EP",
      "SequenceName": "epfid2d1_104",
      "SequenceVariant": [
        "SK",
        "SS"
],
      "SeriesDescription": "cmrr_mbep2d_bold_2mm_MB8_Task_8x",
      "SeriesNumber": 17,
      "SeriesTime": "170121.687000",
      "SliceLocation": -79.25010597531,
      "SliceThickness": 2.0,
      "SmallestImagePixelValue": 0,
      "SoftwareVersions": "syngo MR B19",
      "SpacingBetweenSlices": 1.9999999603953,
      "SpecificCharacterSet": "ISO_IR 100",
      "StudyID": "1",
      "StudyTime": "145434.562000",
      "TransmitCoilName": "Body",
      "VariableFlipAngleFlag": "N",
      "WindowCenterWidthExplanation": "Algo1",
      "dBdt": 0.0},
    "slices": {}
  },
  "time": {
    "samples": {
      "AcquisitionNumber": [1, 2, 3, 4, 5, 6, 7, 8, 9, 10, 11, 12, 13, 14, 15, 16, 17, 18, 19, 20, 21, 22, 23, 24, 25, 26, 27, 28, 29, 30, 31, 32, 33, 34, 35, 36, 37, 38, 39, 40, 41, 42, 43, 44, 45, 46, 47, 48, 49, 50, 51, 52, 53, 54, 55, 56, 57, 58, 59, 60, 61, 62, 63, 64, 65, 66, 67, 68, 69, 70, 71, 72, 73, 74, 75, 76, 77, 78, 79, 80, 81, 82, 83, 84, 85, 86, 87, 88, 89, 90, 91, 92, 93, 94, 95, 96, 97, 98, 99, 100, 101, 102, 103, 104, 105, 106, 107, 108, 109, 110, 111, 112, 113, 114, 115, 116, 117, 118, 119, 120, 121, 122, 123, 124, 125, 126, 127, 128, 129, 130, 131, 132, 133, 134, 135, 136, 137, 138, 139, 140, 141, 142, 143, 144, 145, 146, 147, 148, 149, 150, 151, 152, 153, 154, 155, 156, 157, 158, 159, 160, 161, 162, 163, 164, 165, 166, 167, 168, 169, 170, 171, 172, 173, 174, 175, 176, 177, 178, 179, 180, 181, 182, 183, 184, 185, 186, 187, 188, 189, 190, 191, 192, 193, 194, 195, 196, 197, 198, 199, 200, 201, 202, 203, 204, 205, 206, 207, 208, 209, 210, 211, 212, 213, 214, 215, 216, 217, 218, 219, 220, 221, 222, 223, 224, 225, 226, 227, 228, 229, 230, 231, 232, 233, 234, 235, 236, 237, 238, 239, 240, 241, 242, 243, 244, 245, 246, 247, 248, 249, 250, 251, 252, 253, 254, 255, 256, 257, 258, 259, 260, 261, 262, 263, 264, 265, 266, 267, 268, 269, 270, 271, 272, 273, 274, 275, 276, 277, 278, 279, 280, 281, 282, 283, 284, 285, 286, 287, 288, 289, 290, 291, 292, 293, 294, 295, 296, 297, 298, 299, 300, 301, 302, 303, 304, 305, 306, 307, 308, 309, 310, 311, 312, 313, 314, 315, 316, 317, 318, 319, 320, 321, 322, 323, 324, 325, 326, 327, 328, 329, 330, 331, 332, 333, 334, 335, 336, 337, 338, 339, 340, 341, 342, 343, 344, 345, 346, 347, 348, 349, 350, 351, 352, 353, 354, 355, 356, 357, 358, 359, 360, 361, 362, 363, 364, 365, 366, 367, 368, 369, 370, 371, 372, 373, 374, 375, 376, 377, 378, 379, 380, 381, 382, 383, 384, 385, 386, 387, 388, 389, 390, 391, 392, 393, 394, 395, 396, 397, 398, 399, 400, 401, 402, 403, 404, 405, 406, 407, 408, 409, 410, 411, 412, 413, 414, 415, 416, 417, 418, 419, 420, 421, 422, 423, 424, 425, 426, 427, 428, 429, 430, 431, 432, 433, 434, 435, 436, 437, 438, 439, 440, 441, 442, 443, 444, 445, 446, 447, 448, 449, 450, 451, 452, 453, 454, 455, 456, 457, 458, 459, 460, 461, 462, 463, 464, 465, 466, 467, 468, 469, 470, 471, 472, 473, 474, 475, 476, 477, 478, 479, 480, 481, 482, 483, 484, 485, 486, 487, 488, 489, 490, 491, 492, 493, 494, 495, 496, 497, 498, 499, 500, 501, 502, 503, 504, 505, 506, 507, 508, 509, 510, 511, 512, 513, 514, 515, 516, 517, 518, 519, 520, 521, 522, 523, 524, 525, 526, 527, 528, 529, 530, 531, 532, 533, 534, 535, 536, 537, 538, 539, 540, 541, 542, 543, 544, 545, 546, 547, 548, 549, 550, 551, 552, 553, 554, 555, 556, 557, 558, 559, 560, 561, 562, 563, 564, 565, 566, 567, 568, 569, 570, 571, 572, 573, 574, 575, 576, 577, 578, 579, 580, 581],
      "AcquisitionTime": ["160442.725000", "160443.512500", "160444.302500", "160445.090000", "160445.877500", "160446.665000", "160447.455000", "160448.242500", "160449.030000", "160449.817500", "160450.607500", "160451.395000", "160452.182500", "160452.970000", "160453.760000", "160454.547500", "160455.335000", "160456.125000", "160456.912500", "160457.700000", "160458.487500", "160459.277500", "160500.065000", "160500.852500", "160501.640000", "160502.430000", "160503.217500", "160504.005000", "160504.792500", "160505.582500", "160506.370000", "160507.157500", "160507.945000", "160508.735000", "160509.522500", "160510.310000", "160511.097500", "160511.887500", "160512.675000", "160513.462500", "160514.252500", "160515.040000", "160515.827500", "160516.615000", "160517.405000", "160518.192500", "160518.980000", "160519.767500", "160520.557500", "160521.345000", "160522.132500", "160522.920000", "160523.710000", "160524.497500", "160525.285000", "160526.072500", "160526.862500", "160527.650000", "160528.437500", "160529.227500", "160530.015000", "160530.802500", "160531.590000", "160532.380000", "160533.167500", "160533.955000", "160534.742500", "160535.532500", "160536.320000", "160537.107500", "160537.895000", "160538.685000", "160539.472500", "160540.260000", "160541.047500", "160541.837500", "160542.625000", "160543.412500", "160544.200000", "160544.990000", "160545.777500", "160546.565000", "160547.355000", "160548.142500", "160548.930000", "160549.717500", "160550.507500", "160551.295000", "160552.082500", "160552.870000", "160553.660000", "160554.447500", "160555.235000", "160556.022500", "160556.812500", "160557.600000", "160558.387500", "160559.175000", "160559.965000", "160600.752500", "160601.540000", "160602.327500", "160603.117500", "160603.905000", "160604.692500", "160605.482500", "160606.270000", "160607.057500", "160607.845000", "160608.635000", "160609.422500", "160610.210000", "160610.997500", "160611.787500", "160612.575000", "160613.362500", "160614.150000", "160614.940000", "160615.727500", "160616.515000", "160617.302500", "160618.092500", "160618.880000", "160619.667500", "160620.455000", "160621.245000", "160622.032500", "160622.820000", "160623.610000", "160624.397500", "160625.185000", "160625.972500", "160626.762500", "160627.550000", "160628.337500", "160629.125000", "160629.915000", "160630.702500", "160631.490000", "160632.277500", "160633.067500", "160633.855000", "160634.642500", "160635.430000", "160636.220000", "160637.007500", "160637.795000", "160638.582500", "160639.372500", "160640.160000", "160640.947500", "160641.737500", "160642.525000", "160643.312500", "160644.100000", "160644.890000", "160645.677500", "160646.465000", "160647.252500", "160648.042500", "160648.830000", "160649.617500", "160650.405000", "160651.195000", "160651.982500", "160652.770000", "160653.557500", "160654.347500", "160655.135000", "160655.922500", "160656.710000", "160657.500000", "160658.287500", "160659.075000", "160659.865000", "160700.652500", "160701.440000", "160702.227500", "160703.017500", "160703.805000", "160704.592500", "160705.380000", "160706.170000", "160706.957500", "160707.745000", "160708.532500", "160709.322500", "160710.110000", "160710.897500", "160711.685000", "160712.475000", "160713.262500", "160714.050000", "160714.837500", "160715.627500", "160716.415000", "160717.202500", "160717.992500", "160718.780000", "160719.567500", "160720.355000", "160721.145000", "160721.932500", "160722.720000", "160723.507500", "160724.297500", "160725.085000", "160725.872500", "160726.660000", "160727.450000", "160728.237500", "160729.025000", "160729.812500", "160730.602500", "160731.390000", "160732.177500", "160732.965000", "160733.755000", "160734.542500", "160735.330000", "160736.120000", "160736.907500", "160737.695000", "160738.482500", "160739.272500", "160740.060000", "160740.847500", "160741.635000", "160742.425000", "160743.212500", "160744.000000", "160744.787500", "160745.577500", "160746.365000", "160747.152500", "160747.940000", "160748.730000", "160749.517500", "160750.305000", "160751.092500", "160751.882500", "160752.670000", "160753.457500", "160754.247500", "160755.035000", "160755.822500", "160756.610000", "160757.400000", "160758.187500", "160758.975000", "160759.762500", "160800.552500", "160801.340000", "160802.127500", "160802.915000", "160803.705000", "160804.492500", "160805.280000", "160806.067500", "160806.857500", "160807.645000", "160808.432500", "160809.220000", "160810.010000", "160810.797500", "160811.585000", "160812.375000", "160813.162500", "160813.950000", "160814.737500", "160815.527500", "160816.315000", "160817.102500", "160817.890000", "160818.680000", "160819.467500", "160820.255000", "160821.042500", "160821.832500", "160822.620000", "160823.407500", "160824.195000", "160824.985000", "160825.772500", "160826.560000", "160827.347500", "160828.137500", "160828.925000", "160829.712500", "160830.502500", "160831.290000", "160832.077500", "160832.865000", "160833.655000", "160834.442500", "160835.230000", "160836.017500", "160836.807500", "160837.595000", "160838.382500", "160839.170000", "160839.960000", "160840.747500", "160841.535000", "160842.322500", "160843.112500", "160843.900000", "160844.687500", "160845.477500", "160846.265000", "160847.052500", "160847.840000", "160848.630000", "160849.417500", "160850.205000", "160850.992500", "160851.782500", "160852.570000", "160853.357500", "160854.145000", "160854.935000", "160855.722500", "160856.510000", "160857.297500", "160858.087500", "160858.875000", "160859.662500", "160900.450000", "160901.240000", "160902.027500", "160902.815000", "160903.605000", "160904.392500", "160905.180000", "160905.967500", "160906.757500", "160907.545000", "160908.332500", "160909.120000", "160909.910000", "160910.697500", "160911.485000", "160912.272500", "160913.062500", "160913.850000", "160914.637500", "160915.425000", "160916.215000", "160917.002500", "160917.790000", "160918.577500", "160919.367500", "160920.155000", "160920.942500", "160921.732500", "160922.520000", "160923.307500", "160924.095000", "160924.885000", "160925.672500", "160926.460000", "160927.247500", "160928.037500", "160928.825000", "160929.612500", "160930.400000", "160931.190000", "160931.977500", "160932.765000", "160933.552500", "160934.342500", "160935.130000", "160935.917500", "160936.705000", "160937.495000", "160938.282500", "160939.070000", "160939.860000", "160940.647500", "160941.435000", "160942.222500", "160943.012500", "160943.800000", "160944.587500", "160945.375000", "160946.165000", "160946.952500", "160947.740000", "160948.527500", "160949.317500", "160950.105000", "160950.892500", "160951.680000", "160952.470000", "160953.257500", "160954.045000", "160954.832500", "160955.622500", "160956.410000", "160957.197500", "160957.987500", "160958.775000", "160959.562500", "161000.350000", "161001.140000", "161001.927500", "161002.715000", "161003.502500", "161004.292500", "161005.080000", "161005.867500", "161006.655000", "161007.445000", "161008.232500", "161009.020000", "161009.807500", "161010.597500", "161011.385000", "161012.172500", "161012.960000", "161013.750000", "161014.537500", "161015.325000", "161016.115000", "161016.902500", "161017.690000", "161018.477500", "161019.267500", "161020.055000", "161020.842500", "161021.630000", "161022.420000", "161023.207500", "161023.995000", "161024.782500", "161025.572500", "161026.360000", "161027.147500", "161027.935000", "161028.725000", "161029.512500", "161030.300000", "161031.087500", "161031.877500", "161032.665000", "161033.452500", "161034.242500", "161035.030000", "161035.817500", "161036.605000", "161037.395000", "161038.182500", "161038.970000", "161039.757500", "161040.547500", "161041.335000", "161042.122500", "161042.910000", "161043.700000", "161044.487500", "161045.275000", "161046.062500", "161046.852500", "161047.640000", "161048.427500", "161049.215000", "161050.005000", "161050.792500", "161051.580000", "161052.370000", "161053.157500", "161053.945000", "161054.732500", "161055.522500", "161056.310000", "161057.097500", "161057.885000", "161058.675000", "161059.462500", "161100.250000", "161101.037500", "161101.827500", "161102.615000", "161103.402500", "161104.190000", "161104.980000", "161105.767500", "161106.555000", "161107.342500", "161108.132500", "161108.920000", "161109.707500", "161110.497500", "161111.285000", "161112.072500", "161112.860000", "161113.650000", "161114.437500", "161115.225000", "161116.012500", "161116.802500", "161117.590000", "161118.377500", "161119.165000", "161119.955000", "161120.742500", "161121.530000", "161122.317500", "161123.107500", "161123.895000", "161124.682500", "161125.470000", "161126.260000", "161127.047500", "161127.835000", "161128.625000", "161129.412500", "161130.200000", "161130.987500", "161131.777500", "161132.565000", "161133.352500", "161134.140000", "161134.930000", "161135.717500", "161136.505000", "161137.292500", "161138.082500", "161138.870000", "161139.657500", "161140.445000", "161141.235000", "161142.022500", "161142.810000", "161143.597500", "161144.387500", "161145.175000", "161145.962500", "161146.752500", "161147.540000", "161148.327500", "161149.115000", "161149.905000", "161150.692500", "161151.480000", "161152.267500", "161153.057500", "161153.845000", "161154.632500", "161155.420000", "161156.210000", "161156.997500", "161157.785000", "161158.572500", "161159.362500", "161200.150000", "161200.937500", "161201.727500", "161202.515000", "161203.302500", "161204.090000", "161204.880000", "161205.667500", "161206.455000", "161207.242500", "161208.032500", "161208.820000", "161209.607500", "161210.395000", "161211.185000", "161211.972500", "161212.760000", "161213.547500", "161214.337500", "161215.125000", "161215.912500", "161216.700000", "161217.490000", "161218.277500", "161219.065000", "161219.855000"],
      "ContentTime": ["170121.687000", "170121.687000", "170121.687000", "170121.687000", "170121.703000", "170121.703000", "170221.671000", "170221.671000", "170221.671000", "170221.671000", "170221.671000", "170221.671000", "170221.687000", "170221.687000", "170221.687000", "170221.687000", "170221.687000", "170221.687000", "170221.687000", "170221.703000", "170221.703000", "170221.703000", "170221.703000", "170221.703000", "170221.703000", "170221.703000", "170221.703000", "170221.718000", "170221.718000", "170221.718000", "170221.718000", "170221.718000", "170221.718000", "170221.718000", "170321.671000", "170321.671000", "170321.671000", "170321.671000", "170321.671000", "170321.671000", "170321.671000", "170321.687000", "170321.687000", "170321.687000", "170321.687000", "170321.687000", "170321.703000", "170321.703000", "170321.703000", "170321.703000", "170321.718000", "170321.718000", "170321.718000", "170321.718000", "170321.718000", "170321.718000", "170321.718000", "170321.734000", "170321.734000", "170321.734000", "170321.734000", "170321.734000", "170421.671000", "170421.671000", "170421.671000", "170421.671000", "170421.671000", "170421.671000", "170421.671000", "170421.687000", "170421.687000", "170421.687000", "170421.687000", "170421.687000", "170421.687000", "170421.687000", "170421.703000", "170421.703000", "170421.703000", "170421.703000", "170421.703000", "170421.703000", "170421.703000", "170421.718000", "170421.718000", "170421.718000", "170421.718000", "170421.718000", "170421.734000", "170421.734000", "170521.671000", "170521.671000", "170521.671000", "170521.671000", "170521.671000", "170521.671000", "170521.671000", "170521.687000", "170521.687000", "170521.687000", "170521.687000", "170521.687000", "170521.687000", "170521.703000", "170521.703000", "170521.703000", "170521.703000", "170521.703000", "170521.703000", "170521.718000", "170521.718000", "170521.718000", "170521.718000", "170521.718000", "170521.718000", "170521.718000", "170521.734000", "170521.734000", "170621.671000", "170621.671000", "170621.671000", "170621.671000", "170621.671000", "170621.671000", "170621.671000", "170621.687000", "170621.687000", "170621.687000", "170621.687000", "170621.687000", "170621.687000", "170621.687000", "170621.703000", "170621.703000", "170621.703000", "170621.703000", "170621.703000", "170621.718000", "170621.718000", "170621.718000", "170621.718000", "170621.718000", "170621.718000", "170621.718000", "170621.734000", "170621.734000", "170721.671000", "170721.671000", "170721.671000", "170721.671000", "170721.671000", "170721.671000", "170721.687000", "170721.687000", "170721.687000", "170721.687000", "170721.687000", "170721.687000", "170721.687000", "170721.703000", "170721.703000", "170721.703000", "170721.703000", "170721.703000", "170721.703000", "170721.703000", "170721.718000", "170721.718000", "170721.718000", "170721.718000", "170721.718000", "170721.718000", "170721.718000", "170721.734000", "170721.734000", "170821.671000", "170821.671000", "170821.671000", "170821.671000", "170821.671000", "170821.671000", "170821.687000", "170821.687000", "170821.687000", "170821.687000", "170821.687000", "170821.687000", "170821.687000", "170821.687000", "170821.703000", "170821.703000", "170821.703000", "170821.703000", "170821.703000", "170821.703000", "170821.718000", "170821.718000", "170821.718000", "170821.718000", "170821.718000", "170821.718000", "170821.718000", "170821.734000", "170921.671000", "170921.671000", "170921.671000", "170921.671000", "170921.671000", "170921.671000", "170921.687000", "170921.687000", "170921.687000", "170921.687000", "170921.687000", "170921.687000", "170921.687000", "170921.703000", "170921.703000", "170921.703000", "170921.703000", "170921.703000", "170921.703000", "170921.703000", "170921.718000", "170921.718000", "170921.718000", "170921.734000", "170921.734000", "170921.734000", "170921.734000", "170921.734000", "171021.671000", "171021.671000", "171021.671000", "171021.671000", "171021.671000", "171021.671000", "171021.671000", "171021.687000", "171021.687000", "171021.687000", "171021.687000", "171021.687000", "171021.687000", "171021.687000", "171021.703000", "171021.703000", "171021.703000", "171021.703000", "171021.703000", "171021.703000", "171021.703000", "171021.718000", "171021.718000", "171021.718000", "171021.718000", "171021.718000", "171021.718000", "171021.718000", "171121.671000", "171121.671000", "171121.671000", "171121.671000", "171121.671000", "171121.671000", "171121.687000", "171121.687000", "171121.687000", "171121.687000", "171121.687000", "171121.687000", "171121.687000", "171121.703000", "171121.703000", "171121.703000", "171121.703000", "171121.703000", "171121.703000", "171121.703000", "171121.718000", "171121.718000", "171121.718000", "171121.718000", "171121.718000", "171121.734000", "171121.734000", "171121.734000", "171221.671000", "171221.671000", "171221.671000", "171221.671000", "171221.671000", "171221.671000", "171221.671000", "171221.687000", "171221.687000", "171221.687000", "171221.687000", "171221.687000", "171221.687000", "171221.703000", "171221.703000", "171221.703000", "171221.703000", "171221.703000", "171221.703000", "171221.703000", "171221.718000", "171221.718000", "171221.718000", "171221.718000", "171221.718000", "171221.718000", "171221.718000", "171221.718000", "171221.734000", "171321.671000", "171321.671000", "171321.671000", "171321.671000", "171321.671000", "171321.671000", "171321.671000", "171321.687000", "171321.687000", "171321.687000", "171321.687000", "171321.687000", "171321.687000", "171321.687000", "171321.703000", "171321.703000", "171321.703000", "171321.703000", "171321.703000", "171321.703000", "171321.703000", "171321.718000", "171321.718000", "171321.718000", "171321.718000", "171321.718000", "171321.734000", "171321.734000", "171421.671000", "171421.671000", "171421.671000", "171421.671000", "171421.671000", "171421.671000", "171421.687000", "171421.687000", "171421.687000", "171421.687000", "171421.687000", "171421.687000", "171421.687000", "171421.703000", "171421.703000", "171421.703000", "171421.703000", "171421.703000", "171421.703000", "171421.703000", "171421.718000", "171421.718000", "171421.718000", "171421.718000", "171421.718000", "171421.718000", "171421.718000", "171421.734000", "171521.671000", "171521.671000", "171521.671000", "171521.671000", "171521.671000", "171521.671000", "171521.687000", "171521.687000", "171521.687000", "171521.687000", "171521.687000", "171521.687000", "171521.687000", "171521.703000", "171521.703000", "171521.703000", "171521.703000", "171521.703000", "171521.703000", "171521.718000", "171521.718000", "171521.718000", "171521.718000", "171521.718000", "171521.718000", "171521.718000", "171521.734000", "171521.734000", "171621.671000", "171621.671000", "171621.671000", "171621.671000", "171621.671000", "171621.671000", "171621.671000", "171621.687000", "171621.687000", "171621.687000", "171621.687000", "171621.703000", "171621.703000", "171621.703000", "171621.703000", "171621.718000", "171621.718000", "171621.718000", "171621.718000", "171621.718000", "171621.718000", "171621.734000", "171621.734000", "171621.734000", "171621.734000", "171621.734000", "171621.734000", "171621.734000", "171721.671000", "171721.671000", "171721.671000", "171721.671000", "171721.671000", "171721.671000", "171721.671000", "171721.687000", "171721.687000", "171721.687000", "171721.687000", "171721.687000", "171721.703000", "171721.703000", "171721.703000", "171721.703000", "171721.703000", "171721.703000", "171721.703000", "171721.718000", "171721.718000", "171721.718000", "171721.718000", "171721.718000", "171721.718000", "171721.734000", "171721.734000", "171721.734000", "171821.671000", "171821.671000", "171821.671000", "171821.671000", "171821.671000", "171821.671000", "171821.671000", "171821.687000", "171821.687000", "171821.687000", "171821.687000", "171821.687000", "171821.687000", "171821.703000", "171821.703000", "171821.703000", "171821.703000", "171821.703000", "171821.703000", "171821.703000", "171821.718000", "171821.718000", "171821.718000", "171821.718000", "171821.718000", "171821.718000", "171821.718000", "171821.718000", "171821.734000", "171921.671000", "171921.671000", "171921.671000", "171921.671000", "171921.671000", "171921.671000", "171921.671000", "171921.687000", "171921.687000", "171921.687000", "171921.687000", "171921.687000", "171921.687000", "171921.687000", "171921.703000", "171921.703000", "171921.703000", "171921.703000", "171921.703000", "171921.703000", "171921.703000", "171921.718000", "171921.718000", "171921.718000", "171921.718000", "171921.718000", "171921.718000", "171921.718000", "172021.671000", "172021.671000", "172021.671000", "172021.671000", "172021.671000", "172021.671000", "172021.671000", "172021.687000", "172021.687000", "172021.687000", "172021.687000", "172021.687000", "172021.687000", "172021.687000", "172021.703000", "172021.703000", "172021.703000", "172021.703000", "172021.703000", "172021.703000", "172021.718000", "172021.718000", "172021.718000", "172021.718000", "172021.718000", "172021.734000", "172021.734000", "172021.734000", "172121.671000", "172121.671000", "172121.671000", "172121.671000", "172121.671000", "172121.671000", "172121.671000", "172121.687000", "172121.687000", "172121.687000", "172121.687000", "172121.687000", "172121.687000", "172121.687000", "172121.703000", "172121.703000", "172121.703000", "172121.703000", "172121.703000", "172121.703000", "172121.718000", "172121.718000", "172121.718000", "172121.718000", "172121.718000", "172121.718000", "172121.718000", "172121.734000", "172145.140000", "172145.156000", "172145.156000", "172145.156000", "172145.156000", "172145.156000", "172145.171000", "172145.171000", "172145.171000", "172145.171000", "172145.187000", "172145.187000"],
      "DataSetTrailingPadding": [
        "\u0000\u0000\u0000\u0000\u0000\u0000",
        "\u0000\u0000\u0000\u0000\u0000\u0000",
        "\u0000\u0000\u0000\u0000\u0000\u0000",
        "\u0000\u0000\u0000\u0000",
        "\u0000\u0000\u0000\u0000\u0000\u0000",
        "\u0000\u0000\u0000\u0000",
        "\u0000\u0000\u0000\u0000",
        "\u0000\u0000\u0000\u0000\u0000\u0000",
        "\u0000\u0000\u0000\u0000",
        "\u0000\u0000",
        "\u0000\u0000",
