{
  "AcquisitionMatrixPE": 104,
  "AcquisitionNumber": 1,
  "AcquisitionTime": "16:37:25.792500",
  "BandwidthPerPixelPhaseEncode": 13.935,
  "BaseResolution": 104,
  "CoilString": "C:HEA;HEP",
  "ConversionSoftware": "dcm2niix",
  "ConversionSoftwareVersion": "v1.0.20210317",
  "DerivedVendorReportedEchoSpacing": 0.000690017,
  "DeviceSerialNumber": "35450",
  "DwellTime": 2.5e-06,
  "EchoTime": 0.0348,
  "EffectiveEchoSpacing": 0.000690017,
  "FlipAngle": 55,
  "ImageComments": "Unaliased MB8/PE3",
  "ImageOrientationPatientDICOM": [0.999926, 0.000744659, 0.0121747, 3.27946e-08, 0.998135, -0.061053],
  "ImageType": [
    "ORIGINAL",
    "PRIMARY",
    "M",
    "MB",
    "ND",
    "MOSAIC"
],
  "ImagingFrequency": 123.235,
  "InPlanePhaseEncodingDirectionDICOM": "COL",
  "InstitutionAddress": "Univeristy Ave. 197,Newark,North East,US,07102-1814",
  "InstitutionName": "RUBIC",
  "InstitutionalDepartmentName": "Department",
  "MRAcquisitionType": "2D",
  "MagneticFieldStrength": 3,
  "Manufacturer": "Siemens",
  "ManufacturersModelName": "TrioTim",
  "Modality": "MR",
  "MultibandAccelerationFactor": 8,
  "PartialFourier": 0.875,
  "PatientPosition": "HFS",
  "PercentPhaseFOV": 100,
  "PercentSampling": 100,
  "PhaseEncodingDirection": "j-",
  "PhaseEncodingSteps": 91,
  "PhaseResolution": 1,
  "PixelBandwidth": 1923,
  "ProcedureStepDescription": "Cole^Michael",
  "ProtocolName": "cmrr_mbep2d_bold_2mm_MB8_Task_8x",
  "PulseSequenceDetails": "%CustomerSeq%\\cmrr_mbep2d_bold",
  "ReceiveCoilName": "32Ch_Head",
  "ReconMatrixPE": 104,
  "RepetitionTime": 0.785,
  "SAR": 0.122688,
  "ScanOptions": "PFP\\FS",
  "ScanningSequence": "EP",
  "SequenceName": "epfid2d1_104",
  "SequenceVariant": "SK\\SS",
  "SeriesDescription": "cmrr_mbep2d_bold_2mm_MB8_Task_8x",
  "SeriesNumber": 25,
  "ShimSetting": [2086, -476, -7257, 683, -102, -424, 439, 14],
  "SliceThickness": 2,
  "SliceTiming": [0, 0.4375, 0.0875, 0.525, 0.175, 0.6125, 0.2625, 0.7, 0.35, 0, 0.4375, 0.0875, 0.525, 0.175, 0.6125, 0.2625, 0.7, 0.35, 0, 0.4375, 0.0875, 0.525, 0.175, 0.6125, 0.2625, 0.7, 0.35, 0, 0.4375, 0.0875, 0.525, 0.175, 0.6125, 0.2625, 0.7, 0.35, 0, 0.4375, 0.0875, 0.525, 0.175, 0.6125, 0.2625, 0.7, 0.35, 0, 0.4375, 0.0875, 0.525, 0.175, 0.6125, 0.2625, 0.7, 0.35, 0, 0.4375, 0.0875, 0.525, 0.175, 0.6125, 0.2625, 0.7, 0.35, 0, 0.4375, 0.0875, 0.525, 0.175, 0.6125, 0.2625, 0.7, 0.35],
  "SoftwareVersions": "syngo MR B19",
  "SpacingBetweenSlices": 2,
  "StationName": "MRC35450",
  "TaskName": "cpro",
  "TotalReadoutTime": 0.0710717,
  "TxRefAmp": 316.809,
  "dcmmeta_affine": [
    [-1.9998512268066406, 6.558924781074893e-08, 0.024394936859607697, 105.92284393310547],
    [-0.0014893183251842856, 1.9962691068649292, -0.12209688872098923, -84.33844757080078],
    [0.024349432438611984, 0.12210597097873688, 1.9961204528808594, -85.85736846923828],
    [0.0, 0.0, 0.0, 1.0]
],
  "dcmmeta_reorient_transform": [
    [0.0, -1.0, 0.0, 103.0],
    [1.0, 0.0, 0.0, 0.0],
    [0.0, 0.0, 1.0, 0.0],
    [0.0, 0.0, 0.0, 1.0]
],
  "dcmmeta_shape": [104, 104, 72, 581],
  "dcmmeta_slice_dim": 2,
  "dcmmeta_version": 0.6,
  "global": {
    "const": {
      "AcquisitionMatrix": [104, 0, 0, 104],
      "AngioFlag": "N",
      "BitsAllocated": 16,
      "BitsStored": 12,
      "Columns": 936,
      "EchoNumbers": 1,
      "EchoTime": 34.8,
      "EchoTrainLength": 1,
      "FlipAngle": 55.0,
      "HighBit": 11,
      "ImageOrientationPatient": [0.99992560811753, 0.000744659134, 0.01217471615917, 3.2794625e-08, 0.99813452640914, -0.061052986741],
      "ImagePositionPatient": [-937.86098289396, -952.34474510674, -32.613731154811],
      "ImageType": [
        "ORIGINAL",
        "PRIMARY",
        "M",
        "MB",
        "ND",
        "MOSAIC"
],
      "ImagedNucleus": "1H",
      "ImagingFrequency": 123.234667,
      "InPlanePhaseEncodingDirection": "COL",
      "MRAcquisitionType": "2D",
      "MagneticFieldStrength": 3.0,
      "Manufacturer": "SIEMENS",
      "ManufacturerModelName": "TrioTim",
      "Modality": "MR",
      "NumberOfAverages": 1.0,
      "NumberOfPhaseEncodingSteps": 91,
      "PercentPhaseFieldOfView": 100.0,
      "PercentSampling": 100.0,
      "PerformedProcedureStepStartTime": "145434.671000",
      "PhotometricInterpretation": "MONOCHROME2",
      "PixelBandwidth": 1923.0,
      "PixelRepresentation": 0,
      "PixelSpacing": [2.0, 2.0],
      "ProtocolName": "cmrr_mbep2d_bold_2mm_MB8_Task_8x",
      "RepetitionTime": 785.0,
      "Rows": 936,
      "SAR": 0.12268767789709,
      "SamplesPerPixel": 1,
      "ScanOptions": [
        "PFP",
        "FS"
],
      "ScanningSequence": "EP",
      "SequenceName": "epfid2d1_104",
      "SequenceVariant": [
        "SK",
        "SS"
],
      "SeriesDescription": "cmrr_mbep2d_bold_2mm_MB8_Task_8x",
      "SeriesNumber": 25,
      "SeriesTime": "182516.937000",
      "SliceLocation": -79.25010597531,
      "SliceThickness": 2.0,
      "SmallestImagePixelValue": 0,
      "SoftwareVersions": "syngo MR B19",
      "SpacingBetweenSlices": 1.9999999603953,
      "SpecificCharacterSet": "ISO_IR 100",
      "StudyID": "1",
      "StudyTime": "145434.562000",
      "TransmitCoilName": "Body",
      "VariableFlipAngleFlag": "N",
      "WindowCenterWidthExplanation": "Algo1",
      "dBdt": 0.0},
    "slices": {}
  },
  "time": {
    "samples": {
      "AcquisitionNumber": [1, 2, 3, 4, 5, 6, 7, 8, 9, 10, 11, 12, 13, 14, 15, 16, 17, 18, 19, 20, 21, 22, 23, 24, 25, 26, 27, 28, 29, 30, 31, 32, 33, 34, 35, 36, 37, 38, 39, 40, 41, 42, 43, 44, 45, 46, 47, 48, 49, 50, 51, 52, 53, 54, 55, 56, 57, 58, 59, 60, 61, 62, 63, 64, 65, 66, 67, 68, 69, 70, 71, 72, 73, 74, 75, 76, 77, 78, 79, 80, 81, 82, 83, 84, 85, 86, 87, 88, 89, 90, 91, 92, 93, 94, 95, 96, 97, 98, 99, 100, 101, 102, 103, 104, 105, 106, 107, 108, 109, 110, 111, 112, 113, 114, 115, 116, 117, 118, 119, 120, 121, 122, 123, 124, 125, 126, 127, 128, 129, 130, 131, 132, 133, 134, 135, 136, 137, 138, 139, 140, 141, 142, 143, 144, 145, 146, 147, 148, 149, 150, 151, 152, 153, 154, 155, 156, 157, 158, 159, 160, 161, 162, 163, 164, 165, 166, 167, 168, 169, 170, 171, 172, 173, 174, 175, 176, 177, 178, 179, 180, 181, 182, 183, 184, 185, 186, 187, 188, 189, 190, 191, 192, 193, 194, 195, 196, 197, 198, 199, 200, 201, 202, 203, 204, 205, 206, 207, 208, 209, 210, 211, 212, 213, 214, 215, 216, 217, 218, 219, 220, 221, 222, 223, 224, 225, 226, 227, 228, 229, 230, 231, 232, 233, 234, 235, 236, 237, 238, 239, 240, 241, 242, 243, 244, 245, 246, 247, 248, 249, 250, 251, 252, 253, 254, 255, 256, 257, 258, 259, 260, 261, 262, 263, 264, 265, 266, 267, 268, 269, 270, 271, 272, 273, 274, 275, 276, 277, 278, 279, 280, 281, 282, 283, 284, 285, 286, 287, 288, 289, 290, 291, 292, 293, 294, 295, 296, 297, 298, 299, 300, 301, 302, 303, 304, 305, 306, 307, 308, 309, 310, 311, 312, 313, 314, 315, 316, 317, 318, 319, 320, 321, 322, 323, 324, 325, 326, 327, 328, 329, 330, 331, 332, 333, 334, 335, 336, 337, 338, 339, 340, 341, 342, 343, 344, 345, 346, 347, 348, 349, 350, 351, 352, 353, 354, 355, 356, 357, 358, 359, 360, 361, 362, 363, 364, 365, 366, 367, 368, 369, 370, 371, 372, 373, 374, 375, 376, 377, 378, 379, 380, 381, 382, 383, 384, 385, 386, 387, 388, 389, 390, 391, 392, 393, 394, 395, 396, 397, 398, 399, 400, 401, 402, 403, 404, 405, 406, 407, 408, 409, 410, 411, 412, 413, 414, 415, 416, 417, 418, 419, 420, 421, 422, 423, 424, 425, 426, 427, 428, 429, 430, 431, 432, 433, 434, 435, 436, 437, 438, 439, 440, 441, 442, 443, 444, 445, 446, 447, 448, 449, 450, 451, 452, 453, 454, 455, 456, 457, 458, 459, 460, 461, 462, 463, 464, 465, 466, 467, 468, 469, 470, 471, 472, 473, 474, 475, 476, 477, 478, 479, 480, 481, 482, 483, 484, 485, 486, 487, 488, 489, 490, 491, 492, 493, 494, 495, 496, 497, 498, 499, 500, 501, 502, 503, 504, 505, 506, 507, 508, 509, 510, 511, 512, 513, 514, 515, 516, 517, 518, 519, 520, 521, 522, 523, 524, 525, 526, 527, 528, 529, 530, 531, 532, 533, 534, 535, 536, 537, 538, 539, 540, 541, 542, 543, 544, 545, 546, 547, 548, 549, 550, 551, 552, 553, 554, 555, 556, 557, 558, 559, 560, 561, 562, 563, 564, 565, 566, 567, 568, 569, 570, 571, 572, 573, 574, 575, 576, 577, 578, 579, 580, 581],
      "AcquisitionTime": ["163725.792500", "163726.580000", "163727.367500", "163728.157500", "163728.945000", "163729.732500", "163730.522500", "163731.310000", "163732.097500", "163732.885000", "163733.675000", "163734.462500", "163735.250000", "163736.037500", "163736.827500", "163737.615000", "163738.402500", "163739.190000", "163739.980000", "163740.767500", "163741.555000", "163742.342500", "163743.132500", "163743.920000", "163744.707500", "163745.495000", "163746.285000", "163747.072500", "163747.860000", "163748.650000", "163749.437500", "163750.225000", "163751.012500", "163751.802500", "163752.590000", "163753.377500", "163754.165000", "163754.955000", "163755.742500", "163756.530000", "163757.317500", "163758.107500", "163758.895000", "163759.682500", "163800.470000", "163801.260000", "163802.047500", "163802.835000", "163803.622500", "163804.412500", "163805.200000", "163805.987500", "163806.777500", "163807.565000", "163808.352500", "163809.140000", "163809.930000", "163810.717500", "163811.505000", "163812.292500", "163813.082500", "163813.870000", "163814.657500", "163815.445000", "163816.235000", "163817.022500", "163817.810000", "163818.597500", "163819.387500", "163820.175000", "163820.962500", "163821.750000", "163822.540000", "163823.327500", "163824.115000", "163824.905000", "163825.692500", "163826.480000", "163827.267500", "163828.057500", "163828.845000", "163829.632500", "163830.420000", "163831.210000", "163831.997500", "163832.785000", "163833.572500", "163834.362500", "163835.150000", "163835.937500", "163836.725000", "163837.515000", "163838.302500", "163839.090000", "163839.877500", "163840.667500", "163841.455000", "163842.242500", "163843.032500", "163843.820000", "163844.607500", "163845.395000", "163846.185000", "163846.972500", "163847.760000", "163848.547500", "163849.337500", "163850.125000", "163850.912500", "163851.700000", "163852.490000", "163853.277500", "163854.065000", "163854.852500", "163855.642500", "163856.430000", "163857.217500", "163858.005000", "163858.795000", "163859.582500", "163900.370000", "163901.160000", "163901.947500", "163902.735000", "163903.522500", "163904.312500", "163905.100000", "163905.887500", "163906.675000", "163907.465000", "163908.252500", "163909.040000", "163909.827500", "163910.617500", "163911.405000", "163912.192500", "163912.980000", "163913.770000", "163914.557500", "163915.345000", "163916.132500", "163916.922500", "163917.710000", "163918.497500", "163919.287500", "163920.075000", "163920.862500", "163921.650000", "163922.440000", "163923.227500", "163924.015000", "163924.802500", "163925.592500", "163926.380000", "163927.167500", "163927.955000", "163928.745000", "163929.532500", "163930.320000", "163931.107500", "163931.897500", "163932.685000", "163933.472500", "163934.260000", "163935.050000", "163935.837500", "163936.625000", "163937.415000", "163938.202500", "163938.990000", "163939.777500", "163940.567500", "163941.355000", "163942.142500", "163942.930000", "163943.720000", "163944.507500", "163945.295000", "163946.082500", "163946.872500", "163947.660000", "163948.447500", "163949.235000", "163950.025000", "163950.812500", "163951.600000", "163952.387500", "163953.177500", "163953.965000", "163954.752500", "163955.542500", "163956.330000", "163957.117500", "163957.905000", "163958.695000", "163959.482500", "164000.270000", "164001.057500", "164001.847500", "164002.635000", "164003.422500", "164004.210000", "164005.000000", "164005.787500", "164006.575000", "164007.362500", "164008.152500", "164008.940000", "164009.727500", "164010.515000", "164011.305000", "164012.092500", "164012.880000", "164013.670000", "164014.457500", "164015.245000", "164016.032500", "164016.822500", "164017.610000", "164018.397500", "164019.185000", "164019.975000", "164020.762500", "164021.550000", "164022.337500", "164023.127500", "164023.915000", "164024.702500", "164025.490000", "164026.280000", "164027.067500", "164027.855000", "164028.642500", "164029.432500", "164030.220000", "164031.007500", "164031.797500", "164032.585000", "164033.372500", "164034.160000", "164034.950000", "164035.737500", "164036.525000", "164037.312500", "164038.102500", "164038.890000", "164039.677500", "164040.465000", "164041.255000", "164042.042500", "164042.830000", "164043.617500", "164044.407500", "164045.195000", "164045.982500", "164046.772500", "164047.560000", "164048.347500", "164049.135000", "164049.925000", "164050.712500", "164051.500000", "164052.287500", "164053.077500", "164053.865000", "164054.652500", "164055.440000", "164056.230000", "164057.017500", "164057.805000", "164058.592500", "164059.382500", "164100.170000", "164100.957500", "164101.745000", "164102.535000", "164103.322500", "164104.110000", "164104.900000", "164105.687500", "164106.475000", "164107.262500", "164108.052500", "164108.840000", "164109.627500", "164110.415000", "164111.205000", "164111.992500", "164112.780000", "164113.567500", "164114.357500", "164115.145000", "164115.932500", "164116.720000", "164117.510000", "164118.297500", "164119.085000", "164119.872500", "164120.662500", "164121.450000", "164122.237500", "164123.027500", "164123.815000", "164124.602500", "164125.390000", "164126.180000", "164126.967500", "164127.755000", "164128.542500", "164129.332500", "164130.120000", "164130.907500", "164131.695000", "164132.485000", "164133.272500", "164134.060000", "164134.847500", "164135.637500", "164136.425000", "164137.212500", "164138.000000", "164138.790000", "164139.577500", "164140.365000", "164141.155000", "164141.942500", "164142.730000", "164143.517500", "164144.307500", "164145.095000", "164145.882500", "164146.670000", "164147.460000", "164148.247500", "164149.035000", "164149.822500", "164150.612500", "164151.400000", "164152.187500", "164152.975000", "164153.765000", "164154.552500", "164155.340000", "164156.127500", "164156.917500", "164157.705000", "164158.492500", "164159.282500", "164200.070000", "164200.857500", "164201.645000", "164202.435000", "164203.222500", "164204.010000", "164204.797500", "164205.587500", "164206.375000", "164207.162500", "164207.950000", "164208.740000", "164209.527500", "164210.315000", "164211.102500", "164211.892500", "164212.680000", "164213.467500", "164214.255000", "164215.045000", "164215.832500", "164216.620000", "164217.410000", "164218.197500", "164218.985000", "164219.772500", "164220.562500", "164221.350000", "164222.137500", "164222.925000", "164223.715000", "164224.502500", "164225.290000", "164226.077500", "164226.867500", "164227.655000", "164228.442500", "164229.230000", "164230.020000", "164230.807500", "164231.595000", "164232.382500", "164233.172500", "164233.960000", "164234.747500", "164235.537500", "164236.325000", "164237.112500", "164237.900000", "164238.690000", "164239.477500", "164240.265000", "164241.052500", "164241.842500", "164242.630000", "164243.417500", "164244.205000", "164244.995000", "164245.782500", "164246.570000", "164247.357500", "164248.147500", "164248.935000", "164249.722500", "164250.510000", "164251.300000", "164252.087500", "164252.875000", "164253.665000", "164254.452500", "164255.240000", "164256.027500", "164256.817500", "164257.605000", "164258.392500", "164259.180000", "164259.970000", "164300.757500", "164301.545000", "164302.332500", "164303.122500", "164303.910000", "164304.697500", "164305.485000", "164306.275000", "164307.062500", "164307.850000", "164308.637500", "164309.427500", "164310.215000", "164311.002500", "164311.792500", "164312.580000", "164313.367500", "164314.155000", "164314.945000", "164315.732500", "164316.520000", "164317.307500", "164318.097500", "164318.885000", "164319.672500", "164320.460000", "164321.250000", "164322.037500", "164322.825000", "164323.612500", "164324.402500", "164325.190000", "164325.977500", "164326.765000", "164327.555000", "164328.342500", "164329.130000", "164329.920000", "164330.707500", "164331.495000", "164332.282500", "164333.072500", "164333.860000", "164334.647500", "164335.435000", "164336.225000", "164337.012500", "164337.800000", "164338.587500", "164339.377500", "164340.165000", "164340.952500", "164341.740000", "164342.530000", "164343.317500", "164344.105000", "164344.892500", "164345.682500", "164346.470000", "164347.257500", "164348.047500", "164348.835000", "164349.622500", "164350.410000", "164351.200000", "164351.987500", "164352.775000", "164353.562500", "164354.352500", "164355.140000", "164355.927500", "164356.715000", "164357.505000", "164358.292500", "164359.080000", "164359.867500", "164400.657500", "164401.445000", "164402.232500", "164403.022500", "164403.810000", "164404.597500", "164405.385000", "164406.175000", "164406.962500", "164407.750000", "164408.537500", "164409.327500", "164410.115000", "164410.902500", "164411.690000", "164412.480000", "164413.267500", "164414.055000", "164414.842500", "164415.632500", "164416.420000", "164417.207500", "164417.995000", "164418.785000", "164419.572500", "164420.360000", "164421.150000", "164421.937500", "164422.725000", "164423.512500", "164424.302500", "164425.090000", "164425.877500", "164426.665000", "164427.455000", "164428.242500", "164429.030000", "164429.817500", "164430.607500", "164431.395000", "164432.182500", "164432.970000", "164433.760000", "164434.547500", "164435.335000", "164436.122500", "164436.912500", "164437.700000", "164438.487500", "164439.277500", "164440.065000", "164440.852500", "164441.640000", "164442.430000", "164443.217500", "164444.005000", "164444.792500", "164445.582500", "164446.370000", "164447.157500", "164447.945000", "164448.735000", "164449.522500", "164450.310000", "164451.097500", "164451.887500", "164452.675000", "164453.462500", "164454.250000", "164455.040000", "164455.827500", "164456.615000", "164457.405000", "164458.192500", "164458.980000", "164459.767500", "164500.557500", "164501.345000", "164502.132500", "164502.920000"],
      "ContentTime": ["182516.937000", "182516.937000", "182516.937000", "182516.937000", "182516.937000", "182516.937000", "182516.953000", "182516.953000", "182516.953000", "182516.953000", "182516.953000", "182516.953000", "182516.953000", "182516.968000", "182516.968000", "182516.968000", "182516.968000", "182516.968000", "182516.968000", "182516.968000", "182616.937000", "182616.937000", "182616.937000", "182616.937000", "182616.937000", "182616.937000", "182616.937000", "182616.953000", "182616.953000", "182616.953000", "182616.953000", "182616.953000", "182616.953000", "182616.953000", "182616.968000", "182616.968000", "182616.968000", "182616.968000", "182616.968000", "182616.984000", "182616.984000", "182616.984000", "182616.984000", "182616.984000", "182617.000000", "182617.000000", "182617.000000", "182617.000000", "182716.937000", "182716.937000", "182716.937000", "182716.937000", "182716.937000", "182716.937000", "182716.937000", "182716.953000", "182716.953000", "182716.953000", "182716.953000", "182716.953000", "182716.953000", "182716.968000", "182716.968000", "182716.968000", "182716.968000", "182716.968000", "182716.968000", "182716.968000", "182716.984000", "182716.984000", "182716.984000", "182716.984000", "182716.984000", "182717.000000", "182717.000000", "182717.000000", "182736.937000", "182736.937000", "182736.937000", "182736.937000", "182736.937000", "182736.937000", "182736.937000", "182736.953000", "182736.953000", "182736.953000", "182836.937000", "182836.937000", "182836.937000", "182836.937000", "182836.937000", "182836.953000", "182836.953000", "182836.953000", "182836.953000", "182836.953000", "182836.968000", "182836.968000", "182836.968000", "182836.968000", "182836.968000", "182836.968000", "182836.968000", "182836.984000", "182836.984000", "182836.984000", "182836.984000", "182836.984000", "182837.000000", "182837.000000", "182837.000000", "182837.000000", "182837.000000", "182837.000000", "182936.937000", "182936.937000", "182936.937000", "182936.937000", "182936.937000", "182936.937000", "182936.937000", "182936.953000", "182936.953000", "182936.953000", "182936.953000", "182936.953000", "182936.953000", "182936.953000", "182936.968000", "182936.968000", "182936.968000", "182936.968000", "182936.968000", "182936.968000", "182936.968000", "182936.984000", "182936.984000", "182936.984000", "182936.984000", "182936.984000", "182936.984000", "182936.984000", "183036.937000", "183036.937000", "183036.937000", "183036.937000", "183036.937000", "183036.937000", "183036.937000", "183036.953000", "183036.953000", "183036.953000", "183036.968000", "183036.968000", "183036.968000", "183036.968000", "183036.968000", "183036.968000", "183036.984000", "183036.984000", "183036.984000", "183036.984000", "183036.984000", "183037.000000", "183037.000000", "183037.000000", "183037.000000", "183037.000000", "183037.000000", "183037.000000", "183136.937000", "183136.937000", "183136.937000", "183136.937000", "183136.937000", "183136.937000", "183136.937000", "183136.953000", "183136.953000", "183136.953000", "183136.953000", "183136.953000", "183136.953000", "183136.953000", "183136.968000", "183136.968000", "183136.968000", "183136.968000", "183136.968000", "183136.968000", "183136.984000", "183136.984000", "183136.984000", "183136.984000", "183136.984000", "183136.984000", "183136.984000", "183137.000000", "183137.000000", "183236.937000", "183236.937000", "183236.937000", "183236.937000", "183236.937000", "183236.937000", "183236.937000", "183236.953000", "183236.953000", "183236.953000", "183236.953000", "183236.953000", "183236.953000", "183236.953000", "183236.968000", "183236.968000", "183236.968000", "183236.968000", "183236.968000", "183236.968000", "183236.968000", "183236.984000", "183236.984000", "183236.984000", "183236.984000", "183236.984000", "183236.984000", "183236.984000", "183336.937000", "183336.937000", "183336.937000", "183336.937000", "183336.937000", "183336.937000", "183336.953000", "183336.953000", "183336.953000", "183336.953000", "183336.953000", "183336.953000", "183336.953000", "183336.968000", "183336.968000", "183336.968000", "183336.968000", "183336.968000", "183336.968000", "183336.984000", "183336.984000", "183336.984000", "183336.984000", "183336.984000", "183336.984000", "183336.984000", "183337.000000", "183337.000000", "183436.937000", "183436.937000", "183436.937000", "183436.937000", "183436.937000", "183436.937000", "183436.937000", "183436.953000", "183436.953000", "183436.953000", "183436.953000", "183436.953000", "183436.953000", "183436.953000", "183436.968000", "183436.968000", "183436.968000", "183436.968000", "183436.968000", "183436.968000", "183436.968000", "183436.984000", "183436.984000", "183436.984000", "183436.984000", "183436.984000", "183437.000000", "183437.000000", "183437.000000", "183536.937000", "183536.937000", "183536.937000", "183536.937000", "183536.937000", "183536.937000", "183536.937000", "183536.953000", "183536.953000", "183536.953000", "183536.953000", "183536.953000", "183536.953000", "183536.953000", "183536.968000", "183536.968000", "183536.968000", "183536.968000", "183536.968000", "183536.968000", "183536.968000", "183536.984000", "183536.984000", "183536.984000", "183536.984000", "183536.984000", "183536.984000", "183536.984000", "183636.937000", "183636.937000", "183636.937000", "183636.937000", "183636.937000", "183636.937000", "183636.937000", "183636.953000", "183636.953000", "183636.953000", "183636.953000", "183636.953000", "183636.953000", "183636.953000", "183636.968000", "183636.968000", "183636.968000", "183636.968000", "183636.968000", "183636.968000", "183636.968000", "183636.984000", "183636.984000", "183636.984000", "183636.984000", "183637.000000", "183637.000000", "183637.000000", "183716.937000", "183716.937000", "183716.937000", "183716.937000", "183716.937000", "183716.937000", "183716.953000", "183716.953000", "183716.953000", "183716.953000", "183716.953000", "183716.953000", "183716.968000", "183716.968000", "183716.968000", "183716.968000", "183716.968000", "183716.968000", "183716.968000", "183816.937000", "183816.937000", "183816.937000", "183816.937000", "183816.937000", "183816.937000", "183816.937000", "183816.953000", "183816.953000", "183816.953000", "183816.953000", "183816.953000", "183816.953000", "183816.953000", "183816.968000", "183816.968000", "183816.968000", "183816.968000", "183816.968000", "183816.968000", "183816.984000", "183816.984000", "183816.984000", "183816.984000", "183816.984000", "183816.984000", "183816.984000", "183817.000000", "183916.937000", "183916.937000", "183916.937000", "183916.937000", "183916.937000", "183916.937000", "183916.937000", "183916.953000", "183916.953000", "183916.953000", "183916.953000", "183916.953000", "183916.953000", "183916.968000", "183916.968000", "183916.968000", "183916.968000", "183916.968000", "183916.968000", "183916.968000", "183916.984000", "183916.984000", "183916.984000", "183916.984000", "183916.984000", "183917.000000", "183917.000000", "183917.000000", "183917.000000", "184016.937000", "184016.937000", "184016.937000", "184016.937000", "184016.937000", "184016.937000", "184016.953000", "184016.953000", "184016.953000", "184016.953000", "184016.953000", "184016.953000", "184016.953000", "184016.968000", "184016.968000", "184016.968000", "184016.968000", "184016.968000", "184016.968000", "184016.984000", "184016.984000", "184016.984000", "184016.984000", "184016.984000", "184016.984000", "184016.984000", "184017.000000", "184017.000000", "184116.937000", "184116.937000", "184116.937000", "184116.937000", "184116.937000", "184116.937000", "184116.937000", "184116.953000", "184116.953000", "184116.953000", "184116.953000", "184116.953000", "184116.953000", "184116.953000", "184116.968000", "184116.968000", "184116.968000", "184116.968000", "184116.968000", "184116.968000", "184116.968000", "184116.984000", "184116.984000", "184116.984000", "184116.984000", "184116.984000", "184116.984000", "184116.984000", "184216.937000", "184216.937000", "184216.937000", "184216.937000", "184216.937000", "184216.953000", "184216.953000", "184216.953000", "184216.953000", "184216.953000", "184216.953000", "184216.953000", "184216.968000", "184216.968000", "184216.968000", "184216.968000", "184216.968000", "184216.984000", "184216.984000", "184216.984000", "184216.984000", "184216.984000", "184216.984000", "184217.000000", "184217.000000", "184217.000000", "184217.000000", "184217.000000", "184316.937000", "184316.937000", "184316.937000", "184316.937000", "184316.937000", "184316.937000", "184316.937000", "184316.953000", "184316.953000", "184316.953000", "184316.953000", "184316.953000", "184316.968000", "184316.968000", "184316.968000", "184316.968000", "184316.968000", "184316.968000", "184316.984000", "184316.984000", "184316.984000", "184316.984000", "184316.984000", "184316.984000", "184317.000000", "184317.000000", "184317.000000", "184317.000000", "184317.000000", "184416.937000", "184416.937000", "184416.937000", "184416.937000", "184416.937000", "184416.937000", "184416.937000", "184416.953000", "184416.953000", "184416.953000", "184416.953000", "184416.953000", "184416.953000", "184416.953000", "184416.968000", "184416.968000", "184416.968000", "184416.968000", "184416.968000", "184416.968000", "184416.984000", "184416.984000", "184416.984000", "184416.984000", "184417.000000", "184417.000000", "184417.000000", "184417.000000", "184506.703000", "184506.703000", "184506.703000", "184506.718000", "184506.718000", "184506.718000", "184506.718000", "184506.718000", "184506.718000", "184506.718000", "184506.734000", "184506.734000", "184506.734000", "184506.734000", "184506.734000", "184506.734000", "184506.734000", "184506.750000", "184506.750000", "184506.750000", "184506.750000", "184506.750000", "184506.750000", "184506.750000"],
      "DataSetTrailingPadding": [
        "\u0000\u0000\u0000\u0000\u0000\u0000",
        "\u0000\u0000\u0000\u0000\u0000\u0000",
        "\u0000\u0000\u0000\u0000",
        "\u0000\u0000\u0000\u0000",
        "\u0000\u0000\u0000\u0000\u0000\u0000",
        "\u0000\u0000\u0000\u0000",
        "\u0000\u0000\u0000\u0000\u0000\u0000\u0000\u0000",
        "\u0000\u0000\u0000\u0000\u0000\u0000",
        "\u0000\u0000\u0000\u0000",
        "\u0000\u0000",
        "\u0000\u0000",
