{
  "AcquisitionMatrixPE": 104,
  "AcquisitionNumber": 1,
  "AcquisitionTime": "15:24:40.817500",
  "BandwidthPerPixelPhaseEncode": 13.935,
  "BaseResolution": 104,
  "CoilString": "C:HEA;HEP",
  "ConversionSoftware": "dcm2niix",
  "ConversionSoftwareVersion": "v1.0.20210317",
  "DerivedVendorReportedEchoSpacing": 0.000690017,
  "DeviceSerialNumber": "35450",
  "DwellTime": 2.5e-06,
  "EchoTime": 0.0348,
  "EffectiveEchoSpacing": 0.000690017,
  "FlipAngle": 55,
  "ImageComments": "Unaliased MB8/PE3",
  "ImageOrientationPatientDICOM": [0.999926, 0.000744659, 0.0121747, 3.27946e-08, 0.998135, -0.061053],
  "ImageType": [
    "ORIGINAL",
    "PRIMARY",
    "M",
    "MB",
    "ND",
    "MOSAIC"
],
  "ImagingFrequency": 123.235,
  "InPlanePhaseEncodingDirectionDICOM": "COL",
  "InstitutionAddress": "Univeristy Ave. 197,Newark,North East,US,07102-1814",
  "InstitutionName": "RUBIC",
  "InstitutionalDepartmentName": "Department",
  "MRAcquisitionType": "2D",
  "MagneticFieldStrength": 3,
  "Manufacturer": "Siemens",
  "ManufacturersModelName": "TrioTim",
  "Modality": "MR",
  "MultibandAccelerationFactor": 8,
  "PartialFourier": 0.875,
  "PatientPosition": "HFS",
  "PercentPhaseFOV": 100,
  "PercentSampling": 100,
  "PhaseEncodingDirection": "j-",
  "PhaseEncodingSteps": 91,
  "PhaseResolution": 1,
  "PixelBandwidth": 1923,
  "ProcedureStepDescription": "Cole^Michael",
  "ProtocolName": "cmrr_mbep2d_bold_2mm_MB8_Rest",
  "PulseSequenceDetails": "%CustomerSeq%\\cmrr_mbep2d_bold",
  "ReceiveCoilName": "32Ch_Head",
  "ReconMatrixPE": 104,
  "RepetitionTime": 0.785,
  "SAR": 0.140025,
  "ScanOptions": "PFP\\FS",
  "ScanningSequence": "EP",
  "SequenceName": "epfid2d1_104",
  "SequenceVariant": "SK\\SS",
  "SeriesDescription": "cmrr_mbep2d_bold_2mm_MB8_Rest",
  "SeriesNumber": 9,
  "ShimSetting": [2086, -476, -7257, 683, -102, -424, 439, 14],
  "SliceThickness": 2,
  "SliceTiming": [0, 0.4375, 0.0875, 0.525, 0.175, 0.6125, 0.2625, 0.7, 0.35, 0, 0.4375, 0.0875, 0.525, 0.175, 0.6125, 0.2625, 0.7, 0.35, 0, 0.4375, 0.0875, 0.525, 0.175, 0.6125, 0.2625, 0.7, 0.35, 0, 0.4375, 0.0875, 0.525, 0.175, 0.6125, 0.2625, 0.7, 0.35, 0, 0.4375, 0.0875, 0.525, 0.175, 0.6125, 0.2625, 0.7, 0.35, 0, 0.4375, 0.0875, 0.525, 0.175, 0.6125, 0.2625, 0.7, 0.35, 0, 0.4375, 0.0875, 0.525, 0.175, 0.6125, 0.2625, 0.7, 0.35, 0, 0.4375, 0.0875, 0.525, 0.175, 0.6125, 0.2625, 0.7, 0.35],
  "SoftwareVersions": "syngo MR B19",
  "SpacingBetweenSlices": 2,
  "StationName": "MRC35450",
  "TaskName": "rest",
  "TotalReadoutTime": 0.0710717,
  "TxRefAmp": 316.809,
  "dcmmeta_affine": [
    [-1.9998512268066406, 6.558924781074893e-08, 0.024394936859607697, 105.92284393310547],
    [-0.0014893183251842856, 1.9962691068649292, -0.12209688872098923, -84.33844757080078],
    [0.024349432438611984, 0.12210597097873688, 1.9961204528808594, -85.85736846923828],
    [0.0, 0.0, 0.0, 1.0]
],
  "dcmmeta_reorient_transform": [
    [0.0, -1.0, 0.0, 103.0],
    [1.0, 0.0, 0.0, 0.0],
    [0.0, 0.0, 1.0, 0.0],
    [0.0, 0.0, 0.0, 1.0]
],
  "dcmmeta_shape": [104, 104, 72, 1070],
  "dcmmeta_slice_dim": 2,
  "dcmmeta_version": 0.6,
  "global": {
    "const": {
      "AcquisitionMatrix": [104, 0, 0, 104],
      "AngioFlag": "N",
      "BitsAllocated": 16,
      "BitsStored": 12,
      "Columns": 936,
      "EchoNumbers": 1,
      "EchoTime": 34.8,
      "EchoTrainLength": 1,
      "FlipAngle": 55.0,
      "HighBit": 11,
      "ImageOrientationPatient": [0.99992560811753, 0.000744659134, 0.01217471615917, 3.2794625e-08, 0.99813452640914, -0.061052986741],
      "ImagePositionPatient": [-937.86098289396, -952.34474510674, -32.613731154811],
      "ImageType": [
        "ORIGINAL",
        "PRIMARY",
        "M",
        "MB",
        "ND",
        "MOSAIC"
],
      "ImagedNucleus": "1H",
      "ImagingFrequency": 123.234608,
      "InPlanePhaseEncodingDirection": "COL",
      "MRAcquisitionType": "2D",
      "MagneticFieldStrength": 3.0,
      "Manufacturer": "SIEMENS",
      "ManufacturerModelName": "TrioTim",
      "Modality": "MR",
      "NumberOfAverages": 1.0,
      "NumberOfPhaseEncodingSteps": 91,
      "PercentPhaseFieldOfView": 100.0,
      "PercentSampling": 100.0,
      "PerformedProcedureStepStartTime": "145434.671000",
      "PhotometricInterpretation": "MONOCHROME2",
      "PixelBandwidth": 1923.0,
      "PixelRepresentation": 0,
      "PixelSpacing": [2.0, 2.0],
      "ProtocolName": "cmrr_mbep2d_bold_2mm_MB8_Rest",
      "RepetitionTime": 785.0,
      "Rows": 936,
      "SAR": 0.1400246263479,
      "SamplesPerPixel": 1,
      "ScanOptions": [
        "PFP",
        "FS"
],
      "ScanningSequence": "EP",
      "SequenceName": "epfid2d1_104",
      "SequenceVariant": [
        "SK",
        "SS"
],
      "SeriesDescription": "cmrr_mbep2d_bold_2mm_MB8_Rest",
      "SeriesNumber": 9,
      "SeriesTime": "152541.687000",
      "SliceLocation": -79.25010597531,
      "SliceThickness": 2.0,
      "SmallestImagePixelValue": 0,
      "SoftwareVersions": "syngo MR B19",
      "SpacingBetweenSlices": 1.9999999603953,
      "SpecificCharacterSet": "ISO_IR 100",
      "StudyID": "1",
      "StudyTime": "145434.562000",
      "TransmitCoilName": "Body",
      "VariableFlipAngleFlag": "N",
      "WindowCenterWidthExplanation": "Algo1",
      "dBdt": 0.0},
    "slices": {}
  },
  "time": {
    "samples": {
      "AcquisitionNumber": [1, 2, 3, 4, 5, 6, 7, 8, 9, 10, 11, 12, 13, 14, 15, 16, 17, 18, 19, 20, 21, 22, 23, 24, 25, 26, 27, 28, 29, 30, 31, 32, 33, 34, 35, 36, 37, 38, 39, 40, 41, 42, 43, 44, 45, 46, 47, 48, 49, 50, 51, 52, 53, 54, 55, 56, 57, 58, 59, 60, 61, 62, 63, 64, 65, 66, 67, 68, 69, 70, 71, 72, 73, 74, 75, 76, 77, 78, 79, 80, 81, 82, 83, 84, 85, 86, 87, 88, 89, 90, 91, 92, 93, 94, 95, 96, 97, 98, 99, 100, 101, 102, 103, 104, 105, 106, 107, 108, 109, 110, 111, 112, 113, 114, 115, 116, 117, 118, 119, 120, 121, 122, 123, 124, 125, 126, 127, 128, 129, 130, 131, 132, 133, 134, 135, 136, 137, 138, 139, 140, 141, 142, 143, 144, 145, 146, 147, 148, 149, 150, 151, 152, 153, 154, 155, 156, 157, 158, 159, 160, 161, 162, 163, 164, 165, 166, 167, 168, 169, 170, 171, 172, 173, 174, 175, 176, 177, 178, 179, 180, 181, 182, 183, 184, 185, 186, 187, 188, 189, 190, 191, 192, 193, 194, 195, 196, 197, 198, 199, 200, 201, 202, 203, 204, 205, 206, 207, 208, 209, 210, 211, 212, 213, 214, 215, 216, 217, 218, 219, 220, 221, 222, 223, 224, 225, 226, 227, 228, 229, 230, 231, 232, 233, 234, 235, 236, 237, 238, 239, 240, 241, 242, 243, 244, 245, 246, 247, 248, 249, 250, 251, 252, 253, 254, 255, 256, 257, 258, 259, 260, 261, 262, 263, 264, 265, 266, 267, 268, 269, 270, 271, 272, 273, 274, 275, 276, 277, 278, 279, 280, 281, 282, 283, 284, 285, 286, 287, 288, 289, 290, 291, 292, 293, 294, 295, 296, 297, 298, 299, 300, 301, 302, 303, 304, 305, 306, 307, 308, 309, 310, 311, 312, 313, 314, 315, 316, 317, 318, 319, 320, 321, 322, 323, 324, 325, 326, 327, 328, 329, 330, 331, 332, 333, 334, 335, 336, 337, 338, 339, 340, 341, 342, 343, 344, 345, 346, 347, 348, 349, 350, 351, 352, 353, 354, 355, 356, 357, 358, 359, 360, 361, 362, 363, 364, 365, 366, 367, 368, 369, 370, 371, 372, 373, 374, 375, 376, 377, 378, 379, 380, 381, 382, 383, 384, 385, 386, 387, 388, 389, 390, 391, 392, 393, 394, 395, 396, 397, 398, 399, 400, 401, 402, 403, 404, 405, 406, 407, 408, 409, 410, 411, 412, 413, 414, 415, 416, 417, 418, 419, 420, 421, 422, 423, 424, 425, 426, 427, 428, 429, 430, 431, 432, 433, 434, 435, 436, 437, 438, 439, 440, 441, 442, 443, 444, 445, 446, 447, 448, 449, 450, 451, 452, 453, 454, 455, 456, 457, 458, 459, 460, 461, 462, 463, 464, 465, 466, 467, 468, 469, 470, 471, 472, 473, 474, 475, 476, 477, 478, 479, 480, 481, 482, 483, 484, 485, 486, 487, 488, 489, 490, 491, 492, 493, 494, 495, 496, 497, 498, 499, 500, 501, 502, 503, 504, 505, 506, 507, 508, 509, 510, 511, 512, 513, 514, 515, 516, 517, 518, 519, 520, 521, 522, 523, 524, 525, 526, 527, 528, 529, 530, 531, 532, 533, 534, 535, 536, 537, 538, 539, 540, 541, 542, 543, 544, 545, 546, 547, 548, 549, 550, 551, 552, 553, 554, 555, 556, 557, 558, 559, 560, 561, 562, 563, 564, 565, 566, 567, 568, 569, 570, 571, 572, 573, 574, 575, 576, 577, 578, 579, 580, 581, 582, 583, 584, 585, 586, 587, 588, 589, 590, 591, 592, 593, 594, 595, 596, 597, 598, 599, 600, 601, 602, 603, 604, 605, 606, 607, 608, 609, 610, 611, 612, 613, 614, 615, 616, 617, 618, 619, 620, 621, 622, 623, 624, 625, 626, 627, 628, 629, 630, 631, 632, 633, 634, 635, 636, 637, 638, 639, 640, 641, 642, 643, 644, 645, 646, 647, 648, 649, 650, 651, 652, 653, 654, 655, 656, 657, 658, 659, 660, 661, 662, 663, 664, 665, 666, 667, 668, 669, 670, 671, 672, 673, 674, 675, 676, 677, 678, 679, 680, 681, 682, 683, 684, 685, 686, 687, 688, 689, 690, 691, 692, 693, 694, 695, 696, 697, 698, 699, 700, 701, 702, 703, 704, 705, 706, 707, 708, 709, 710, 711, 712, 713, 714, 715, 716, 717, 718, 719, 720, 721, 722, 723, 724, 725, 726, 727, 728, 729, 730, 731, 732, 733, 734, 735, 736, 737, 738, 739, 740, 741, 742, 743, 744, 745, 746, 747, 748, 749, 750, 751, 752, 753, 754, 755, 756, 757, 758, 759, 760, 761, 762, 763, 764, 765, 766, 767, 768, 769, 770, 771, 772, 773, 774, 775, 776, 777, 778, 779, 780, 781, 782, 783, 784, 785, 786, 787, 788, 789, 790, 791, 792, 793, 794, 795, 796, 797, 798, 799, 800, 801, 802, 803, 804, 805, 806, 807, 808, 809, 810, 811, 812, 813, 814, 815, 816, 817, 818, 819, 820, 821, 822, 823, 824, 825, 826, 827, 828, 829, 830, 831, 832, 833, 834, 835, 836, 837, 838, 839, 840, 841, 842, 843, 844, 845, 846, 847, 848, 849, 850, 851, 852, 853, 854, 855, 856, 857, 858, 859, 860, 861, 862, 863, 864, 865, 866, 867, 868, 869, 870, 871, 872, 873, 874, 875, 876, 877, 878, 879, 880, 881, 882, 883, 884, 885, 886, 887, 888, 889, 890, 891, 892, 893, 894, 895, 896, 897, 898, 899, 900, 901, 902, 903, 904, 905, 906, 907, 908, 909, 910, 911, 912, 913, 914, 915, 916, 917, 918, 919, 920, 921, 922, 923, 924, 925, 926, 927, 928, 929, 930, 931, 932, 933, 934, 935, 936, 937, 938, 939, 940, 941, 942, 943, 944, 945, 946, 947, 948, 949, 950, 951, 952, 953, 954, 955, 956, 957, 958, 959, 960, 961, 962, 963, 964, 965, 966, 967, 968, 969, 970, 971, 972, 973, 974, 975, 976, 977, 978, 979, 980, 981, 982, 983, 984, 985, 986, 987, 988, 989, 990, 991, 992, 993, 994, 995, 996, 997, 998, 999, 1000, 1001, 1002, 1003, 1004, 1005, 1006, 1007, 1008, 1009, 1010, 1011, 1012, 1013, 1014, 1015, 1016, 1017, 1018, 1019, 1020, 1021, 1022, 1023, 1024, 1025, 1026, 1027, 1028, 1029, 1030, 1031, 1032, 1033, 1034, 1035, 1036, 1037, 1038, 1039, 1040, 1041, 1042, 1043, 1044, 1045, 1046, 1047, 1048, 1049, 1050, 1051, 1052, 1053, 1054, 1055, 1056, 1057, 1058, 1059, 1060, 1061, 1062, 1063, 1064, 1065, 1066, 1067, 1068, 1069, 1070],
      "AcquisitionTime": ["152440.817500", "152441.605000", "152442.395000", "152443.182500", "152443.970000", "152444.757500", "152445.547500", "152446.335000", "152447.122500", "152447.910000", "152448.700000", "152449.487500", "152450.275000", "152451.065000", "152451.852500", "152452.640000", "152453.427500", "152454.217500", "152455.005000", "152455.792500", "152456.580000", "152457.370000", "152458.157500", "152458.945000", "152459.732500", "152500.522500", "152501.310000", "152502.097500", "152502.885000", "152503.675000", "152504.462500", "152505.250000", "152506.037500", "152506.827500", "152507.615000", "152508.402500", "152509.192500", "152509.980000", "152510.767500", "152511.555000", "152512.345000", "152513.132500", "152513.920000", "152514.707500", "152515.497500", "152516.285000", "152517.072500", "152517.860000", "152518.650000", "152519.437500", "152520.225000", "152521.012500", "152521.802500", "152522.590000", "152523.377500", "152524.165000", "152524.955000", "152525.742500", "152526.530000", "152527.320000", "152528.107500", "152528.895000", "152529.682500", "152530.472500", "152531.260000", "152532.047500", "152532.835000", "152533.625000", "152534.412500", "152535.200000", "152535.987500", "152536.777500", "152537.565000", "152538.352500", "152539.140000", "152539.930000", "152540.717500", "152541.505000", "152542.292500", "152543.082500", "152543.870000", "152544.657500", "152545.447500", "152546.235000", "152547.022500", "152547.810000", "152548.600000", "152549.387500", "152550.175000", "152550.962500", "152551.752500", "152552.540000", "152553.327500", "152554.115000", "152554.905000", "152555.692500", "152556.480000", "152557.267500", "152558.057500", "152558.845000", "152559.632500", "152600.420000", "152601.210000", "152601.997500", "152602.785000", "152603.575000", "152604.362500", "152605.150000", "152605.937500", "152606.727500", "152607.515000", "152608.302500", "152609.090000", "152609.880000", "152610.667500", "152611.455000", "152612.242500", "152613.032500", "152613.820000", "152614.607500", "152615.395000", "152616.185000", "152616.972500", "152617.760000", "152618.547500", "152619.337500", "152620.125000", "152620.912500", "152621.702500", "152622.490000", "152623.277500", "152624.065000", "152624.855000", "152625.642500", "152626.430000", "152627.217500", "152628.007500", "152628.795000", "152629.582500", "152630.370000", "152631.160000", "152631.947500", "152632.735000", "152633.522500", "152634.312500", "152635.100000", "152635.887500", "152636.675000", "152637.465000", "152638.252500", "152639.040000", "152639.830000", "152640.617500", "152641.405000", "152642.192500", "152642.982500", "152643.770000", "152644.557500", "152645.345000", "152646.135000", "152646.922500", "152647.710000", "152648.497500", "152649.287500", "152650.075000", "152650.862500", "152651.650000", "152652.440000", "152653.227500", "152654.015000", "152654.805000", "152655.592500", "152656.380000", "152657.167500", "152657.957500", "152658.745000", "152659.532500", "152700.320000", "152701.110000", "152701.897500", "152702.685000", "152703.472500", "152704.262500", "152705.050000", "152705.837500", "152706.625000", "152707.415000", "152708.202500", "152708.990000", "152709.777500", "152710.567500", "152711.355000", "152712.142500", "152712.932500", "152713.720000", "152714.507500", "152715.295000", "152716.085000", "152716.872500", "152717.660000", "152718.447500", "152719.237500", "152720.025000", "152720.812500", "152721.600000", "152722.390000", "152723.177500", "152723.965000", "152724.752500", "152725.542500", "152726.330000", "152727.117500", "152727.905000", "152728.695000", "152729.482500", "152730.270000", "152731.060000", "152731.847500", "152732.635000", "152733.422500", "152734.212500", "152735.000000", "152735.787500", "152736.575000", "152737.365000", "152738.152500", "152738.940000", "152739.727500", "152740.517500", "152741.305000", "152742.092500", "152742.880000", "152743.670000", "152744.457500", "152745.245000", "152746.032500", "152746.822500", "152747.610000", "152748.397500", "152749.187500", "152749.975000", "152750.762500", "152751.550000", "152752.340000", "152753.127500", "152753.915000", "152754.702500", "152755.492500", "152756.280000", "152757.067500", "152757.855000", "152758.645000", "152759.432500", "152800.220000", "152801.007500", "152801.797500", "152802.585000", "152803.372500", "152804.160000", "152804.950000", "152805.737500", "152806.525000", "152807.315000", "152808.102500", "152808.890000", "152809.677500", "152810.467500", "152811.255000", "152812.042500", "152812.830000", "152813.620000", "152814.407500", "152815.195000", "152815.982500", "152816.772500", "152817.560000", "152818.347500", "152819.135000", "152819.925000", "152820.712500", "152821.500000", "152822.287500", "152823.077500", "152823.865000", "152824.652500", "152825.442500", "152826.230000", "152827.017500", "152827.805000", "152828.595000", "152829.382500", "152830.170000", "152830.957500", "152831.747500", "152832.535000", "152833.322500", "152834.110000", "152834.900000", "152835.687500", "152836.475000", "152837.262500", "152838.052500", "152838.840000", "152839.627500", "152840.415000", "152841.205000", "152841.992500", "152842.780000", "152843.570000", "152844.357500", "152845.145000", "152845.932500", "152846.722500", "152847.510000", "152848.297500", "152849.085000", "152849.875000", "152850.662500", "152851.450000", "152852.237500", "152853.027500", "152853.815000", "152854.602500", "152855.390000", "152856.180000", "152856.967500", "152857.755000", "152858.542500", "152859.332500", "152900.120000", "152900.907500", "152901.697500", "152902.485000", "152903.272500", "152904.060000", "152904.850000", "152905.637500", "152906.425000", "152907.212500", "152908.002500", "152908.790000", "152909.577500", "152910.365000", "152911.155000", "152911.942500", "152912.730000", "152913.517500", "152914.307500", "152915.095000", "152915.882500", "152916.670000", "152917.460000", "152918.247500", "152919.035000", "152919.825000", "152920.612500", "152921.400000", "152922.187500", "152922.977500", "152923.765000", "152924.552500", "152925.340000", "152926.130000", "152926.917500", "152927.705000", "152928.492500", "152929.282500", "152930.070000", "152930.857500", "152931.645000", "152932.435000", "152933.222500", "152934.010000", "152934.797500", "152935.587500", "152936.375000", "152937.162500", "152937.952500", "152938.740000", "152939.527500", "152940.315000", "152941.105000", "152941.892500", "152942.680000", "152943.467500", "152944.257500", "152945.045000", "152945.832500", "152946.620000", "152947.410000", "152948.197500", "152948.985000", "152949.772500", "152950.562500", "152951.350000", "152952.137500", "152952.925000", "152953.715000", "152954.502500", "152955.290000", "152956.080000", "152956.867500", "152957.655000", "152958.442500", "152959.232500", "153000.020000", "153000.807500", "153001.595000", "153002.385000", "153003.172500", "153003.960000", "153004.747500", "153005.537500", "153006.325000", "153007.112500", "153007.900000", "153008.690000", "153009.477500", "153010.265000", "153011.055000", "153011.842500", "153012.630000", "153013.417500", "153014.207500", "153014.995000", "153015.782500", "153016.570000", "153017.360000", "153018.147500", "153018.935000", "153019.722500", "153020.512500", "153021.300000", "153022.087500", "153022.875000", "153023.665000", "153024.452500", "153025.240000", "153026.027500", "153026.817500", "153027.605000", "153028.392500", "153029.182500", "153029.970000", "153030.757500", "153031.545000", "153032.335000", "153033.122500", "153033.910000", "153034.697500", "153035.487500", "153036.275000", "153037.062500", "153037.850000", "153038.640000", "153039.427500", "153040.215000", "153041.002500", "153041.792500", "153042.580000", "153043.367500", "153044.155000", "153044.945000", "153045.732500", "153046.520000", "153047.310000", "153048.097500", "153048.885000", "153049.672500", "153050.462500", "153051.250000", "153052.037500", "153052.825000", "153053.615000", "153054.402500", "153055.190000", "153055.977500", "153056.767500", "153057.555000", "153058.342500", "153059.130000", "153059.920000", "153100.707500", "153101.495000", "153102.282500", "153103.072500", "153103.860000", "153104.647500", "153105.437500", "153106.225000", "153107.012500", "153107.800000", "153108.590000", "153109.377500", "153110.165000", "153110.952500", "153111.742500", "153112.530000", "153113.317500", "153114.105000", "153114.895000", "153115.682500", "153116.470000", "153117.257500", "153118.047500", "153118.835000", "153119.622500", "153120.410000", "153121.200000", "153121.987500", "153122.775000", "153123.565000", "153124.352500", "153125.140000", "153125.927500", "153126.717500", "153127.505000", "153128.292500", "153129.080000", "153129.870000", "153130.657500", "153131.445000", "153132.232500", "153133.022500", "153133.810000", "153134.597500", "153135.385000", "153136.175000", "153136.962500", "153137.750000", "153138.537500", "153139.327500", "153140.115000", "153140.902500", "153141.692500", "153142.480000", "153143.267500", "153144.055000", "153144.845000", "153145.632500", "153146.420000", "153147.207500", "153147.997500", "153148.785000", "153149.572500", "153150.360000", "153151.150000", "153151.937500", "153152.725000", "153153.512500", "153154.302500", "153155.090000", "153155.877500", "153156.665000", "153157.455000", "153158.242500", "153159.030000", "153159.820000", "153200.607500", "153201.395000", "153202.182500", "153202.972500", "153203.760000", "153204.547500", "153205.335000", "153206.125000", "153206.912500", "153207.700000", "153208.487500", "153209.277500", "153210.065000", "153210.852500", "153211.640000", "153212.430000", "153213.217500", "153214.005000", "153214.792500", "153215.582500", "153216.370000", "153217.157500", "153217.947500", "153218.735000", "153219.522500", "153220.310000", "153221.100000", "153221.887500", "153222.675000", "153223.462500", "153224.252500", "153225.040000", "153225.827500", "153226.615000", "153227.405000", "153228.192500", "153228.980000", "153229.767500", "153230.557500", "153231.345000", "153232.132500", "153232.920000", "153233.710000", "153234.497500", "153235.285000", "153236.075000", "153236.862500", "153237.650000", "153238.437500", "153239.227500", "153240.015000", "153240.802500", "153241.590000", "153242.380000", "153243.167500", "153243.955000", "153244.742500", "153245.532500", "153246.320000", "153247.107500", "153247.895000", "153248.685000", "153249.472500", "153250.260000", "153251.047500", "153251.837500", "153252.625000", "153253.412500", "153254.202500", "153254.990000", "153255.777500", "153256.565000", "153257.355000", "153258.142500", "153258.930000", "153259.717500", "153300.507500", "153301.295000", "153302.082500", "153302.870000", "153303.660000", "153304.447500", "153305.235000", "153306.022500", "153306.812500", "153307.600000", "153308.387500", "153309.175000", "153309.965000", "153310.752500", "153311.540000", "153312.330000", "153313.117500", "153313.905000", "153314.692500", "153315.482500", "153316.270000", "153317.057500", "153317.845000", "153318.635000", "153319.422500", "153320.210000", "153320.997500", "153321.787500", "153322.575000", "153323.362500", "153324.150000", "153324.940000", "153325.727500", "153326.515000", "153327.305000", "153328.092500", "153328.880000", "153329.667500", "153330.457500", "153331.245000", "153332.032500", "153332.820000", "153333.610000", "153334.397500", "153335.185000", "153335.972500", "153336.762500", "153337.550000", "153338.337500", "153339.125000", "153339.915000", "153340.702500", "153341.490000", "153342.277500", "153343.067500", "153343.855000", "153344.642500", "153345.432500", "153346.220000", "153347.007500", "153347.795000", "153348.585000", "153349.372500", "153350.160000", "153350.947500", "153351.737500", "153352.525000", "153353.312500", "153354.100000", "153354.890000", "153355.677500", "153356.465000", "153357.252500", "153358.042500", "153358.830000", "153359.617500", "153400.405000", "153401.195000", "153401.982500", "153402.770000", "153403.560000", "153404.347500", "153405.135000", "153405.922500", "153406.712500", "153407.500000", "153408.287500", "153409.075000", "153409.865000", "153410.652500", "153411.440000", "153412.227500", "153413.017500", "153413.805000", "153414.592500", "153415.380000", "153416.170000", "153416.957500", "153417.745000", "153418.532500", "153419.322500", "153420.110000", "153420.897500", "153421.687500", "153422.475000", "153423.262500", "153424.050000", "153424.840000", "153425.627500", "153426.415000", "153427.202500", "153427.992500", "153428.780000", "153429.567500", "153430.355000", "153431.145000", "153431.932500", "153432.720000", "153433.507500", "153434.297500", "153435.085000", "153435.872500", "153436.660000", "153437.450000", "153438.237500", "153439.025000", "153439.815000", "153440.602500", "153441.390000", "153442.177500", "153442.967500", "153443.755000", "153444.542500", "153445.330000", "153446.120000", "153446.907500", "153447.695000", "153448.482500", "153449.272500", "153450.060000", "153450.847500", "153451.635000", "153452.425000", "153453.212500", "153454.000000", "153454.787500", "153455.577500", "153456.365000", "153457.152500", "153457.942500", "153458.730000", "153459.517500", "153500.305000", "153501.095000", "153501.882500", "153502.670000", "153503.457500", "153504.247500", "153505.035000", "153505.822500", "153506.610000", "153507.400000", "153508.187500", "153508.975000", "153509.762500", "153510.552500", "153511.340000", "153512.127500", "153512.915000", "153513.705000", "153514.492500", "153515.280000", "153516.070000", "153516.857500", "153517.645000", "153518.432500", "153519.222500", "153520.010000", "153520.797500", "153521.585000", "153522.375000", "153523.162500", "153523.950000", "153524.737500", "153525.527500", "153526.315000", "153527.102500", "153527.890000", "153528.680000", "153529.467500", "153530.255000", "153531.042500", "153531.832500", "153532.620000", "153533.407500", "153534.197500", "153534.985000", "153535.772500", "153536.560000", "153537.350000", "153538.137500", "153538.925000", "153539.712500", "153540.502500", "153541.290000", "153542.077500", "153542.865000", "153543.655000", "153544.442500", "153545.230000", "153546.017500", "153546.807500", "153547.595000", "153548.382500", "153549.170000", "153549.960000", "153550.747500", "153551.535000", "153552.325000", "153553.112500", "153553.900000", "153554.687500", "153555.477500", "153556.265000", "153557.052500", "153557.840000", "153558.630000", "153559.417500", "153600.205000", "153600.992500", "153601.782500", "153602.570000", "153603.357500", "153604.145000", "153604.935000", "153605.722500", "153606.510000", "153607.297500", "153608.087500", "153608.875000", "153609.662500", "153610.452500", "153611.240000", "153612.027500", "153612.815000", "153613.605000", "153614.392500", "153615.180000", "153615.967500", "153616.757500", "153617.545000", "153618.332500", "153619.120000", "153619.910000", "153620.697500", "153621.485000", "153622.272500", "153623.062500", "153623.850000", "153624.637500", "153625.425000", "153626.215000", "153627.002500", "153627.790000", "153628.580000", "153629.367500", "153630.155000", "153630.942500", "153631.732500", "153632.520000", "153633.307500", "153634.095000", "153634.885000", "153635.672500", "153636.460000", "153637.247500", "153638.037500", "153638.825000", "153639.612500", "153640.400000", "153641.190000", "153641.977500", "153642.765000", "153643.555000", "153644.342500", "153645.130000", "153645.917500", "153646.707500", "153647.495000", "153648.282500", "153649.070000", "153649.860000", "153650.647500", "153651.435000", "153652.222500", "153653.012500", "153653.800000", "153654.587500", "153655.375000", "153656.165000", "153656.952500", "153657.740000", "153658.527500", "153659.317500", "153700.105000", "153700.892500", "153701.682500", "153702.470000", "153703.257500", "153704.045000", "153704.835000", "153705.622500", "153706.410000", "153707.197500", "153707.987500", "153708.775000", "153709.562500", "153710.350000", "153711.140000", "153711.927500", "153712.715000", "153713.502500", "153714.292500", "153715.080000", "153715.867500", "153716.655000", "153717.445000", "153718.232500", "153719.020000", "153719.810000", "153720.597500", "153721.385000", "153722.172500", "153722.962500", "153723.750000", "153724.537500", "153725.325000", "153726.115000", "153726.902500", "153727.690000", "153728.477500", "153729.267500", "153730.055000", "153730.842500", "153731.630000", "153732.420000", "153733.207500", "153733.995000", "153734.782500", "153735.572500", "153736.360000", "153737.147500", "153737.937500", "153738.725000", "153739.512500", "153740.300000", "153741.090000", "153741.877500", "153742.665000", "153743.452500", "153744.242500", "153745.030000", "153745.817500", "153746.605000", "153747.395000", "153748.182500", "153748.970000", "153749.757500", "153750.547500", "153751.335000", "153752.122500", "153752.910000", "153753.700000", "153754.487500", "153755.275000", "153756.065000", "153756.852500", "153757.640000", "153758.427500", "153759.217500", "153800.005000", "153800.792500", "153801.580000", "153802.370000", "153803.157500", "153803.945000", "153804.732500", "153805.522500", "153806.310000", "153807.097500", "153807.885000", "153808.675000", "153809.462500", "153810.250000", "153811.037500", "153811.827500", "153812.615000", "153813.402500", "153814.192500", "153814.980000", "153815.767500", "153816.555000", "153817.345000", "153818.132500", "153818.920000", "153819.707500", "153820.497500", "153821.285000", "153822.072500", "153822.860000", "153823.650000", "153824.437500", "153825.225000", "153826.012500", "153826.802500", "153827.590000", "153828.377500", "153829.165000", "153829.955000", "153830.742500", "153831.530000", "153832.320000", "153833.107500", "153833.895000", "153834.682500", "153835.472500", "153836.260000", "153837.047500", "153837.835000", "153838.625000", "153839.412500", "153840.200000", "153840.987500", "153841.777500", "153842.565000", "153843.352500"],
