{
  "AcquisitionMatrixPE": 104,
  "AcquisitionNumber": 1,
  "AcquisitionTime": "15:48:7.482500",
  "BandwidthPerPixelPhaseEncode": 13.935,
  "BaseResolution": 104,
  "CoilString": "C:HEA;HEP",
  "ConversionSoftware": "dcm2niix",
  "ConversionSoftwareVersion": "v1.0.20210317",
  "DerivedVendorReportedEchoSpacing": 0.000690017,
  "DeviceSerialNumber": "35450",
  "DwellTime": 2.5e-06,
  "EchoTime": 0.0348,
  "EffectiveEchoSpacing": 0.000690017,
  "FlipAngle": 55,
  "ImageComments": "Unaliased MB8/PE3",
  "ImageOrientationPatientDICOM": [0.999926, 0.000744659, 0.0121747, 3.27946e-08, 0.998135, -0.061053],
  "ImageType": [
    "ORIGINAL",
    "PRIMARY",
    "M",
    "MB",
    "ND",
    "MOSAIC"
],
  "ImagingFrequency": 123.235,
  "InPlanePhaseEncodingDirectionDICOM": "COL",
  "InstitutionAddress": "Univeristy Ave. 197,Newark,North East,US,07102-1814",
  "InstitutionName": "RUBIC",
  "InstitutionalDepartmentName": "Department",
  "MRAcquisitionType": "2D",
  "MagneticFieldStrength": 3,
  "Manufacturer": "Siemens",
  "ManufacturersModelName": "TrioTim",
  "Modality": "MR",
  "MultibandAccelerationFactor": 8,
  "PartialFourier": 0.875,
  "PatientPosition": "HFS",
  "PercentPhaseFOV": 100,
  "PercentSampling": 100,
  "PhaseEncodingDirection": "j-",
  "PhaseEncodingSteps": 91,
  "PhaseResolution": 1,
  "PixelBandwidth": 1923,
  "ProcedureStepDescription": "Cole^Michael",
  "ProtocolName": "cmrr_mbep2d_bold_2mm_MB8_Task_8x",
  "PulseSequenceDetails": "%CustomerSeq%\\cmrr_mbep2d_bold",
  "ReceiveCoilName": "32Ch_Head",
  "ReconMatrixPE": 104,
  "RepetitionTime": 0.785,
  "SAR": 0.140219,
  "ScanOptions": "PFP\\FS",
  "ScanningSequence": "EP",
  "SequenceName": "epfid2d1_104",
  "SequenceVariant": "SK\\SS",
  "SeriesDescription": "cmrr_mbep2d_bold_2mm_MB8_Task_8x",
  "SeriesNumber": 13,
  "ShimSetting": [2086, -476, -7257, 683, -102, -424, 439, 14],
  "SliceThickness": 2,
  "SliceTiming": [0, 0.4375, 0.0875, 0.525, 0.175, 0.6125, 0.2625, 0.7, 0.35, 0, 0.4375, 0.0875, 0.525, 0.175, 0.6125, 0.2625, 0.7, 0.35, 0, 0.4375, 0.0875, 0.525, 0.175, 0.6125, 0.2625, 0.7, 0.35, 0, 0.4375, 0.0875, 0.525, 0.175, 0.6125, 0.2625, 0.7, 0.35, 0, 0.4375, 0.0875, 0.525, 0.175, 0.6125, 0.2625, 0.7, 0.35, 0, 0.4375, 0.0875, 0.525, 0.175, 0.6125, 0.2625, 0.7, 0.35, 0, 0.4375, 0.0875, 0.525, 0.175, 0.6125, 0.2625, 0.7, 0.35, 0, 0.4375, 0.0875, 0.525, 0.175, 0.6125, 0.2625, 0.7, 0.35],
  "SoftwareVersions": "syngo MR B19",
  "SpacingBetweenSlices": 2,
  "StationName": "MRC35450",
  "TaskName": "cpro",
  "TotalReadoutTime": 0.0710717,
  "TxRefAmp": 316.809,
  "dcmmeta_affine": [
    [-1.9998512268066406, 6.558924781074893e-08, 0.024394936859607697, 105.92284393310547],
    [-0.0014893183251842856, 1.9962691068649292, -0.12209688872098923, -84.33844757080078],
    [0.024349432438611984, 0.12210597097873688, 1.9961204528808594, -85.85736846923828],
    [0.0, 0.0, 0.0, 1.0]
],
  "dcmmeta_reorient_transform": [
    [0.0, -1.0, 0.0, 103.0],
    [1.0, 0.0, 0.0, 0.0],
    [0.0, 0.0, 1.0, 0.0],
    [0.0, 0.0, 0.0, 1.0]
],
  "dcmmeta_shape": [104, 104, 72, 581],
  "dcmmeta_slice_dim": 2,
  "dcmmeta_version": 0.6,
  "global": {
    "const": {
      "AcquisitionMatrix": [104, 0, 0, 104],
      "AngioFlag": "N",
      "BitsAllocated": 16,
      "BitsStored": 12,
      "Columns": 936,
      "EchoNumbers": 1,
      "EchoTime": 34.8,
      "EchoTrainLength": 1,
      "FlipAngle": 55.0,
      "HighBit": 11,
      "ImageOrientationPatient": [0.99992560811753, 0.000744659134, 0.01217471615917, 3.2794625e-08, 0.99813452640914, -0.061052986741],
      "ImagePositionPatient": [-937.86098289396, -952.34474510674, -32.613731154811],
      "ImageType": [
        "ORIGINAL",
        "PRIMARY",
        "M",
        "MB",
        "ND",
        "MOSAIC"
],
      "ImagedNucleus": "1H",
      "ImagingFrequency": 123.234667,
      "InPlanePhaseEncodingDirection": "COL",
      "MRAcquisitionType": "2D",
      "MagneticFieldStrength": 3.0,
      "Manufacturer": "SIEMENS",
      "ManufacturerModelName": "TrioTim",
      "Modality": "MR",
      "NumberOfAverages": 1.0,
      "NumberOfPhaseEncodingSteps": 91,
      "PercentPhaseFieldOfView": 100.0,
      "PercentSampling": 100.0,
      "PerformedProcedureStepStartTime": "145434.671000",
      "PhotometricInterpretation": "MONOCHROME2",
      "PixelBandwidth": 1923.0,
      "PixelRepresentation": 0,
      "PixelSpacing": [2.0, 2.0],
      "ProtocolName": "cmrr_mbep2d_bold_2mm_MB8_Task_8x",
      "RepetitionTime": 785.0,
      "Rows": 936,
      "SAR": 0.14021935285654,
      "SamplesPerPixel": 1,
      "ScanOptions": [
        "PFP",
        "FS"
],
      "ScanningSequence": "EP",
      "SequenceName": "epfid2d1_104",
      "SequenceVariant": [
        "SK",
        "SS"
],
      "SeriesDescription": "cmrr_mbep2d_bold_2mm_MB8_Task_8x",
      "SeriesNumber": 13,
      "SeriesTime": "161827.937000",
      "SliceLocation": -79.25010597531,
      "SliceThickness": 2.0,
      "SmallestImagePixelValue": 0,
      "SoftwareVersions": "syngo MR B19",
      "SpacingBetweenSlices": 1.9999999603953,
      "SpecificCharacterSet": "ISO_IR 100",
      "StudyID": "1",
      "StudyTime": "145434.562000",
      "TransmitCoilName": "Body",
      "VariableFlipAngleFlag": "N",
      "WindowCenterWidthExplanation": "Algo1",
      "dBdt": 0.0},
    "slices": {}
  },
  "time": {
    "samples": {
      "AcquisitionNumber": [1, 2, 3, 4, 5, 6, 7, 8, 9, 10, 11, 12, 13, 14, 15, 16, 17, 18, 19, 20, 21, 22, 23, 24, 25, 26, 27, 28, 29, 30, 31, 32, 33, 34, 35, 36, 37, 38, 39, 40, 41, 42, 43, 44, 45, 46, 47, 48, 49, 50, 51, 52, 53, 54, 55, 56, 57, 58, 59, 60, 61, 62, 63, 64, 65, 66, 67, 68, 69, 70, 71, 72, 73, 74, 75, 76, 77, 78, 79, 80, 81, 82, 83, 84, 85, 86, 87, 88, 89, 90, 91, 92, 93, 94, 95, 96, 97, 98, 99, 100, 101, 102, 103, 104, 105, 106, 107, 108, 109, 110, 111, 112, 113, 114, 115, 116, 117, 118, 119, 120, 121, 122, 123, 124, 125, 126, 127, 128, 129, 130, 131, 132, 133, 134, 135, 136, 137, 138, 139, 140, 141, 142, 143, 144, 145, 146, 147, 148, 149, 150, 151, 152, 153, 154, 155, 156, 157, 158, 159, 160, 161, 162, 163, 164, 165, 166, 167, 168, 169, 170, 171, 172, 173, 174, 175, 176, 177, 178, 179, 180, 181, 182, 183, 184, 185, 186, 187, 188, 189, 190, 191, 192, 193, 194, 195, 196, 197, 198, 199, 200, 201, 202, 203, 204, 205, 206, 207, 208, 209, 210, 211, 212, 213, 214, 215, 216, 217, 218, 219, 220, 221, 222, 223, 224, 225, 226, 227, 228, 229, 230, 231, 232, 233, 234, 235, 236, 237, 238, 239, 240, 241, 242, 243, 244, 245, 246, 247, 248, 249, 250, 251, 252, 253, 254, 255, 256, 257, 258, 259, 260, 261, 262, 263, 264, 265, 266, 267, 268, 269, 270, 271, 272, 273, 274, 275, 276, 277, 278, 279, 280, 281, 282, 283, 284, 285, 286, 287, 288, 289, 290, 291, 292, 293, 294, 295, 296, 297, 298, 299, 300, 301, 302, 303, 304, 305, 306, 307, 308, 309, 310, 311, 312, 313, 314, 315, 316, 317, 318, 319, 320, 321, 322, 323, 324, 325, 326, 327, 328, 329, 330, 331, 332, 333, 334, 335, 336, 337, 338, 339, 340, 341, 342, 343, 344, 345, 346, 347, 348, 349, 350, 351, 352, 353, 354, 355, 356, 357, 358, 359, 360, 361, 362, 363, 364, 365, 366, 367, 368, 369, 370, 371, 372, 373, 374, 375, 376, 377, 378, 379, 380, 381, 382, 383, 384, 385, 386, 387, 388, 389, 390, 391, 392, 393, 394, 395, 396, 397, 398, 399, 400, 401, 402, 403, 404, 405, 406, 407, 408, 409, 410, 411, 412, 413, 414, 415, 416, 417, 418, 419, 420, 421, 422, 423, 424, 425, 426, 427, 428, 429, 430, 431, 432, 433, 434, 435, 436, 437, 438, 439, 440, 441, 442, 443, 444, 445, 446, 447, 448, 449, 450, 451, 452, 453, 454, 455, 456, 457, 458, 459, 460, 461, 462, 463, 464, 465, 466, 467, 468, 469, 470, 471, 472, 473, 474, 475, 476, 477, 478, 479, 480, 481, 482, 483, 484, 485, 486, 487, 488, 489, 490, 491, 492, 493, 494, 495, 496, 497, 498, 499, 500, 501, 502, 503, 504, 505, 506, 507, 508, 509, 510, 511, 512, 513, 514, 515, 516, 517, 518, 519, 520, 521, 522, 523, 524, 525, 526, 527, 528, 529, 530, 531, 532, 533, 534, 535, 536, 537, 538, 539, 540, 541, 542, 543, 544, 545, 546, 547, 548, 549, 550, 551, 552, 553, 554, 555, 556, 557, 558, 559, 560, 561, 562, 563, 564, 565, 566, 567, 568, 569, 570, 571, 572, 573, 574, 575, 576, 577, 578, 579, 580, 581],
      "AcquisitionTime": ["154807.482500", "154808.270000", "154809.060000", "154809.847500", "154810.635000", "154811.422500", "154812.212500", "154813.000000", "154813.787500", "154814.575000", "154815.365000", "154816.152500", "154816.940000", "154817.727500", "154818.517500", "154819.305000", "154820.092500", "154820.880000", "154821.670000", "154822.457500", "154823.245000", "154824.032500", "154824.822500", "154825.610000", "154826.397500", "154827.187500", "154827.975000", "154828.762500", "154829.550000", "154830.340000", "154831.127500", "154831.915000", "154832.702500", "154833.492500", "154834.280000", "154835.067500", "154835.855000", "154836.645000", "154837.432500", "154838.220000", "154839.007500", "154839.797500", "154840.585000", "154841.372500", "154842.160000", "154842.950000", "154843.737500", "154844.525000", "154845.315000", "154846.102500", "154846.890000", "154847.677500", "154848.467500", "154849.255000", "154850.042500", "154850.830000", "154851.620000", "154852.407500", "154853.195000", "154853.982500", "154854.772500", "154855.560000", "154856.347500", "154857.135000", "154857.925000", "154858.712500", "154859.500000", "154900.287500", "154901.077500", "154901.865000", "154902.652500", "154903.442500", "154904.230000", "154905.017500", "154905.805000", "154906.595000", "154907.382500", "154908.170000", "154908.957500", "154909.747500", "154910.535000", "154911.322500", "154912.110000", "154912.900000", "154913.687500", "154914.475000", "154915.262500", "154916.052500", "154916.840000", "154917.627500", "154918.417500", "154919.205000", "154919.992500", "154920.780000", "154921.570000", "154922.357500", "154923.145000", "154923.932500", "154924.722500", "154925.510000", "154926.297500", "154927.085000", "154927.875000", "154928.662500", "154929.450000", "154930.237500", "154931.027500", "154931.815000", "154932.602500", "154933.390000", "154934.180000", "154934.967500", "154935.755000", "154936.545000", "154937.332500", "154938.120000", "154938.907500", "154939.697500", "154940.485000", "154941.272500", "154942.060000", "154942.850000", "154943.637500", "154944.425000", "154945.212500", "154946.002500", "154946.790000", "154947.577500", "154948.365000", "154949.155000", "154949.942500", "154950.730000", "154951.517500", "154952.307500", "154953.095000", "154953.882500", "154954.672500", "154955.460000", "154956.247500", "154957.035000", "154957.825000", "154958.612500", "154959.400000", "155000.187500", "155000.977500", "155001.765000", "155002.552500", "155003.340000", "155004.130000", "155004.917500", "155005.705000", "155006.492500", "155007.282500", "155008.070000", "155008.857500", "155009.645000", "155010.435000", "155011.222500", "155012.010000", "155012.800000", "155013.587500", "155014.375000", "155015.162500", "155015.952500", "155016.740000", "155017.527500", "155018.315000", "155019.105000", "155019.892500", "155020.680000", "155021.467500", "155022.257500", "155023.045000", "155023.832500", "155024.620000", "155025.410000", "155026.197500", "155026.985000", "155027.772500", "155028.562500", "155029.350000", "155030.137500", "155030.927500", "155031.715000", "155032.502500", "155033.290000", "155034.080000", "155034.867500", "155035.655000", "155036.442500", "155037.232500", "155038.020000", "155038.807500", "155039.595000", "155040.385000", "155041.172500", "155041.960000", "155042.747500", "155043.537500", "155044.325000", "155045.112500", "155045.900000", "155046.690000", "155047.477500", "155048.265000", "155049.055000", "155049.842500", "155050.630000", "155051.417500", "155052.207500", "155052.995000", "155053.782500", "155054.570000", "155055.360000", "155056.147500", "155056.935000", "155057.722500", "155058.512500", "155059.300000", "155100.087500", "155100.875000", "155101.665000", "155102.452500", "155103.240000", "155104.027500", "155104.817500", "155105.605000", "155106.392500", "155107.182500", "155107.970000", "155108.757500", "155109.545000", "155110.335000", "155111.122500", "155111.910000", "155112.697500", "155113.487500", "155114.275000", "155115.062500", "155115.850000", "155116.640000", "155117.427500", "155118.215000", "155119.002500", "155119.792500", "155120.580000", "155121.367500", "155122.155000", "155122.945000", "155123.732500", "155124.520000", "155125.310000", "155126.097500", "155126.885000", "155127.672500", "155128.462500", "155129.250000", "155130.037500", "155130.825000", "155131.615000", "155132.402500", "155133.190000", "155133.977500", "155134.767500", "155135.555000", "155136.342500", "155137.130000", "155137.920000", "155138.707500", "155139.495000", "155140.282500", "155141.072500", "155141.860000", "155142.647500", "155143.437500", "155144.225000", "155145.012500", "155145.800000", "155146.590000", "155147.377500", "155148.165000", "155148.952500", "155149.742500", "155150.530000", "155151.317500", "155152.105000", "155152.895000", "155153.682500", "155154.470000", "155155.257500", "155156.047500", "155156.835000", "155157.622500", "155158.410000", "155159.200000", "155159.987500", "155200.775000", "155201.565000", "155202.352500", "155203.140000", "155203.927500", "155204.717500", "155205.505000", "155206.292500", "155207.080000", "155207.870000", "155208.657500", "155209.445000", "155210.232500", "155211.022500", "155211.810000", "155212.597500", "155213.385000", "155214.175000", "155214.962500", "155215.750000", "155216.537500", "155217.327500", "155218.115000", "155218.902500", "155219.692500", "155220.480000", "155221.267500", "155222.055000", "155222.845000", "155223.632500", "155224.420000", "155225.207500", "155225.997500", "155226.785000", "155227.572500", "155228.360000", "155229.150000", "155229.937500", "155230.725000", "155231.512500", "155232.302500", "155233.090000", "155233.877500", "155234.667500", "155235.455000", "155236.242500", "155237.030000", "155237.820000", "155238.607500", "155239.395000", "155240.182500", "155240.972500", "155241.760000", "155242.547500", "155243.335000", "155244.125000", "155244.912500", "155245.700000", "155246.487500", "155247.277500", "155248.065000", "155248.852500", "155249.640000", "155250.430000", "155251.217500", "155252.005000", "155252.795000", "155253.582500", "155254.370000", "155255.157500", "155255.947500", "155256.735000", "155257.522500", "155258.310000", "155259.100000", "155259.887500", "155300.675000", "155301.462500", "155302.252500", "155303.040000", "155303.827500", "155304.615000", "155305.405000", "155306.192500", "155306.980000", "155307.767500", "155308.557500", "155309.345000", "155310.132500", "155310.922500", "155311.710000", "155312.497500", "155313.285000", "155314.075000", "155314.862500", "155315.650000", "155316.437500", "155317.227500", "155318.015000", "155318.802500", "155319.590000", "155320.380000", "155321.167500", "155321.955000", "155322.742500", "155323.532500", "155324.320000", "155325.107500", "155325.895000", "155326.685000", "155327.472500", "155328.260000", "155329.050000", "155329.837500", "155330.625000", "155331.412500", "155332.202500", "155332.990000", "155333.777500", "155334.565000", "155335.355000", "155336.142500", "155336.930000", "155337.717500", "155338.507500", "155339.295000", "155340.082500", "155340.870000", "155341.660000", "155342.447500", "155343.235000", "155344.022500", "155344.812500", "155345.600000", "155346.387500", "155347.177500", "155347.965000", "155348.752500", "155349.540000", "155350.330000", "155351.117500", "155351.905000", "155352.692500", "155353.482500", "155354.270000", "155355.057500", "155355.845000", "155356.635000", "155357.422500", "155358.210000", "155358.997500", "155359.787500", "155400.575000", "155401.362500", "155402.150000", "155402.940000", "155403.727500", "155404.515000", "155405.305000", "155406.092500", "155406.880000", "155407.667500", "155408.457500", "155409.245000", "155410.032500", "155410.820000", "155411.610000", "155412.397500", "155413.185000", "155413.972500", "155414.762500", "155415.550000", "155416.337500", "155417.125000", "155417.915000", "155418.702500", "155419.490000", "155420.277500", "155421.067500", "155421.855000", "155422.642500", "155423.432500", "155424.220000", "155425.007500", "155425.795000", "155426.585000", "155427.372500", "155428.160000", "155428.947500", "155429.737500", "155430.525000", "155431.312500", "155432.100000", "155432.890000", "155433.677500", "155434.465000", "155435.252500", "155436.042500", "155436.830000", "155437.617500", "155438.405000", "155439.195000", "155439.982500", "155440.770000", "155441.560000", "155442.347500", "155443.135000", "155443.922500", "155444.712500", "155445.500000", "155446.287500", "155447.075000", "155447.865000", "155448.652500", "155449.440000", "155450.227500", "155451.017500", "155451.805000", "155452.592500", "155453.380000", "155454.170000", "155454.957500", "155455.745000", "155456.532500", "155457.322500", "155458.110000", "155458.897500", "155459.687500", "155500.475000", "155501.262500", "155502.050000", "155502.840000", "155503.627500", "155504.415000", "155505.202500", "155505.992500", "155506.780000", "155507.567500", "155508.355000", "155509.145000", "155509.932500", "155510.720000", "155511.507500", "155512.297500", "155513.085000", "155513.872500", "155514.660000", "155515.450000", "155516.237500", "155517.025000", "155517.815000", "155518.602500", "155519.390000", "155520.177500", "155520.967500", "155521.755000", "155522.542500", "155523.330000", "155524.120000", "155524.907500", "155525.695000", "155526.482500", "155527.272500", "155528.060000", "155528.847500", "155529.635000", "155530.425000", "155531.212500", "155532.000000", "155532.787500", "155533.577500", "155534.365000", "155535.152500", "155535.942500", "155536.730000", "155537.517500", "155538.305000", "155539.095000", "155539.882500", "155540.670000", "155541.457500", "155542.247500", "155543.035000", "155543.822500", "155544.610000"],
      "ContentTime": ["161827.937000", "161927.921000", "161927.921000", "161927.921000", "161927.921000", "161927.921000", "161927.937000", "161927.937000", "161927.937000", "161927.937000", "161927.937000", "161927.937000", "161927.937000", "161927.953000", "161927.953000", "161927.953000", "161927.953000", "161927.953000", "161927.953000", "161927.953000", "161927.968000", "161927.968000", "161927.968000", "161927.968000", "161927.968000", "161927.968000", "161927.984000", "161927.984000", "161927.984000", "162027.921000", "162027.921000", "162027.921000", "162027.921000", "162027.921000", "162027.937000", "162027.937000", "162027.937000", "162027.937000", "162027.937000", "162027.937000", "162027.937000", "162027.953000", "162027.953000", "162027.953000", "162027.953000", "162027.953000", "162027.953000", "162027.953000", "162027.968000", "162027.968000", "162027.968000", "162027.968000", "162027.968000", "162027.968000", "162027.968000", "162027.984000", "162127.921000", "162127.921000", "162127.921000", "162127.921000", "162127.921000", "162127.937000", "162127.937000", "162127.937000", "162127.937000", "162127.937000", "162127.937000", "162127.937000", "162127.953000", "162127.953000", "162127.953000", "162127.953000", "162127.953000", "162127.953000", "162127.953000", "162127.968000", "162127.968000", "162127.968000", "162127.968000", "162127.968000", "162127.968000", "162127.984000", "162127.984000", "162127.984000", "162227.921000", "162227.921000", "162227.921000", "162227.921000", "162227.937000", "162227.937000", "162227.937000", "162227.937000", "162227.937000", "162227.937000", "162227.937000", "162227.953000", "162227.953000", "162227.953000", "162227.953000", "162227.953000", "162227.953000", "162227.953000", "162227.968000", "162227.968000", "162227.968000", "162227.968000", "162227.968000", "162227.984000", "162227.984000", "162227.984000", "162227.984000", "162327.921000", "162327.921000", "162327.921000", "162327.921000", "162327.921000", "162327.937000", "162327.937000", "162327.937000", "162327.937000", "162327.937000", "162327.937000", "162327.937000", "162327.953000", "162327.953000", "162327.953000", "162327.953000", "162327.953000", "162327.953000", "162327.968000", "162327.968000", "162327.968000", "162327.968000", "162327.968000", "162327.968000", "162327.968000", "162327.984000", "162327.984000", "162327.984000", "162427.921000", "162427.921000", "162427.921000", "162427.921000", "162427.921000", "162427.937000", "162427.937000", "162427.937000", "162427.937000", "162427.937000", "162427.937000", "162427.953000", "162427.953000", "162427.953000", "162427.953000", "162427.953000", "162427.953000", "162427.953000", "162427.968000", "162427.968000", "162427.968000", "162427.968000", "162427.968000", "162427.968000", "162427.968000", "162427.984000", "162427.984000", "162527.921000", "162527.921000", "162527.921000", "162527.921000", "162527.937000", "162527.937000", "162527.937000", "162527.937000", "162527.937000", "162527.937000", "162527.937000", "162527.937000", "162527.953000", "162527.953000", "162527.953000", "162527.953000", "162527.953000", "162527.953000", "162527.968000", "162527.968000", "162527.968000", "162527.968000", "162527.968000", "162527.968000", "162527.968000", "162527.968000", "162527.984000", "162527.984000", "162627.921000", "162627.921000", "162627.921000", "162627.921000", "162627.937000", "162627.937000", "162627.937000", "162627.937000", "162627.937000", "162627.937000", "162627.937000", "162627.937000", "162627.953000", "162627.953000", "162627.953000", "162627.953000", "162627.953000", "162627.953000", "162627.953000", "162627.968000", "162627.968000", "162627.968000", "162627.968000", "162627.968000", "162627.984000", "162627.984000", "162627.984000", "162727.921000", "162727.921000", "162727.921000", "162727.921000", "162727.921000", "162727.937000", "162727.937000", "162727.937000", "162727.937000", "162727.937000", "162727.937000", "162727.953000", "162727.953000", "162727.953000", "162727.953000", "162727.953000", "162727.953000", "162727.953000", "162727.953000", "162727.968000", "162727.968000", "162727.968000", "162727.968000", "162727.968000", "162727.968000", "162727.968000", "162727.984000", "162727.984000", "162827.921000", "162827.921000", "162827.921000", "162827.921000", "162827.921000", "162827.937000", "162827.937000", "162827.937000", "162827.937000", "162827.937000", "162827.937000", "162827.937000", "162827.953000", "162827.953000", "162827.953000", "162827.953000", "162827.953000", "162827.953000", "162827.968000", "162827.968000", "162827.968000", "162827.968000", "162827.968000", "162827.968000", "162827.968000", "162827.984000", "162827.984000", "162927.921000", "162927.937000", "162927.937000", "162927.937000", "162927.937000", "162927.937000", "162927.937000", "162927.953000", "162927.953000", "162927.953000", "162927.953000", "162927.953000", "162927.953000", "162927.953000", "162927.968000", "162927.968000", "162927.968000", "162927.968000", "162927.968000", "162927.968000", "162927.968000", "162927.968000", "162927.984000", "162927.984000", "162927.984000", "162927.984000", "162927.984000", "162927.984000", "163027.921000", "163027.937000", "163027.937000", "163027.937000", "163027.937000", "163027.937000", "163027.937000", "163027.953000", "163027.953000", "163027.953000", "163027.968000", "163027.968000", "163027.968000", "163027.968000", "163027.968000", "163027.968000", "163027.984000", "163027.984000", "163027.984000", "163027.984000", "163027.984000", "163027.984000", "163028.000000", "163028.000000", "163028.000000", "163028.000000", "163028.015000", "163028.015000", "163127.921000", "163127.937000", "163127.937000", "163127.937000", "163127.937000", "163127.937000", "163127.937000", "163127.953000", "163127.953000", "163127.953000", "163127.953000", "163127.953000", "163127.953000", "163127.953000", "163127.968000", "163127.968000", "163127.968000", "163127.968000", "163127.968000", "163127.968000", "163127.968000", "163127.984000", "163127.984000", "163127.984000", "163127.984000", "163127.984000", "163127.984000", "163227.921000", "163227.937000", "163227.937000", "163227.937000", "163227.937000", "163227.937000", "163227.937000", "163227.953000", "163227.953000", "163227.953000", "163227.953000", "163227.953000", "163227.953000", "163227.953000", "163227.968000", "163227.968000", "163227.968000", "163227.968000", "163227.968000", "163227.968000", "163227.968000", "163227.984000", "163227.984000", "163227.984000", "163227.984000", "163227.984000", "163227.984000", "163228.000000", "163327.921000", "163327.937000", "163327.937000", "163327.937000", "163327.937000", "163327.937000", "163327.937000", "163327.953000", "163327.953000", "163327.953000", "163327.953000", "163327.953000", "163327.953000", "163327.953000", "163327.968000", "163327.968000", "163327.968000", "163327.968000", "163327.968000", "163327.968000", "163327.968000", "163327.984000", "163327.984000", "163327.984000", "163327.984000", "163327.984000", "163328.000000", "163427.921000", "163427.937000", "163427.937000", "163427.937000", "163427.937000", "163427.937000", "163427.953000", "163427.953000", "163427.953000", "163427.953000", "163427.953000", "163427.953000", "163427.953000", "163427.968000", "163427.968000", "163427.968000", "163427.968000", "163427.968000", "163427.968000", "163427.968000", "163427.984000", "163427.984000", "163427.984000", "163427.984000", "163427.984000", "163427.984000", "163427.984000", "163428.000000", "163527.921000", "163527.937000", "163527.937000", "163527.937000", "163527.937000", "163527.937000", "163527.937000", "163527.937000", "163527.953000", "163527.953000", "163527.953000", "163527.953000", "163527.953000", "163527.953000", "163527.968000", "163527.968000", "163527.968000", "163527.968000", "163527.968000", "163527.968000", "163527.968000", "163527.968000", "163527.984000", "163527.984000", "163527.984000", "163527.984000", "163527.984000", "163627.921000", "163627.937000", "163627.937000", "163627.937000", "163627.937000", "163627.937000", "163627.937000", "163627.953000", "163627.953000", "163627.953000", "163627.953000", "163627.953000", "163627.953000", "163627.953000", "163627.968000", "163627.968000", "163627.968000", "163627.968000", "163627.968000", "163627.968000", "163627.968000", "163627.984000", "163627.984000", "163627.984000", "163627.984000", "163627.984000", "163627.984000", "163727.921000", "163727.937000", "163727.937000", "163727.937000", "163727.937000", "163727.937000", "163727.937000", "163727.937000", "163727.953000", "163727.953000", "163727.953000", "163727.953000", "163727.953000", "163727.953000", "163727.953000", "163727.968000", "163727.968000", "163727.968000", "163727.968000", "163727.968000", "163727.968000", "163727.968000", "163727.984000", "163727.984000", "163727.984000", "163727.984000", "163727.984000", "163727.984000", "163827.921000", "163827.937000", "163827.937000", "163827.937000", "163827.937000", "163827.937000", "163827.937000", "163827.937000", "163827.953000", "163827.953000", "163827.953000", "163827.953000", "163827.953000", "163827.953000", "163827.953000", "163827.968000", "163827.968000", "163827.968000", "163827.968000", "163827.968000", "163827.968000", "163827.984000", "163827.984000", "163827.984000", "163827.984000", "163827.984000", "163827.984000", "163927.921000", "163927.937000", "163927.937000", "163927.937000", "163927.937000", "163927.937000", "163927.937000", "163927.937000", "163927.953000", "163927.953000", "163927.953000", "163927.953000", "163927.968000", "163927.968000", "163927.968000", "163927.968000", "163927.968000", "163927.968000", "163927.984000", "163927.984000", "163927.984000", "163927.984000", "163927.984000", "163928.000000", "163928.000000", "163928.000000", "163928.000000", "163928.000000", "163931.140000", "163931.140000"],
      "DataSetTrailingPadding": [
        "\u0000\u0000\u0000\u0000\u0000\u0000",
        "\u0000\u0000\u0000\u0000\u0000\u0000",
        "\u0000\u0000\u0000\u0000\u0000\u0000",
        "\u0000\u0000\u0000\u0000",
        "\u0000\u0000\u0000\u0000\u0000\u0000",
        "\u0000\u0000\u0000\u0000",
        "\u0000\u0000\u0000\u0000\u0000\u0000",
        "\u0000\u0000\u0000\u0000\u0000\u0000",
        "\u0000\u0000\u0000\u0000",
        "\u0000\u0000",
        "\u0000\u0000",
