{
  "AcquisitionMatrixPE": 104,
  "AcquisitionNumber": 1,
  "AcquisitionTime": "16:45:39.692500",
  "BandwidthPerPixelPhaseEncode": 13.935,
  "BaseResolution": 104,
  "CoilString": "C:HEA;HEP",
  "ConversionSoftware": "dcm2niix",
  "ConversionSoftwareVersion": "v1.0.20210317",
  "DerivedVendorReportedEchoSpacing": 0.000690017,
  "DeviceSerialNumber": "35450",
  "DwellTime": 2.5e-06,
  "EchoTime": 0.0348,
  "EffectiveEchoSpacing": 0.000690017,
  "FlipAngle": 55,
  "ImageComments": "Unaliased MB8/PE3",
  "ImageOrientationPatientDICOM": [0.999926, 0.000744659, 0.0121747, 3.27946e-08, 0.998135, -0.061053],
  "ImageType": [
    "ORIGINAL",
    "PRIMARY",
    "M",
    "MB",
    "ND",
    "MOSAIC"
],
  "ImagingFrequency": 123.235,
  "InPlanePhaseEncodingDirectionDICOM": "COL",
  "InstitutionAddress": "Univeristy Ave. 197,Newark,North East,US,07102-1814",
  "InstitutionName": "RUBIC",
  "InstitutionalDepartmentName": "Department",
  "MRAcquisitionType": "2D",
  "MagneticFieldStrength": 3,
  "Manufacturer": "Siemens",
  "ManufacturersModelName": "TrioTim",
  "Modality": "MR",
  "MultibandAccelerationFactor": 8,
  "PartialFourier": 0.875,
  "PatientPosition": "HFS",
  "PercentPhaseFOV": 100,
  "PercentSampling": 100,
  "PhaseEncodingDirection": "j-",
  "PhaseEncodingSteps": 91,
  "PhaseResolution": 1,
  "PixelBandwidth": 1923,
  "ProcedureStepDescription": "Cole^Michael",
  "ProtocolName": "cmrr_mbep2d_bold_2mm_MB8_Task_8x",
  "PulseSequenceDetails": "%CustomerSeq%\\cmrr_mbep2d_bold",
  "ReceiveCoilName": "32Ch_Head",
  "ReconMatrixPE": 104,
  "RepetitionTime": 0.785,
  "SAR": 0.122688,
  "ScanOptions": "PFP\\FS",
  "ScanningSequence": "EP",
  "SequenceName": "epfid2d1_104",
  "SequenceVariant": "SK\\SS",
  "SeriesDescription": "cmrr_mbep2d_bold_2mm_MB8_Task_8x",
  "SeriesNumber": 27,
  "ShimSetting": [2086, -476, -7257, 683, -102, -424, 439, 14],
  "SliceThickness": 2,
  "SliceTiming": [0, 0.4375, 0.0875, 0.525, 0.175, 0.6125, 0.2625, 0.7, 0.35, 0, 0.4375, 0.0875, 0.525, 0.175, 0.6125, 0.2625, 0.7, 0.35, 0, 0.4375, 0.0875, 0.525, 0.175, 0.6125, 0.2625, 0.7, 0.35, 0, 0.4375, 0.0875, 0.525, 0.175, 0.6125, 0.2625, 0.7, 0.35, 0, 0.4375, 0.0875, 0.525, 0.175, 0.6125, 0.2625, 0.7, 0.35, 0, 0.4375, 0.0875, 0.525, 0.175, 0.6125, 0.2625, 0.7, 0.35, 0, 0.4375, 0.0875, 0.525, 0.175, 0.6125, 0.2625, 0.7, 0.35, 0, 0.4375, 0.0875, 0.525, 0.175, 0.6125, 0.2625, 0.7, 0.35],
  "SoftwareVersions": "syngo MR B19",
  "SpacingBetweenSlices": 2,
  "StationName": "MRC35450",
  "TaskName": "cpro",
  "TotalReadoutTime": 0.0710717,
  "TxRefAmp": 316.809,
  "dcmmeta_affine": [
    [-1.9998512268066406, 6.558924781074893e-08, 0.024394936859607697, 105.92284393310547],
    [-0.0014893183251842856, 1.9962691068649292, -0.12209688872098923, -84.33844757080078],
    [0.024349432438611984, 0.12210597097873688, 1.9961204528808594, -85.85736846923828],
    [0.0, 0.0, 0.0, 1.0]
],
  "dcmmeta_reorient_transform": [
    [0.0, -1.0, 0.0, 103.0],
    [1.0, 0.0, 0.0, 0.0],
    [0.0, 0.0, 1.0, 0.0],
    [0.0, 0.0, 0.0, 1.0]
],
  "dcmmeta_shape": [104, 104, 72, 581],
  "dcmmeta_slice_dim": 2,
  "dcmmeta_version": 0.6,
  "global": {
    "const": {
      "AcquisitionMatrix": [104, 0, 0, 104],
      "AngioFlag": "N",
      "BitsAllocated": 16,
      "BitsStored": 12,
      "Columns": 936,
      "EchoNumbers": 1,
      "EchoTime": 34.8,
      "EchoTrainLength": 1,
      "FlipAngle": 55.0,
      "HighBit": 11,
      "ImageOrientationPatient": [0.99992560811753, 0.000744659134, 0.01217471615917, 3.2794625e-08, 0.99813452640914, -0.061052986741],
      "ImagePositionPatient": [-937.86098289396, -952.34474510674, -32.613731154811],
      "ImageType": [
        "ORIGINAL",
        "PRIMARY",
        "M",
        "MB",
        "ND",
        "MOSAIC"
],
      "ImagedNucleus": "1H",
      "ImagingFrequency": 123.234667,
      "InPlanePhaseEncodingDirection": "COL",
      "MRAcquisitionType": "2D",
      "MagneticFieldStrength": 3.0,
      "Manufacturer": "SIEMENS",
      "ManufacturerModelName": "TrioTim",
      "Modality": "MR",
      "NumberOfAverages": 1.0,
      "NumberOfPhaseEncodingSteps": 91,
      "PercentPhaseFieldOfView": 100.0,
      "PercentSampling": 100.0,
      "PerformedProcedureStepStartTime": "145434.671000",
      "PhotometricInterpretation": "MONOCHROME2",
      "PixelBandwidth": 1923.0,
      "PixelRepresentation": 0,
      "PixelSpacing": [2.0, 2.0],
      "ProtocolName": "cmrr_mbep2d_bold_2mm_MB8_Task_8x",
      "RepetitionTime": 785.0,
      "Rows": 936,
      "SAR": 0.12268767789709,
      "SamplesPerPixel": 1,
      "ScanOptions": [
        "PFP",
        "FS"
],
      "ScanningSequence": "EP",
      "SequenceName": "epfid2d1_104",
      "SequenceVariant": [
        "SK",
        "SS"
],
      "SeriesDescription": "cmrr_mbep2d_bold_2mm_MB8_Task_8x",
      "SeriesNumber": 27,
      "SeriesTime": "184527.953000",
      "SliceLocation": -79.25010597531,
      "SliceThickness": 2.0,
      "SmallestImagePixelValue": 0,
      "SoftwareVersions": "syngo MR B19",
      "SpacingBetweenSlices": 1.9999999603953,
      "SpecificCharacterSet": "ISO_IR 100",
      "StudyID": "1",
      "StudyTime": "145434.562000",
      "TransmitCoilName": "Body",
      "VariableFlipAngleFlag": "N",
      "WindowCenterWidthExplanation": "Algo1",
      "dBdt": 0.0},
    "slices": {}
  },
  "time": {
    "samples": {
      "AcquisitionNumber": [1, 2, 3, 4, 5, 6, 7, 8, 9, 10, 11, 12, 13, 14, 15, 16, 17, 18, 19, 20, 21, 22, 23, 24, 25, 26, 27, 28, 29, 30, 31, 32, 33, 34, 35, 36, 37, 38, 39, 40, 41, 42, 43, 44, 45, 46, 47, 48, 49, 50, 51, 52, 53, 54, 55, 56, 57, 58, 59, 60, 61, 62, 63, 64, 65, 66, 67, 68, 69, 70, 71, 72, 73, 74, 75, 76, 77, 78, 79, 80, 81, 82, 83, 84, 85, 86, 87, 88, 89, 90, 91, 92, 93, 94, 95, 96, 97, 98, 99, 100, 101, 102, 103, 104, 105, 106, 107, 108, 109, 110, 111, 112, 113, 114, 115, 116, 117, 118, 119, 120, 121, 122, 123, 124, 125, 126, 127, 128, 129, 130, 131, 132, 133, 134, 135, 136, 137, 138, 139, 140, 141, 142, 143, 144, 145, 146, 147, 148, 149, 150, 151, 152, 153, 154, 155, 156, 157, 158, 159, 160, 161, 162, 163, 164, 165, 166, 167, 168, 169, 170, 171, 172, 173, 174, 175, 176, 177, 178, 179, 180, 181, 182, 183, 184, 185, 186, 187, 188, 189, 190, 191, 192, 193, 194, 195, 196, 197, 198, 199, 200, 201, 202, 203, 204, 205, 206, 207, 208, 209, 210, 211, 212, 213, 214, 215, 216, 217, 218, 219, 220, 221, 222, 223, 224, 225, 226, 227, 228, 229, 230, 231, 232, 233, 234, 235, 236, 237, 238, 239, 240, 241, 242, 243, 244, 245, 246, 247, 248, 249, 250, 251, 252, 253, 254, 255, 256, 257, 258, 259, 260, 261, 262, 263, 264, 265, 266, 267, 268, 269, 270, 271, 272, 273, 274, 275, 276, 277, 278, 279, 280, 281, 282, 283, 284, 285, 286, 287, 288, 289, 290, 291, 292, 293, 294, 295, 296, 297, 298, 299, 300, 301, 302, 303, 304, 305, 306, 307, 308, 309, 310, 311, 312, 313, 314, 315, 316, 317, 318, 319, 320, 321, 322, 323, 324, 325, 326, 327, 328, 329, 330, 331, 332, 333, 334, 335, 336, 337, 338, 339, 340, 341, 342, 343, 344, 345, 346, 347, 348, 349, 350, 351, 352, 353, 354, 355, 356, 357, 358, 359, 360, 361, 362, 363, 364, 365, 366, 367, 368, 369, 370, 371, 372, 373, 374, 375, 376, 377, 378, 379, 380, 381, 382, 383, 384, 385, 386, 387, 388, 389, 390, 391, 392, 393, 394, 395, 396, 397, 398, 399, 400, 401, 402, 403, 404, 405, 406, 407, 408, 409, 410, 411, 412, 413, 414, 415, 416, 417, 418, 419, 420, 421, 422, 423, 424, 425, 426, 427, 428, 429, 430, 431, 432, 433, 434, 435, 436, 437, 438, 439, 440, 441, 442, 443, 444, 445, 446, 447, 448, 449, 450, 451, 452, 453, 454, 455, 456, 457, 458, 459, 460, 461, 462, 463, 464, 465, 466, 467, 468, 469, 470, 471, 472, 473, 474, 475, 476, 477, 478, 479, 480, 481, 482, 483, 484, 485, 486, 487, 488, 489, 490, 491, 492, 493, 494, 495, 496, 497, 498, 499, 500, 501, 502, 503, 504, 505, 506, 507, 508, 509, 510, 511, 512, 513, 514, 515, 516, 517, 518, 519, 520, 521, 522, 523, 524, 525, 526, 527, 528, 529, 530, 531, 532, 533, 534, 535, 536, 537, 538, 539, 540, 541, 542, 543, 544, 545, 546, 547, 548, 549, 550, 551, 552, 553, 554, 555, 556, 557, 558, 559, 560, 561, 562, 563, 564, 565, 566, 567, 568, 569, 570, 571, 572, 573, 574, 575, 576, 577, 578, 579, 580, 581],
      "AcquisitionTime": ["164539.692500", "164540.480000", "164541.267500", "164542.055000", "164542.845000", "164543.632500", "164544.420000", "164545.210000", "164545.997500", "164546.785000", "164547.572500", "164548.362500", "164549.150000", "164549.937500", "164550.725000", "164551.515000", "164552.302500", "164553.090000", "164553.877500", "164554.667500", "164555.455000", "164556.242500", "164557.030000", "164557.820000", "164558.607500", "164559.395000", "164600.182500", "164600.972500", "164601.760000", "164602.547500", "164603.337500", "164604.125000", "164604.912500", "164605.700000", "164606.490000", "164607.277500", "164608.065000", "164608.852500", "164609.642500", "164610.430000", "164611.217500", "164612.005000", "164612.795000", "164613.582500", "164614.370000", "164615.157500", "164615.947500", "164616.735000", "164617.522500", "164618.310000", "164619.100000", "164619.887500", "164620.675000", "164621.465000", "164622.252500", "164623.040000", "164623.827500", "164624.617500", "164625.405000", "164626.192500", "164626.980000", "164627.770000", "164628.557500", "164629.345000", "164630.132500", "164630.922500", "164631.710000", "164632.497500", "164633.285000", "164634.075000", "164634.862500", "164635.650000", "164636.437500", "164637.227500", "164638.015000", "164638.802500", "164639.592500", "164640.380000", "164641.167500", "164641.955000", "164642.745000", "164643.532500", "164644.320000", "164645.107500", "164645.897500", "164646.685000", "164647.472500", "164648.260000", "164649.050000", "164649.837500", "164650.625000", "164651.412500", "164652.202500", "164652.990000", "164653.777500", "164654.567500", "164655.355000", "164656.142500", "164656.930000", "164657.720000", "164658.507500", "164659.295000", "164700.082500", "164700.872500", "164701.660000", "164702.447500", "164703.235000", "164704.025000", "164704.812500", "164705.600000", "164706.387500", "164707.177500", "164707.965000", "164708.752500", "164709.540000", "164710.330000", "164711.117500", "164711.905000", "164712.695000", "164713.482500", "164714.270000", "164715.057500", "164715.847500", "164716.635000", "164717.422500", "164718.210000", "164719.000000", "164719.787500", "164720.575000", "164721.362500", "164722.152500", "164722.940000", "164723.727500", "164724.515000", "164725.305000", "164726.092500", "164726.880000", "164727.667500", "164728.457500", "164729.245000", "164730.032500", "164730.822500", "164731.610000", "164732.397500", "164733.185000", "164733.975000", "164734.762500", "164735.550000", "164736.337500", "164737.127500", "164737.915000", "164738.702500", "164739.490000", "164740.280000", "164741.067500", "164741.855000", "164742.642500", "164743.432500", "164744.220000", "164745.007500", "164745.795000", "164746.585000", "164747.372500", "164748.160000", "164748.950000", "164749.737500", "164750.525000", "164751.312500", "164752.102500", "164752.890000", "164753.677500", "164754.465000", "164755.255000", "164756.042500", "164756.830000", "164757.617500", "164758.407500", "164759.195000", "164759.982500", "164800.770000", "164801.560000", "164802.347500", "164803.135000", "164803.922500", "164804.712500", "164805.500000", "164806.287500", "164807.077500", "164807.865000", "164808.652500", "164809.440000", "164810.230000", "164811.017500", "164811.805000", "164812.592500", "164813.382500", "164814.170000", "164814.957500", "164815.745000", "164816.535000", "164817.322500", "164818.110000", "164818.897500", "164819.687500", "164820.475000", "164821.262500", "164822.050000", "164822.840000", "164823.627500", "164824.415000", "164825.205000", "164825.992500", "164826.780000", "164827.567500", "164828.357500", "164829.145000", "164829.932500", "164830.720000", "164831.510000", "164832.297500", "164833.085000", "164833.872500", "164834.662500", "164835.450000", "164836.237500", "164837.025000", "164837.815000", "164838.602500", "164839.390000", "164840.177500", "164840.967500", "164841.755000", "164842.542500", "164843.332500", "164844.120000", "164844.907500", "164845.695000", "164846.485000", "164847.272500", "164848.060000", "164848.847500", "164849.637500", "164850.425000", "164851.212500", "164852.000000", "164852.790000", "164853.577500", "164854.365000", "164855.152500", "164855.942500", "164856.730000", "164857.517500", "164858.305000", "164859.095000", "164859.882500", "164900.670000", "164901.460000", "164902.247500", "164903.035000", "164903.822500", "164904.612500", "164905.400000", "164906.187500", "164906.975000", "164907.765000", "164908.552500", "164909.340000", "164910.127500", "164910.917500", "164911.705000", "164912.492500", "164913.280000", "164914.070000", "164914.857500", "164915.645000", "164916.432500", "164917.222500", "164918.010000", "164918.797500", "164919.587500", "164920.375000", "164921.162500", "164921.950000", "164922.740000", "164923.527500", "164924.315000", "164925.102500", "164925.892500", "164926.680000", "164927.467500", "164928.255000", "164929.045000", "164929.832500", "164930.620000", "164931.407500", "164932.197500", "164932.985000", "164933.772500", "164934.560000", "164935.350000", "164936.137500", "164936.925000", "164937.715000", "164938.502500", "164939.290000", "164940.077500", "164940.867500", "164941.655000", "164942.442500", "164943.230000", "164944.020000", "164944.807500", "164945.595000", "164946.382500", "164947.172500", "164947.960000", "164948.747500", "164949.535000", "164950.325000", "164951.112500", "164951.900000", "164952.687500", "164953.477500", "164954.265000", "164955.052500", "164955.842500", "164956.630000", "164957.417500", "164958.205000", "164958.995000", "164959.782500", "165000.570000", "165001.357500", "165002.147500", "165002.935000", "165003.722500", "165004.510000", "165005.300000", "165006.087500", "165006.875000", "165007.662500", "165008.452500", "165009.240000", "165010.027500", "165010.817500", "165011.605000", "165012.392500", "165013.180000", "165013.970000", "165014.757500", "165015.545000", "165016.332500", "165017.122500", "165017.910000", "165018.697500", "165019.485000", "165020.275000", "165021.062500", "165021.850000", "165022.637500", "165023.427500", "165024.215000", "165025.002500", "165025.790000", "165026.580000", "165027.367500", "165028.155000", "165028.945000", "165029.732500", "165030.520000", "165031.307500", "165032.097500", "165032.885000", "165033.672500", "165034.460000", "165035.250000", "165036.037500", "165036.825000", "165037.612500", "165038.402500", "165039.190000", "165039.977500", "165040.765000", "165041.555000", "165042.342500", "165043.130000", "165043.917500", "165044.707500", "165045.495000", "165046.282500", "165047.072500", "165047.860000", "165048.647500", "165049.435000", "165050.225000", "165051.012500", "165051.800000", "165052.587500", "165053.377500", "165054.165000", "165054.952500", "165055.740000", "165056.530000", "165057.317500", "165058.105000", "165058.892500", "165059.682500", "165100.470000", "165101.257500", "165102.045000", "165102.835000", "165103.622500", "165104.410000", "165105.200000", "165105.987500", "165106.775000", "165107.562500", "165108.352500", "165109.140000", "165109.927500", "165110.715000", "165111.505000", "165112.292500", "165113.080000", "165113.867500", "165114.657500", "165115.445000", "165116.232500", "165117.020000", "165117.810000", "165118.597500", "165119.385000", "165120.172500", "165120.962500", "165121.750000", "165122.537500", "165123.327500", "165124.115000", "165124.902500", "165125.690000", "165126.480000", "165127.267500", "165128.055000", "165128.842500", "165129.632500", "165130.420000", "165131.207500", "165131.995000", "165132.785000", "165133.572500", "165134.360000", "165135.147500", "165135.937500", "165136.725000", "165137.512500", "165138.300000", "165139.090000", "165139.877500", "165140.665000", "165141.455000", "165142.242500", "165143.030000", "165143.817500", "165144.607500", "165145.395000", "165146.182500", "165146.970000", "165147.760000", "165148.547500", "165149.335000", "165150.122500", "165150.912500", "165151.700000", "165152.487500", "165153.275000", "165154.065000", "165154.852500", "165155.640000", "165156.427500", "165157.217500", "165158.005000", "165158.792500", "165159.582500", "165200.370000", "165201.157500", "165201.945000", "165202.735000", "165203.522500", "165204.310000", "165205.097500", "165205.887500", "165206.675000", "165207.462500", "165208.250000", "165209.040000", "165209.827500", "165210.615000", "165211.402500", "165212.192500", "165212.980000", "165213.767500", "165214.555000", "165215.345000", "165216.132500", "165216.920000", "165217.710000", "165218.497500", "165219.285000", "165220.072500", "165220.862500", "165221.650000", "165222.437500", "165223.225000", "165224.015000", "165224.802500", "165225.590000", "165226.377500", "165227.167500", "165227.955000", "165228.742500", "165229.530000", "165230.320000", "165231.107500", "165231.895000", "165232.682500", "165233.472500", "165234.260000", "165235.047500", "165235.837500", "165236.625000", "165237.412500", "165238.200000", "165238.990000", "165239.777500", "165240.565000", "165241.352500", "165242.142500", "165242.930000", "165243.717500", "165244.505000", "165245.295000", "165246.082500", "165246.870000", "165247.657500", "165248.447500", "165249.235000", "165250.022500", "165250.810000", "165251.600000", "165252.387500", "165253.175000", "165253.965000", "165254.752500", "165255.540000", "165256.327500", "165257.117500", "165257.905000", "165258.692500", "165259.480000", "165300.270000", "165301.057500", "165301.845000", "165302.632500", "165303.422500", "165304.210000", "165304.997500", "165305.785000", "165306.575000", "165307.362500", "165308.150000", "165308.937500", "165309.727500", "165310.515000", "165311.302500", "165312.092500", "165312.880000", "165313.667500", "165314.455000", "165315.245000", "165316.032500", "165316.820000"],
      "ContentTime": ["184527.953000", "184527.953000", "184627.937000", "184627.937000", "184627.937000", "184627.937000", "184627.937000", "184627.937000", "184627.937000", "184627.953000", "184627.953000", "184627.953000", "184627.953000", "184627.953000", "184627.953000", "184627.968000", "184627.968000", "184627.968000", "184627.968000", "184627.968000", "184627.968000", "184627.984000", "184627.984000", "184627.984000", "184627.984000", "184627.984000", "184627.984000", "184628.000000", "184628.000000", "184628.000000", "184727.937000", "184727.937000", "184727.937000", "184727.937000", "184727.937000", "184727.937000", "184727.937000", "184727.953000", "184727.953000", "184727.953000", "184727.953000", "184727.953000", "184727.953000", "184727.968000", "184727.968000", "184727.968000", "184727.968000", "184727.968000", "184727.968000", "184727.968000", "184727.968000", "184727.984000", "184727.984000", "184727.984000", "184727.984000", "184727.984000", "184727.984000", "184727.984000", "184728.000000", "184827.937000", "184827.937000", "184827.937000", "184827.937000", "184827.937000", "184827.937000", "184827.937000", "184827.953000", "184827.953000", "184827.953000", "184827.953000", "184827.953000", "184827.953000", "184827.953000", "184827.968000", "184827.968000", "184827.968000", "184827.968000", "184827.968000", "184827.984000", "184827.984000", "184827.984000", "184827.984000", "184827.984000", "184827.984000", "184827.984000", "184828.000000", "184828.000000", "184927.937000", "184927.937000", "184927.937000", "184927.937000", "184927.937000", "184927.937000", "184927.937000", "184927.953000", "184927.953000", "184927.953000", "184927.953000", "184927.953000", "184927.953000", "184927.953000", "184927.968000", "184927.968000", "184927.968000", "184927.968000", "184927.984000", "184927.984000", "184927.984000", "184927.984000", "184927.984000", "184927.984000", "184927.984000", "184927.984000", "184928.000000", "184928.000000", "185027.937000", "185027.937000", "185027.937000", "185027.937000", "185027.937000", "185027.937000", "185027.953000", "185027.953000", "185027.953000", "185027.953000", "185027.953000", "185027.953000", "185027.968000", "185027.968000", "185027.968000", "185027.968000", "185027.968000", "185027.984000", "185027.984000", "185027.984000", "185027.984000", "185027.984000", "185028.000000", "185028.000000", "185028.000000", "185028.000000", "185028.000000", "185028.000000", "185127.937000", "185127.937000", "185127.937000", "185127.937000", "185127.937000", "185127.937000", "185127.937000", "185127.953000", "185127.953000", "185127.953000", "185127.953000", "185127.953000", "185127.953000", "185127.953000", "185127.968000", "185127.968000", "185127.968000", "185127.968000", "185127.968000", "185127.968000", "185127.968000", "185127.984000", "185127.984000", "185127.984000", "185127.984000", "185127.984000", "185127.984000", "185127.984000", "185128.000000", "185227.937000", "185227.937000", "185227.937000", "185227.937000", "185227.937000", "185227.937000", "185227.953000", "185227.953000", "185227.953000", "185227.953000", "185227.953000", "185227.953000", "185227.953000", "185227.968000", "185227.968000", "185227.968000", "185227.968000", "185227.968000", "185227.968000", "185227.968000", "185227.968000", "185227.984000", "185227.984000", "185227.984000", "185227.984000", "185227.984000", "185227.984000", "185227.984000", "185327.937000", "185327.937000", "185327.937000", "185327.937000", "185327.937000", "185327.937000", "185327.937000", "185327.953000", "185327.953000", "185327.953000", "185327.953000", "185327.953000", "185327.953000", "185327.968000", "185327.968000", "185327.968000", "185327.968000", "185327.968000", "185327.984000", "185327.984000", "185327.984000", "185327.984000", "185327.984000", "185327.984000", "185327.984000", "185328.000000", "185328.000000", "185328.000000", "185427.937000", "185427.937000", "185427.937000", "185427.937000", "185427.937000", "185427.937000", "185427.953000", "185427.953000", "185427.953000", "185427.953000", "185427.953000", "185427.953000", "185427.953000", "185427.968000", "185427.968000", "185427.968000", "185427.968000", "185427.968000", "185427.968000", "185427.968000", "185427.984000", "185427.984000", "185427.984000", "185427.984000", "185427.984000", "185427.984000", "185427.984000", "185428.000000", "185527.937000", "185527.937000", "185527.937000", "185527.937000", "185527.937000", "185527.937000", "185527.937000", "185527.953000", "185527.953000", "185527.953000", "185527.953000", "185527.953000", "185527.953000", "185527.953000", "185527.968000", "185527.968000", "185527.968000", "185527.968000", "185527.968000", "185527.968000", "185527.968000", "185527.984000", "185527.984000", "185527.984000", "185527.984000", "185527.984000", "185527.984000", "185527.984000", "185528.000000", "185627.937000", "185627.937000", "185627.937000", "185627.937000", "185627.937000", "185627.937000", "185627.937000", "185627.953000", "185627.953000", "185627.953000", "185627.953000", "185627.953000", "185627.953000", "185627.953000", "185627.968000", "185627.968000", "185627.968000", "185627.968000", "185627.968000", "185627.968000", "185627.968000", "185627.984000", "185627.984000", "185627.984000", "185627.984000", "185627.984000", "185627.984000", "185627.984000", "185727.937000", "185727.937000", "185727.937000", "185727.937000", "185727.937000", "185727.937000", "185727.937000", "185727.953000", "185727.953000", "185727.953000", "185727.953000", "185727.953000", "185727.953000", "185727.953000", "185727.968000", "185727.968000", "185727.968000", "185727.968000", "185727.968000", "185727.968000", "185727.968000", "185727.984000", "185727.984000", "185727.984000", "185727.984000", "185727.984000", "185727.984000", "185727.984000", "185827.937000", "185827.937000", "185827.937000", "185827.937000", "185827.937000", "185827.937000", "185827.937000", "185827.953000", "185827.953000", "185827.953000", "185827.953000", "185827.953000", "185827.953000", "185827.953000", "185827.968000", "185827.968000", "185827.968000", "185827.968000", "185827.968000", "185827.968000", "185827.968000", "185827.984000", "185827.984000", "185827.984000", "185827.984000", "185827.984000", "185827.984000", "185827.984000", "185927.937000", "185927.937000", "185927.937000", "185927.937000", "185927.937000", "185927.937000", "185927.937000", "185927.953000", "185927.953000", "185927.953000", "185927.953000", "185927.953000", "185927.953000", "185927.968000", "185927.968000", "185927.968000", "185927.968000", "185927.968000", "185927.968000", "185927.968000", "185927.984000", "185927.984000", "185927.984000", "185927.984000", "185927.984000", "185927.984000", "185927.984000", "185928.000000", "190027.937000", "190027.937000", "190027.937000", "190027.937000", "190027.937000", "190027.937000", "190027.937000", "190027.953000", "190027.953000", "190027.953000", "190027.953000", "190027.953000", "190027.953000", "190027.968000", "190027.968000", "190027.968000", "190027.968000", "190027.968000", "190027.968000", "190027.968000", "190027.984000", "190027.984000", "190027.984000", "190027.984000", "190027.984000", "190027.984000", "190027.984000", "190028.000000", "190028.000000", "190127.937000", "190127.937000", "190127.937000", "190127.937000", "190127.937000", "190127.937000", "190127.937000", "190127.953000", "190127.953000", "190127.953000", "190127.953000", "190127.953000", "190127.953000", "190127.953000", "190127.968000", "190127.968000", "190127.968000", "190127.968000", "190127.984000", "190127.984000", "190127.984000", "190127.984000", "190127.984000", "190127.984000", "190127.984000", "190128.000000", "190128.000000", "190128.000000", "190227.937000", "190227.937000", "190227.937000", "190227.937000", "190227.937000", "190227.937000", "190227.937000", "190227.953000", "190227.953000", "190227.953000", "190227.953000", "190227.953000", "190227.953000", "190227.953000", "190227.968000", "190227.968000", "190227.968000", "190227.968000", "190227.968000", "190227.984000", "190227.984000", "190227.984000", "190227.984000", "190227.984000", "190227.984000", "190227.984000", "190228.000000", "190228.000000", "190327.937000", "190327.937000", "190327.937000", "190327.937000", "190327.937000", "190327.937000", "190327.937000", "190327.953000", "190327.953000", "190327.953000", "190327.953000", "190327.953000", "190327.953000", "190327.953000", "190327.968000", "190327.968000", "190327.968000", "190327.968000", "190327.968000", "190327.968000", "190327.968000", "190327.984000", "190327.984000", "190327.984000", "190327.984000", "190327.984000", "190327.984000", "190327.984000", "190328.000000", "190427.937000", "190427.937000", "190427.937000", "190427.937000", "190427.937000", "190427.937000", "190427.937000", "190427.953000", "190427.953000", "190427.953000", "190427.953000", "190427.953000", "190427.953000", "190427.953000", "190427.968000", "190427.968000", "190427.968000", "190427.968000", "190427.968000", "190427.968000", "190427.968000", "190427.984000", "190427.984000", "190427.984000", "190427.984000", "190427.984000", "190427.984000", "190427.984000", "190527.937000", "190527.937000", "190527.937000", "190527.937000", "190527.937000", "190527.937000", "190527.953000", "190527.953000", "190527.953000", "190527.953000", "190527.953000", "190527.953000", "190527.953000", "190527.968000", "190527.968000", "190527.968000", "190527.968000", "190527.968000", "190527.968000", "190527.968000", "190527.984000", "190527.984000", "190527.984000", "190527.984000", "190528.000000", "190528.000000", "190528.000000", "190528.000000", "190556.421000", "190556.421000", "190556.421000", "190556.437000", "190556.437000", "190556.437000", "190556.437000", "190556.437000", "190556.437000", "190556.437000", "190556.453000", "190556.453000", "190556.453000", "190556.453000"],
      "DataSetTrailingPadding": [
        "\u0000\u0000\u0000\u0000\u0000\u0000\u0000\u0000",
        "\u0000\u0000\u0000\u0000",
        "\u0000\u0000\u0000\u0000\u0000\u0000",
        "\u0000\u0000\u0000\u0000",
        "\u0000\u0000\u0000\u0000",
        "\u0000\u0000\u0000\u0000\u0000\u0000\u0000\u0000",
        "\u0000\u0000\u0000\u0000",
        "\u0000\u0000\u0000\u0000\u0000\u0000\u0000\u0000",
        "\u0000\u0000\u0000\u0000\u0000\u0000",
