{
  "AcquisitionMatrixPE": 104,
  "AcquisitionNumber": 1,
  "AcquisitionTime": "16:27:41.730000",
  "BandwidthPerPixelPhaseEncode": 13.935,
  "BaseResolution": 104,
  "CoilString": "C:HEA;HEP",
  "ConversionSoftware": "dcm2niix",
  "ConversionSoftwareVersion": "v1.0.20210317",
  "DerivedVendorReportedEchoSpacing": 0.000690017,
  "DeviceSerialNumber": "35450",
  "DwellTime": 2.5e-06,
  "EchoTime": 0.0348,
  "EffectiveEchoSpacing": 0.000690017,
  "FlipAngle": 55,
  "ImageComments": "Unaliased MB8/PE3",
  "ImageOrientationPatientDICOM": [0.999972, 0.00164686, -0.00730785, -4.64302e-09, 0.975536, 0.219842],
  "ImageType": [
    "ORIGINAL",
    "PRIMARY",
    "M",
    "MB",
    "ND",
    "MOSAIC"
],
  "ImagingFrequency": 123.235,
  "InPlanePhaseEncodingDirectionDICOM": "COL",
  "InstitutionAddress": "Univeristy Ave. 197,Newark,North East,US,07102-1814",
  "InstitutionName": "RUBIC",
  "InstitutionalDepartmentName": "Department",
  "MRAcquisitionType": "2D",
  "MagneticFieldStrength": 3,
  "Manufacturer": "Siemens",
  "ManufacturersModelName": "TrioTim",
  "Modality": "MR",
  "MultibandAccelerationFactor": 8,
  "PartialFourier": 0.875,
  "PatientPosition": "HFS",
  "PercentPhaseFOV": 100,
  "PercentSampling": 100,
  "PhaseEncodingDirection": "j-",
  "PhaseEncodingSteps": 91,
  "PhaseResolution": 1,
  "PixelBandwidth": 1923,
  "ProcedureStepDescription": "Cole^Michael",
  "ProtocolName": "cmrr_mbep2d_bold_2mm_MB8_Task_8x",
  "PulseSequenceDetails": "%CustomerSeq%\\cmrr_mbep2d_bold",
  "ReceiveCoilName": "32Ch_Head",
  "ReconMatrixPE": 104,
  "RepetitionTime": 0.785,
  "SAR": 0.123848,
  "ScanOptions": "PFP\\FS",
  "ScanningSequence": "EP",
  "SequenceName": "epfid2d1_104",
  "SequenceVariant": "SK\\SS",
  "SeriesDescription": "cmrr_mbep2d_bold_2mm_MB8_Task_8x",
  "SeriesNumber": 21,
  "ShimSetting": [2086, -507, -7521, 639, -60, -499, -157, 149],
  "SliceThickness": 2,
  "SliceTiming": [0, 0.4375, 0.0875, 0.525, 0.175, 0.6125, 0.2625, 0.7, 0.35, 0, 0.4375, 0.0875, 0.525, 0.175, 0.6125, 0.2625, 0.7, 0.35, 0, 0.4375, 0.0875, 0.525, 0.175, 0.6125, 0.2625, 0.7, 0.35, 0, 0.4375, 0.0875, 0.525, 0.175, 0.6125, 0.2625, 0.7, 0.35, 0, 0.4375, 0.0875, 0.525, 0.175, 0.6125, 0.2625, 0.7, 0.35, 0, 0.4375, 0.0875, 0.525, 0.175, 0.6125, 0.2625, 0.7, 0.35, 0, 0.4375, 0.0875, 0.525, 0.175, 0.6125, 0.2625, 0.7, 0.35, 0, 0.4375, 0.0875, 0.525, 0.175, 0.6125, 0.2625, 0.7, 0.35],
  "SoftwareVersions": "syngo MR B19",
  "SpacingBetweenSlices": 2,
  "StationName": "MRC35450",
  "TaskName": "cpro",
  "TotalReadoutTime": 0.0710717,
  "TxRefAmp": 325.76,
  "dcmmeta_affine": [
    [-1.9999438524246216, -9.286045710155122e-09, -0.01498223003000021, 102.52422332763672],
    [-0.0032937268260866404, 1.9510711431503296, 0.43967095017433167, -82.05259704589844],
    [-0.014615695923566818, -0.4396832585334778, 1.9510164260864258, -70.2973403930664],
    [0.0, 0.0, 0.0, 1.0]
],
  "dcmmeta_reorient_transform": [
    [0.0, -1.0, 0.0, 103.0],
    [1.0, 0.0, 0.0, 0.0],
    [0.0, 0.0, 1.0, 0.0],
    [0.0, 0.0, 0.0, 1.0]
],
  "dcmmeta_shape": [104, 104, 72, 581],
  "dcmmeta_slice_dim": 2,
  "dcmmeta_version": 0.6,
  "global": {
    "const": {
      "AcquisitionMatrix": [104, 0, 0, 104],
      "AngioFlag": "N",
      "BitsAllocated": 16,
      "BitsStored": 12,
      "Columns": 936,
      "EchoNumbers": 1,
      "EchoTime": 34.8,
      "EchoTrainLength": 1,
      "FlipAngle": 55.0,
      "HighBit": 11,
      "ImageOrientationPatient": [0.99997194120687, 0.00164686340081, -0.0073078478302, -4.643023e-09, 0.97553557443798, 0.2198416316487],
      "ImagePositionPatient": [-934.50087479085, -931.92352162851, -292.41282282596],
      "ImageType": [
        "ORIGINAL",
        "PRIMARY",
        "M",
        "MB",
        "ND",
        "MOSAIC"
],
      "ImagedNucleus": "1H",
      "ImagingFrequency": 123.234671,
      "InPlanePhaseEncodingDirection": "COL",
      "MRAcquisitionType": "2D",
      "MagneticFieldStrength": 3.0,
      "Manufacturer": "SIEMENS",
      "ManufacturerModelName": "TrioTim",
      "Modality": "MR",
      "NumberOfAverages": 1.0,
      "NumberOfPhaseEncodingSteps": 91,
      "PercentPhaseFieldOfView": 100.0,
      "PercentSampling": 100.0,
      "PerformedProcedureStepStartTime": "143941.640000",
      "PhotometricInterpretation": "MONOCHROME2",
      "PixelBandwidth": 1923.0,
      "PixelRepresentation": 0,
      "PixelSpacing": [2.0, 2.0],
      "ProtocolName": "cmrr_mbep2d_bold_2mm_MB8_Task_8x",
      "RepetitionTime": 785.0,
      "Rows": 936,
      "SAR": 0.12384850096629,
      "SamplesPerPixel": 1,
      "ScanOptions": [
        "PFP",
        "FS"
],
      "ScanningSequence": "EP",
      "SequenceName": "epfid2d1_104",
      "SequenceVariant": [
        "SK",
        "SS"
],
      "SeriesDescription": "cmrr_mbep2d_bold_2mm_MB8_Task_8x",
      "SeriesNumber": 21,
      "SeriesTime": "173413.312000",
      "SliceLocation": -87.381721301645,
      "SliceThickness": 2.0,
      "SmallestImagePixelValue": 0,
      "SoftwareVersions": "syngo MR B19",
      "SpacingBetweenSlices": 2.0000000431822,
      "SpecificCharacterSet": "ISO_IR 100",
      "StudyID": "1",
      "StudyTime": "143941.593000",
      "TransmitCoilName": "Body",
      "VariableFlipAngleFlag": "N",
      "WindowCenterWidthExplanation": "Algo1",
      "dBdt": 0.0},
    "slices": {}
  },
  "time": {
    "samples": {
      "AcquisitionNumber": [1, 2, 3, 4, 5, 6, 7, 8, 9, 10, 11, 12, 13, 14, 15, 16, 17, 18, 19, 20, 21, 22, 23, 24, 25, 26, 27, 28, 29, 30, 31, 32, 33, 34, 35, 36, 37, 38, 39, 40, 41, 42, 43, 44, 45, 46, 47, 48, 49, 50, 51, 52, 53, 54, 55, 56, 57, 58, 59, 60, 61, 62, 63, 64, 65, 66, 67, 68, 69, 70, 71, 72, 73, 74, 75, 76, 77, 78, 79, 80, 81, 82, 83, 84, 85, 86, 87, 88, 89, 90, 91, 92, 93, 94, 95, 96, 97, 98, 99, 100, 101, 102, 103, 104, 105, 106, 107, 108, 109, 110, 111, 112, 113, 114, 115, 116, 117, 118, 119, 120, 121, 122, 123, 124, 125, 126, 127, 128, 129, 130, 131, 132, 133, 134, 135, 136, 137, 138, 139, 140, 141, 142, 143, 144, 145, 146, 147, 148, 149, 150, 151, 152, 153, 154, 155, 156, 157, 158, 159, 160, 161, 162, 163, 164, 165, 166, 167, 168, 169, 170, 171, 172, 173, 174, 175, 176, 177, 178, 179, 180, 181, 182, 183, 184, 185, 186, 187, 188, 189, 190, 191, 192, 193, 194, 195, 196, 197, 198, 199, 200, 201, 202, 203, 204, 205, 206, 207, 208, 209, 210, 211, 212, 213, 214, 215, 216, 217, 218, 219, 220, 221, 222, 223, 224, 225, 226, 227, 228, 229, 230, 231, 232, 233, 234, 235, 236, 237, 238, 239, 240, 241, 242, 243, 244, 245, 246, 247, 248, 249, 250, 251, 252, 253, 254, 255, 256, 257, 258, 259, 260, 261, 262, 263, 264, 265, 266, 267, 268, 269, 270, 271, 272, 273, 274, 275, 276, 277, 278, 279, 280, 281, 282, 283, 284, 285, 286, 287, 288, 289, 290, 291, 292, 293, 294, 295, 296, 297, 298, 299, 300, 301, 302, 303, 304, 305, 306, 307, 308, 309, 310, 311, 312, 313, 314, 315, 316, 317, 318, 319, 320, 321, 322, 323, 324, 325, 326, 327, 328, 329, 330, 331, 332, 333, 334, 335, 336, 337, 338, 339, 340, 341, 342, 343, 344, 345, 346, 347, 348, 349, 350, 351, 352, 353, 354, 355, 356, 357, 358, 359, 360, 361, 362, 363, 364, 365, 366, 367, 368, 369, 370, 371, 372, 373, 374, 375, 376, 377, 378, 379, 380, 381, 382, 383, 384, 385, 386, 387, 388, 389, 390, 391, 392, 393, 394, 395, 396, 397, 398, 399, 400, 401, 402, 403, 404, 405, 406, 407, 408, 409, 410, 411, 412, 413, 414, 415, 416, 417, 418, 419, 420, 421, 422, 423, 424, 425, 426, 427, 428, 429, 430, 431, 432, 433, 434, 435, 436, 437, 438, 439, 440, 441, 442, 443, 444, 445, 446, 447, 448, 449, 450, 451, 452, 453, 454, 455, 456, 457, 458, 459, 460, 461, 462, 463, 464, 465, 466, 467, 468, 469, 470, 471, 472, 473, 474, 475, 476, 477, 478, 479, 480, 481, 482, 483, 484, 485, 486, 487, 488, 489, 490, 491, 492, 493, 494, 495, 496, 497, 498, 499, 500, 501, 502, 503, 504, 505, 506, 507, 508, 509, 510, 511, 512, 513, 514, 515, 516, 517, 518, 519, 520, 521, 522, 523, 524, 525, 526, 527, 528, 529, 530, 531, 532, 533, 534, 535, 536, 537, 538, 539, 540, 541, 542, 543, 544, 545, 546, 547, 548, 549, 550, 551, 552, 553, 554, 555, 556, 557, 558, 559, 560, 561, 562, 563, 564, 565, 566, 567, 568, 569, 570, 571, 572, 573, 574, 575, 576, 577, 578, 579, 580, 581],
      "AcquisitionTime": ["162741.730000", "162742.517500", "162743.305000", "162744.095000", "162744.882500", "162745.670000", "162746.457500", "162747.247500", "162748.035000", "162748.822500", "162749.610000", "162750.400000", "162751.187500", "162751.975000", "162752.765000", "162753.552500", "162754.340000", "162755.127500", "162755.917500", "162756.705000", "162757.492500", "162758.280000", "162759.070000", "162759.857500", "162800.645000", "162801.432500", "162802.222500", "162803.010000", "162803.797500", "162804.585000", "162805.375000", "162806.162500", "162806.950000", "162807.737500", "162808.527500", "162809.315000", "162810.102500", "162810.892500", "162811.680000", "162812.467500", "162813.255000", "162814.045000", "162814.832500", "162815.620000", "162816.407500", "162817.197500", "162817.985000", "162818.772500", "162819.560000", "162820.350000", "162821.137500", "162821.925000", "162822.712500", "162823.502500", "162824.290000", "162825.077500", "162825.867500", "162826.655000", "162827.442500", "162828.230000", "162829.020000", "162829.807500", "162830.595000", "162831.382500", "162832.172500", "162832.960000", "162833.747500", "162834.535000", "162835.325000", "162836.112500", "162836.900000", "162837.687500", "162838.477500", "162839.265000", "162840.052500", "162840.840000", "162841.630000", "162842.417500", "162843.205000", "162843.995000", "162844.782500", "162845.570000", "162846.357500", "162847.147500", "162847.935000", "162848.722500", "162849.510000", "162850.300000", "162851.087500", "162851.875000", "162852.662500", "162853.452500", "162854.240000", "162855.027500", "162855.815000", "162856.605000", "162857.392500", "162858.180000", "162858.967500", "162859.757500", "162900.545000", "162901.332500", "162902.122500", "162902.910000", "162903.697500", "162904.485000", "162905.275000", "162906.062500", "162906.850000", "162907.637500", "162908.427500", "162909.215000", "162910.002500", "162910.790000", "162911.580000", "162912.367500", "162913.155000", "162913.942500", "162914.732500", "162915.520000", "162916.307500", "162917.095000", "162917.885000", "162918.672500", "162919.460000", "162920.250000", "162921.037500", "162921.825000", "162922.612500", "162923.402500", "162924.190000", "162924.977500", "162925.765000", "162926.555000", "162927.342500", "162928.130000", "162928.917500", "162929.707500", "162930.495000", "162931.282500", "162932.070000", "162932.860000", "162933.647500", "162934.435000", "162935.222500", "162936.012500", "162936.800000", "162937.587500", "162938.377500", "162939.165000", "162939.952500", "162940.740000", "162941.530000", "162942.317500", "162943.105000", "162943.892500", "162944.682500", "162945.470000", "162946.257500", "162947.045000", "162947.835000", "162948.622500", "162949.410000", "162950.197500", "162950.987500", "162951.775000", "162952.562500", "162953.350000", "162954.140000", "162954.927500", "162955.715000", "162956.505000", "162957.292500", "162958.080000", "162958.867500", "162959.657500", "163000.445000", "163001.232500", "163002.020000", "163002.810000", "163003.597500", "163004.385000", "163005.172500", "163005.962500", "163006.750000", "163007.537500", "163008.325000", "163009.115000", "163009.902500", "163010.690000", "163011.477500", "163012.267500", "163013.055000", "163013.842500", "163014.632500", "163015.420000", "163016.207500", "163016.995000", "163017.785000", "163018.572500", "163019.360000", "163020.147500", "163020.937500", "163021.725000", "163022.512500", "163023.300000", "163024.090000", "163024.877500", "163025.665000", "163026.452500", "163027.242500", "163028.030000", "163028.817500", "163029.605000", "163030.395000", "163031.182500", "163031.970000", "163032.760000", "163033.547500", "163034.335000", "163035.122500", "163035.912500", "163036.700000", "163037.487500", "163038.275000", "163039.065000", "163039.852500", "163040.640000", "163041.427500", "163042.217500", "163043.005000", "163043.792500", "163044.580000", "163045.370000", "163046.157500", "163046.945000", "163047.732500", "163048.522500", "163049.310000", "163050.097500", "163050.887500", "163051.675000", "163052.462500", "163053.250000", "163054.040000", "163054.827500", "163055.615000", "163056.402500", "163057.192500", "163057.980000", "163058.767500", "163059.555000", "163100.345000", "163101.132500", "163101.920000", "163102.707500", "163103.497500", "163104.285000", "163105.072500", "163105.860000", "163106.650000", "163107.437500", "163108.225000", "163109.015000", "163109.802500", "163110.590000", "163111.377500", "163112.167500", "163112.955000", "163113.742500", "163114.530000", "163115.320000", "163116.107500", "163116.895000", "163117.682500", "163118.472500", "163119.260000", "163120.047500", "163120.835000", "163121.625000", "163122.412500", "163123.200000", "163123.987500", "163124.777500", "163125.565000", "163126.352500", "163127.142500", "163127.930000", "163128.717500", "163129.505000", "163130.295000", "163131.082500", "163131.870000", "163132.657500", "163133.447500", "163134.235000", "163135.022500", "163135.810000", "163136.600000", "163137.387500", "163138.175000", "163138.962500", "163139.752500", "163140.540000", "163141.327500", "163142.117500", "163142.905000", "163143.692500", "163144.480000", "163145.270000", "163146.057500", "163146.845000", "163147.632500", "163148.422500", "163149.210000", "163149.997500", "163150.785000", "163151.575000", "163152.362500", "163153.150000", "163153.937500", "163154.727500", "163155.515000", "163156.302500", "163157.090000", "163157.880000", "163158.667500", "163159.455000", "163200.245000", "163201.032500", "163201.820000", "163202.607500", "163203.397500", "163204.185000", "163204.972500", "163205.760000", "163206.550000", "163207.337500", "163208.125000", "163208.912500", "163209.702500", "163210.490000", "163211.277500", "163212.065000", "163212.855000", "163213.642500", "163214.430000", "163215.217500", "163216.007500", "163216.795000", "163217.582500", "163218.372500", "163219.160000", "163219.947500", "163220.735000", "163221.525000", "163222.312500", "163223.100000", "163223.887500", "163224.677500", "163225.465000", "163226.252500", "163227.040000", "163227.830000", "163228.617500", "163229.405000", "163230.192500", "163230.982500", "163231.770000", "163232.557500", "163233.345000", "163234.135000", "163234.922500", "163235.710000", "163236.500000", "163237.287500", "163238.075000", "163238.862500", "163239.652500", "163240.440000", "163241.227500", "163242.015000", "163242.805000", "163243.592500", "163244.380000", "163245.167500", "163245.957500", "163246.745000", "163247.532500", "163248.320000", "163249.110000", "163249.897500", "163250.685000", "163251.472500", "163252.262500", "163253.050000", "163253.837500", "163254.627500", "163255.415000", "163256.202500", "163256.990000", "163257.780000", "163258.567500", "163259.355000", "163300.142500", "163300.932500", "163301.720000", "163302.507500", "163303.295000", "163304.085000", "163304.872500", "163305.660000", "163306.447500", "163307.237500", "163308.025000", "163308.812500", "163309.600000", "163310.390000", "163311.177500", "163311.965000", "163312.755000", "163313.542500", "163314.330000", "163315.117500", "163315.907500", "163316.695000", "163317.482500", "163318.270000", "163319.060000", "163319.847500", "163320.635000", "163321.422500", "163322.212500", "163323.000000", "163323.787500", "163324.575000", "163325.365000", "163326.152500", "163326.940000", "163327.727500", "163328.517500", "163329.305000", "163330.092500", "163330.882500", "163331.670000", "163332.457500", "163333.245000", "163334.035000", "163334.822500", "163335.610000", "163336.397500", "163337.187500", "163337.975000", "163338.762500", "163339.550000", "163340.340000", "163341.127500", "163341.915000", "163342.702500", "163343.492500", "163344.280000", "163345.067500", "163345.855000", "163346.645000", "163347.432500", "163348.220000", "163349.010000", "163349.797500", "163350.585000", "163351.372500", "163352.162500", "163352.950000", "163353.737500", "163354.525000", "163355.315000", "163356.102500", "163356.890000", "163357.677500", "163358.467500", "163359.255000", "163400.042500", "163400.830000", "163401.620000", "163402.407500", "163403.195000", "163403.982500", "163404.772500", "163405.560000", "163406.347500", "163407.137500", "163407.925000", "163408.712500", "163409.500000", "163410.290000", "163411.077500", "163411.865000", "163412.652500", "163413.442500", "163414.230000", "163415.017500", "163415.805000", "163416.595000", "163417.382500", "163418.170000", "163418.957500", "163419.747500", "163420.535000", "163421.322500", "163422.110000", "163422.900000", "163423.687500", "163424.475000", "163425.265000", "163426.052500", "163426.840000", "163427.627500", "163428.417500", "163429.205000", "163429.992500", "163430.780000", "163431.570000", "163432.357500", "163433.145000", "163433.932500", "163434.722500", "163435.510000", "163436.297500", "163437.085000", "163437.875000", "163438.662500", "163439.450000", "163440.237500", "163441.027500", "163441.815000", "163442.602500", "163443.392500", "163444.180000", "163444.967500", "163445.755000", "163446.545000", "163447.332500", "163448.120000", "163448.907500", "163449.697500", "163450.485000", "163451.272500", "163452.060000", "163452.850000", "163453.637500", "163454.425000", "163455.212500", "163456.002500", "163456.790000", "163457.577500", "163458.367500", "163459.155000", "163459.942500", "163500.730000", "163501.520000", "163502.307500", "163503.095000", "163503.882500", "163504.672500", "163505.460000", "163506.247500", "163507.035000", "163507.825000", "163508.612500", "163509.400000", "163510.187500", "163510.977500", "163511.765000", "163512.552500", "163513.340000", "163514.130000", "163514.917500", "163515.705000", "163516.495000", "163517.282500", "163518.070000", "163518.857500"],
      "ContentTime": ["173413.328000", "173413.328000", "173413.328000", "173413.328000", "173413.328000", "173413.328000", "173413.328000", "173513.296000", "173513.296000", "173513.296000", "173513.296000", "173513.312000", "173513.312000", "173513.312000", "173513.312000", "173513.312000", "173513.312000", "173513.328000", "173513.328000", "173513.328000", "173513.328000", "173513.328000", "173513.328000", "173513.328000", "173513.343000", "173513.343000", "173513.343000", "173513.343000", "173513.343000", "173513.343000", "173513.343000", "173513.359000", "173513.359000", "173513.359000", "173513.359000", "173513.359000", "173613.296000", "173613.296000", "173613.296000", "173613.296000", "173613.312000", "173613.312000", "173613.312000", "173613.312000", "173613.312000", "173613.312000", "173613.312000", "173613.328000", "173613.328000", "173613.328000", "173613.328000", "173613.328000", "173613.328000", "173613.328000", "173613.343000", "173613.343000", "173613.343000", "173613.343000", "173613.359000", "173613.359000", "173613.359000", "173613.359000", "173613.359000", "173613.359000", "173713.296000", "173713.296000", "173713.296000", "173713.296000", "173713.312000", "173713.312000", "173713.312000", "173713.312000", "173713.312000", "173713.312000", "173713.312000", "173713.328000", "173713.328000", "173713.328000", "173713.328000", "173713.328000", "173713.328000", "173713.328000", "173713.343000", "173713.343000", "173713.343000", "173713.343000", "173713.343000", "173713.343000", "173713.343000", "173713.359000", "173713.359000", "173713.359000", "173753.296000", "173753.296000", "173753.296000", "173753.296000", "173753.312000", "173753.312000", "173753.312000", "173753.312000", "173753.312000", "173753.312000", "173753.312000", "173753.328000", "173753.328000", "173753.328000", "173753.328000", "173753.328000", "173753.328000", "173753.343000", "173753.343000", "173853.296000", "173853.296000", "173853.296000", "173853.312000", "173853.312000", "173853.312000", "173853.312000", "173853.312000", "173853.312000", "173853.328000", "173853.328000", "173853.328000", "173853.328000", "173853.328000", "173853.328000", "173853.328000", "173853.328000", "173853.343000", "173853.343000", "173853.343000", "173853.343000", "173853.343000", "173853.343000", "173853.343000", "173853.359000", "173853.359000", "173853.359000", "173853.359000", "173953.296000", "173953.296000", "173953.296000", "173953.312000", "173953.312000", "173953.312000", "173953.312000", "173953.312000", "173953.312000", "173953.312000", "173953.328000", "173953.328000", "173953.328000", "173953.328000", "173953.328000", "173953.328000", "173953.328000", "173953.343000", "173953.343000", "173953.343000", "173953.343000", "173953.343000", "173953.343000", "173953.343000", "173953.359000", "173953.359000", "173953.359000", "173953.359000", "173953.359000", "174053.296000", "174053.296000", "174053.296000", "174053.296000", "174053.312000", "174053.312000", "174053.312000", "174053.312000", "174053.312000", "174053.312000", "174053.312000", "174053.328000", "174053.328000", "174053.328000", "174053.328000", "174053.328000", "174053.328000", "174053.328000", "174053.343000", "174053.343000", "174053.343000", "174053.343000", "174053.343000", "174053.343000", "174053.359000", "174053.359000", "174053.359000", "174053.359000", "174153.296000", "174153.296000", "174153.296000", "174153.312000", "174153.312000", "174153.312000", "174153.312000", "174153.312000", "174153.312000", "174153.312000", "174153.328000", "174153.328000", "174153.328000", "174153.328000", "174153.328000", "174153.328000", "174153.328000", "174153.343000", "174153.343000", "174153.343000", "174153.343000", "174153.343000", "174153.343000", "174153.343000", "174153.359000", "174153.359000", "174153.359000", "174153.359000", "174253.296000", "174253.296000", "174253.296000", "174253.312000", "174253.312000", "174253.312000", "174253.312000", "174253.312000", "174253.312000", "174253.312000", "174253.328000", "174253.328000", "174253.328000", "174253.328000", "174253.328000", "174253.328000", "174253.328000", "174253.343000", "174253.343000", "174253.343000", "174253.343000", "174253.343000", "174253.359000", "174253.359000", "174253.359000", "174253.359000", "174253.359000", "174253.359000", "174353.296000", "174353.296000", "174353.296000", "174353.296000", "174353.312000", "174353.312000", "174353.312000", "174353.312000", "174353.312000", "174353.312000", "174353.328000", "174353.328000", "174353.328000", "174353.328000", "174353.328000", "174353.328000", "174353.328000", "174353.343000", "174353.343000", "174353.343000", "174353.343000", "174353.343000", "174353.343000", "174353.343000", "174353.359000", "174353.359000", "174353.359000", "174353.359000", "174453.296000", "174453.296000", "174453.296000", "174453.312000", "174453.312000", "174453.312000", "174453.312000", "174453.312000", "174453.312000", "174453.312000", "174453.328000", "174453.328000", "174453.328000", "174453.328000", "174453.328000", "174453.328000", "174453.328000", "174453.343000", "174453.343000", "174453.343000", "174453.343000", "174453.343000", "174453.343000", "174453.359000", "174453.359000", "174453.359000", "174453.359000", "174453.359000", "174453.359000", "174553.296000", "174553.296000", "174553.296000", "174553.312000", "174553.312000", "174553.312000", "174553.312000", "174553.312000", "174553.312000", "174553.312000", "174553.328000", "174553.328000", "174553.328000", "174553.328000", "174553.328000", "174553.328000", "174553.343000", "174553.343000", "174553.343000", "174553.343000", "174553.343000", "174553.343000", "174553.359000", "174553.359000", "174553.359000", "174553.359000", "174553.359000", "174553.359000", "174653.296000", "174653.296000", "174653.296000", "174653.312000", "174653.312000", "174653.312000", "174653.312000", "174653.312000", "174653.312000", "174653.312000", "174653.328000", "174653.328000", "174653.328000", "174653.328000", "174653.328000", "174653.328000", "174653.328000", "174653.343000", "174653.343000", "174653.343000", "174653.343000", "174653.343000", "174653.343000", "174653.343000", "174653.359000", "174653.359000", "174653.359000", "174653.359000", "174733.296000", "174733.296000", "174733.296000", "174733.312000", "174733.312000", "174733.312000", "174733.312000", "174733.312000", "174733.312000", "174733.312000", "174733.328000", "174733.328000", "174733.328000", "174733.328000", "174733.328000", "174733.328000", "174733.328000", "174733.343000", "174733.343000", "174833.296000", "174833.296000", "174833.296000", "174833.296000", "174833.312000", "174833.312000", "174833.312000", "174833.312000", "174833.312000", "174833.312000", "174833.328000", "174833.328000", "174833.328000", "174833.328000", "174833.328000", "174833.328000", "174833.328000", "174833.343000", "174833.343000", "174833.343000", "174833.343000", "174833.343000", "174833.343000", "174833.343000", "174833.359000", "174833.359000", "174833.359000", "174833.359000", "174833.359000", "174933.296000", "174933.296000", "174933.296000", "174933.296000", "174933.312000", "174933.312000", "174933.312000", "174933.312000", "174933.312000", "174933.312000", "174933.328000", "174933.328000", "174933.328000", "174933.328000", "174933.328000", "174933.328000", "174933.328000", "174933.343000", "174933.343000", "174933.343000", "174933.343000", "174933.343000", "174933.343000", "174933.343000", "174933.359000", "174933.359000", "174933.359000", "174933.359000", "175033.296000", "175033.296000", "175033.296000", "175033.296000", "175033.312000", "175033.312000", "175033.312000", "175033.312000", "175033.312000", "175033.312000", "175033.328000", "175033.328000", "175033.328000", "175033.328000", "175033.328000", "175033.328000", "175033.328000", "175033.343000", "175033.343000", "175033.343000", "175033.343000", "175033.343000", "175033.343000", "175033.343000", "175033.359000", "175033.359000", "175033.359000", "175033.359000", "175133.296000", "175133.296000", "175133.296000", "175133.312000", "175133.312000", "175133.312000", "175133.312000", "175133.312000", "175133.312000", "175133.312000", "175133.328000", "175133.328000", "175133.328000", "175133.328000", "175133.328000", "175133.328000", "175133.328000", "175133.343000", "175133.343000", "175133.343000", "175133.343000", "175133.343000", "175133.343000", "175133.343000", "175133.359000", "175133.359000", "175133.359000", "175133.359000", "175233.296000", "175233.296000", "175233.296000", "175233.312000", "175233.312000", "175233.312000", "175233.312000", "175233.312000", "175233.312000", "175233.312000", "175233.328000", "175233.328000", "175233.328000", "175233.328000", "175233.328000", "175233.328000", "175233.328000", "175233.343000", "175233.343000", "175233.343000", "175233.343000", "175233.343000", "175233.343000", "175233.343000", "175233.359000", "175233.359000", "175233.359000", "175233.359000", "175333.296000", "175333.296000", "175333.296000", "175333.312000", "175333.312000", "175333.312000", "175333.312000", "175333.312000", "175333.312000", "175333.312000", "175333.328000", "175333.328000", "175333.328000", "175333.328000", "175333.328000", "175333.328000", "175333.328000", "175333.343000", "175333.343000", "175333.343000", "175333.343000", "175333.343000", "175333.343000", "175333.343000", "175333.359000", "175333.359000", "175333.359000", "175333.359000", "175333.359000", "175429.734000", "175429.734000", "175429.734000", "175429.734000", "175429.734000", "175429.734000", "175429.750000", "175429.750000", "175429.750000", "175429.750000", "175429.765000", "175429.765000", "175429.765000", "175429.765000", "175429.765000", "175429.765000", "175429.765000", "175429.781000", "175429.781000", "175429.781000", "175429.781000", "175429.781000", "175429.781000", "175429.796000", "175429.796000", "175429.796000", "175429.796000"],
