{
  "AcquisitionMatrixPE": 104,
  "AcquisitionNumber": 1,
  "AcquisitionTime": "16:19:26.727500",
  "BandwidthPerPixelPhaseEncode": 13.935,
  "BaseResolution": 104,
  "CoilString": "C:HEA;HEP",
  "ConversionSoftware": "dcm2niix",
  "ConversionSoftwareVersion": "v1.0.20210317",
  "DerivedVendorReportedEchoSpacing": 0.000690017,
  "DeviceSerialNumber": "35450",
  "DwellTime": 2.5e-06,
  "EchoTime": 0.0348,
  "EffectiveEchoSpacing": 0.000690017,
  "FlipAngle": 55,
  "ImageComments": "Unaliased MB8/PE3",
  "ImageOrientationPatientDICOM": [0.999972, 0.00164686, -0.00730785, -4.64302e-09, 0.975536, 0.219842],
  "ImageType": [
    "ORIGINAL",
    "PRIMARY",
    "M",
    "MB",
    "ND",
    "MOSAIC"
],
  "ImagingFrequency": 123.235,
  "InPlanePhaseEncodingDirectionDICOM": "COL",
  "InstitutionAddress": "Univeristy Ave. 197,Newark,North East,US,07102-1814",
  "InstitutionName": "RUBIC",
  "InstitutionalDepartmentName": "Department",
  "MRAcquisitionType": "2D",
  "MagneticFieldStrength": 3,
  "Manufacturer": "Siemens",
  "ManufacturersModelName": "TrioTim",
  "Modality": "MR",
  "MultibandAccelerationFactor": 8,
  "PartialFourier": 0.875,
  "PatientPosition": "HFS",
  "PercentPhaseFOV": 100,
  "PercentSampling": 100,
  "PhaseEncodingDirection": "j-",
  "PhaseEncodingSteps": 91,
  "PhaseResolution": 1,
  "PixelBandwidth": 1923,
  "ProcedureStepDescription": "Cole^Michael",
  "ProtocolName": "cmrr_mbep2d_bold_2mm_MB8_Task_8x",
  "PulseSequenceDetails": "%CustomerSeq%\\cmrr_mbep2d_bold",
  "ReceiveCoilName": "32Ch_Head",
  "ReconMatrixPE": 104,
  "RepetitionTime": 0.785,
  "SAR": 0.123848,
  "ScanOptions": "PFP\\FS",
  "ScanningSequence": "EP",
  "SequenceName": "epfid2d1_104",
  "SequenceVariant": "SK\\SS",
  "SeriesDescription": "cmrr_mbep2d_bold_2mm_MB8_Task_8x",
  "SeriesNumber": 19,
  "ShimSetting": [2086, -507, -7521, 639, -60, -499, -157, 149],
  "SliceThickness": 2,
  "SliceTiming": [0, 0.4375, 0.0875, 0.525, 0.175, 0.6125, 0.2625, 0.7, 0.35, 0, 0.4375, 0.0875, 0.525, 0.175, 0.6125, 0.2625, 0.7, 0.35, 0, 0.4375, 0.0875, 0.525, 0.175, 0.6125, 0.2625, 0.7, 0.35, 0, 0.4375, 0.0875, 0.525, 0.175, 0.6125, 0.2625, 0.7, 0.35, 0, 0.4375, 0.0875, 0.525, 0.175, 0.6125, 0.2625, 0.7, 0.35, 0, 0.4375, 0.0875, 0.525, 0.175, 0.6125, 0.2625, 0.7, 0.35, 0, 0.4375, 0.0875, 0.525, 0.175, 0.6125, 0.2625, 0.7, 0.35, 0, 0.4375, 0.0875, 0.525, 0.175, 0.6125, 0.2625, 0.7, 0.35],
  "SoftwareVersions": "syngo MR B19",
  "SpacingBetweenSlices": 2,
  "StationName": "MRC35450",
  "TaskName": "cpro",
  "TotalReadoutTime": 0.0710717,
  "TxRefAmp": 325.76,
  "dcmmeta_affine": [
    [-1.9999438524246216, -9.286045710155122e-09, -0.01498223003000021, 102.52422332763672],
    [-0.0032937268260866404, 1.9510711431503296, 0.43967095017433167, -82.05259704589844],
    [-0.014615695923566818, -0.4396832585334778, 1.9510164260864258, -70.2973403930664],
    [0.0, 0.0, 0.0, 1.0]
],
  "dcmmeta_reorient_transform": [
    [0.0, -1.0, 0.0, 103.0],
    [1.0, 0.0, 0.0, 0.0],
    [0.0, 0.0, 1.0, 0.0],
    [0.0, 0.0, 0.0, 1.0]
],
  "dcmmeta_shape": [104, 104, 72, 581],
  "dcmmeta_slice_dim": 2,
  "dcmmeta_version": 0.6,
  "global": {
    "const": {
      "AcquisitionMatrix": [104, 0, 0, 104],
      "AngioFlag": "N",
      "BitsAllocated": 16,
      "BitsStored": 12,
      "Columns": 936,
      "EchoNumbers": 1,
      "EchoTime": 34.8,
      "EchoTrainLength": 1,
      "FlipAngle": 55.0,
      "HighBit": 11,
      "ImageOrientationPatient": [0.99997194120687, 0.00164686340081, -0.0073078478302, -4.643023e-09, 0.97553557443798, 0.2198416316487],
      "ImagePositionPatient": [-934.50087479085, -931.92352162851, -292.41282282596],
      "ImageType": [
        "ORIGINAL",
        "PRIMARY",
        "M",
        "MB",
        "ND",
        "MOSAIC"
],
      "ImagedNucleus": "1H",
      "ImagingFrequency": 123.234671,
      "InPlanePhaseEncodingDirection": "COL",
      "MRAcquisitionType": "2D",
      "MagneticFieldStrength": 3.0,
      "Manufacturer": "SIEMENS",
      "ManufacturerModelName": "TrioTim",
      "Modality": "MR",
      "NumberOfAverages": 1.0,
      "NumberOfPhaseEncodingSteps": 91,
      "PercentPhaseFieldOfView": 100.0,
      "PercentSampling": 100.0,
      "PerformedProcedureStepStartTime": "143941.640000",
      "PhotometricInterpretation": "MONOCHROME2",
      "PixelBandwidth": 1923.0,
      "PixelRepresentation": 0,
      "PixelSpacing": [2.0, 2.0],
      "ProtocolName": "cmrr_mbep2d_bold_2mm_MB8_Task_8x",
      "RepetitionTime": 785.0,
      "Rows": 936,
      "SAR": 0.12384850096629,
      "SamplesPerPixel": 1,
      "ScanOptions": [
        "PFP",
        "FS"
],
      "ScanningSequence": "EP",
      "SequenceName": "epfid2d1_104",
      "SequenceVariant": [
        "SK",
        "SS"
],
      "SeriesDescription": "cmrr_mbep2d_bold_2mm_MB8_Task_8x",
      "SeriesNumber": 19,
      "SeriesTime": "171327.765000",
      "SliceLocation": -87.381721301645,
      "SliceThickness": 2.0,
      "SmallestImagePixelValue": 0,
      "SoftwareVersions": "syngo MR B19",
      "SpacingBetweenSlices": 2.0000000431822,
      "SpecificCharacterSet": "ISO_IR 100",
      "StudyID": "1",
      "StudyTime": "143941.593000",
      "TransmitCoilName": "Body",
      "VariableFlipAngleFlag": "N",
      "WindowCenterWidthExplanation": "Algo1",
      "dBdt": 0.0},
    "slices": {}
  },
  "time": {
    "samples": {
      "AcquisitionNumber": [1, 2, 3, 4, 5, 6, 7, 8, 9, 10, 11, 12, 13, 14, 15, 16, 17, 18, 19, 20, 21, 22, 23, 24, 25, 26, 27, 28, 29, 30, 31, 32, 33, 34, 35, 36, 37, 38, 39, 40, 41, 42, 43, 44, 45, 46, 47, 48, 49, 50, 51, 52, 53, 54, 55, 56, 57, 58, 59, 60, 61, 62, 63, 64, 65, 66, 67, 68, 69, 70, 71, 72, 73, 74, 75, 76, 77, 78, 79, 80, 81, 82, 83, 84, 85, 86, 87, 88, 89, 90, 91, 92, 93, 94, 95, 96, 97, 98, 99, 100, 101, 102, 103, 104, 105, 106, 107, 108, 109, 110, 111, 112, 113, 114, 115, 116, 117, 118, 119, 120, 121, 122, 123, 124, 125, 126, 127, 128, 129, 130, 131, 132, 133, 134, 135, 136, 137, 138, 139, 140, 141, 142, 143, 144, 145, 146, 147, 148, 149, 150, 151, 152, 153, 154, 155, 156, 157, 158, 159, 160, 161, 162, 163, 164, 165, 166, 167, 168, 169, 170, 171, 172, 173, 174, 175, 176, 177, 178, 179, 180, 181, 182, 183, 184, 185, 186, 187, 188, 189, 190, 191, 192, 193, 194, 195, 196, 197, 198, 199, 200, 201, 202, 203, 204, 205, 206, 207, 208, 209, 210, 211, 212, 213, 214, 215, 216, 217, 218, 219, 220, 221, 222, 223, 224, 225, 226, 227, 228, 229, 230, 231, 232, 233, 234, 235, 236, 237, 238, 239, 240, 241, 242, 243, 244, 245, 246, 247, 248, 249, 250, 251, 252, 253, 254, 255, 256, 257, 258, 259, 260, 261, 262, 263, 264, 265, 266, 267, 268, 269, 270, 271, 272, 273, 274, 275, 276, 277, 278, 279, 280, 281, 282, 283, 284, 285, 286, 287, 288, 289, 290, 291, 292, 293, 294, 295, 296, 297, 298, 299, 300, 301, 302, 303, 304, 305, 306, 307, 308, 309, 310, 311, 312, 313, 314, 315, 316, 317, 318, 319, 320, 321, 322, 323, 324, 325, 326, 327, 328, 329, 330, 331, 332, 333, 334, 335, 336, 337, 338, 339, 340, 341, 342, 343, 344, 345, 346, 347, 348, 349, 350, 351, 352, 353, 354, 355, 356, 357, 358, 359, 360, 361, 362, 363, 364, 365, 366, 367, 368, 369, 370, 371, 372, 373, 374, 375, 376, 377, 378, 379, 380, 381, 382, 383, 384, 385, 386, 387, 388, 389, 390, 391, 392, 393, 394, 395, 396, 397, 398, 399, 400, 401, 402, 403, 404, 405, 406, 407, 408, 409, 410, 411, 412, 413, 414, 415, 416, 417, 418, 419, 420, 421, 422, 423, 424, 425, 426, 427, 428, 429, 430, 431, 432, 433, 434, 435, 436, 437, 438, 439, 440, 441, 442, 443, 444, 445, 446, 447, 448, 449, 450, 451, 452, 453, 454, 455, 456, 457, 458, 459, 460, 461, 462, 463, 464, 465, 466, 467, 468, 469, 470, 471, 472, 473, 474, 475, 476, 477, 478, 479, 480, 481, 482, 483, 484, 485, 486, 487, 488, 489, 490, 491, 492, 493, 494, 495, 496, 497, 498, 499, 500, 501, 502, 503, 504, 505, 506, 507, 508, 509, 510, 511, 512, 513, 514, 515, 516, 517, 518, 519, 520, 521, 522, 523, 524, 525, 526, 527, 528, 529, 530, 531, 532, 533, 534, 535, 536, 537, 538, 539, 540, 541, 542, 543, 544, 545, 546, 547, 548, 549, 550, 551, 552, 553, 554, 555, 556, 557, 558, 559, 560, 561, 562, 563, 564, 565, 566, 567, 568, 569, 570, 571, 572, 573, 574, 575, 576, 577, 578, 579, 580, 581],
      "AcquisitionTime": ["161926.727500", "161927.515000", "161928.302500", "161929.092500", "161929.880000", "161930.667500", "161931.455000", "161932.245000", "161933.032500", "161933.820000", "161934.607500", "161935.397500", "161936.185000", "161936.972500", "161937.760000", "161938.550000", "161939.337500", "161940.125000", "161940.912500", "161941.702500", "161942.490000", "161943.277500", "161944.065000", "161944.855000", "161945.642500", "161946.430000", "161947.220000", "161948.007500", "161948.795000", "161949.582500", "161950.372500", "161951.160000", "161951.947500", "161952.735000", "161953.525000", "161954.312500", "161955.100000", "161955.887500", "161956.677500", "161957.465000", "161958.252500", "161959.040000", "161959.830000", "162000.617500", "162001.405000", "162002.192500", "162002.982500", "162003.770000", "162004.557500", "162005.347500", "162006.135000", "162006.922500", "162007.710000", "162008.500000", "162009.287500", "162010.075000", "162010.862500", "162011.652500", "162012.440000", "162013.227500", "162014.015000", "162014.805000", "162015.592500", "162016.380000", "162017.167500", "162017.957500", "162018.745000", "162019.532500", "162020.320000", "162021.110000", "162021.897500", "162022.685000", "162023.475000", "162024.262500", "162025.050000", "162025.837500", "162026.627500", "162027.415000", "162028.202500", "162028.990000", "162029.780000", "162030.567500", "162031.355000", "162032.142500", "162032.932500", "162033.720000", "162034.507500", "162035.295000", "162036.085000", "162036.872500", "162037.660000", "162038.450000", "162039.237500", "162040.025000", "162040.812500", "162041.602500", "162042.390000", "162043.177500", "162043.965000", "162044.755000", "162045.542500", "162046.330000", "162047.117500", "162047.907500", "162048.695000", "162049.482500", "162050.270000", "162051.060000", "162051.847500", "162052.635000", "162053.422500", "162054.212500", "162055.000000", "162055.787500", "162056.577500", "162057.365000", "162058.152500", "162058.940000", "162059.730000", "162100.517500", "162101.305000", "162102.092500", "162102.882500", "162103.670000", "162104.457500", "162105.245000", "162106.035000", "162106.822500", "162107.610000", "162108.397500", "162109.187500", "162109.975000", "162110.762500", "162111.550000", "162112.340000", "162113.127500", "162113.915000", "162114.705000", "162115.492500", "162116.280000", "162117.067500", "162117.857500", "162118.645000", "162119.432500", "162120.220000", "162121.010000", "162121.797500", "162122.585000", "162123.372500", "162124.162500", "162124.950000", "162125.737500", "162126.525000", "162127.315000", "162128.102500", "162128.890000", "162129.677500", "162130.467500", "162131.255000", "162132.042500", "162132.832500", "162133.620000", "162134.407500", "162135.195000", "162135.985000", "162136.772500", "162137.560000", "162138.347500", "162139.137500", "162139.925000", "162140.712500", "162141.500000", "162142.290000", "162143.077500", "162143.865000", "162144.652500", "162145.442500", "162146.230000", "162147.017500", "162147.805000", "162148.595000", "162149.382500", "162150.170000", "162150.960000", "162151.747500", "162152.535000", "162153.322500", "162154.112500", "162154.900000", "162155.687500", "162156.475000", "162157.265000", "162158.052500", "162158.840000", "162159.627500", "162200.417500", "162201.205000", "162201.992500", "162202.780000", "162203.570000", "162204.357500", "162205.145000", "162205.932500", "162206.722500", "162207.510000", "162208.297500", "162209.087500", "162209.875000", "162210.662500", "162211.450000", "162212.240000", "162213.027500", "162213.815000", "162214.602500", "162215.392500", "162216.180000", "162216.967500", "162217.755000", "162218.545000", "162219.332500", "162220.120000", "162220.907500", "162221.697500", "162222.485000", "162223.272500", "162224.060000", "162224.850000", "162225.637500", "162226.425000", "162227.215000", "162228.002500", "162228.790000", "162229.577500", "162230.367500", "162231.155000", "162231.942500", "162232.730000", "162233.520000", "162234.307500", "162235.095000", "162235.882500", "162236.672500", "162237.460000", "162238.247500", "162239.035000", "162239.825000", "162240.612500", "162241.400000", "162242.187500", "162242.977500", "162243.765000", "162244.552500", "162245.342500", "162246.130000", "162246.917500", "162247.705000", "162248.495000", "162249.282500", "162250.070000", "162250.857500", "162251.647500", "162252.435000", "162253.222500", "162254.010000", "162254.800000", "162255.587500", "162256.375000", "162257.162500", "162257.952500", "162258.740000", "162259.527500", "162300.315000", "162301.105000", "162301.892500", "162302.680000", "162303.470000", "162304.257500", "162305.045000", "162305.832500", "162306.622500", "162307.410000", "162308.197500", "162308.985000", "162309.775000", "162310.562500", "162311.350000", "162312.137500", "162312.927500", "162313.715000", "162314.502500", "162315.290000", "162316.080000", "162316.867500", "162317.655000", "162318.442500", "162319.232500", "162320.020000", "162320.807500", "162321.597500", "162322.385000", "162323.172500", "162323.960000", "162324.750000", "162325.537500", "162326.325000", "162327.112500", "162327.902500", "162328.690000", "162329.477500", "162330.265000", "162331.055000", "162331.842500", "162332.630000", "162333.417500", "162334.207500", "162334.995000", "162335.782500", "162336.570000", "162337.360000", "162338.147500", "162338.935000", "162339.725000", "162340.512500", "162341.300000", "162342.087500", "162342.877500", "162343.665000", "162344.452500", "162345.240000", "162346.030000", "162346.817500", "162347.605000", "162348.392500", "162349.182500", "162349.970000", "162350.757500", "162351.545000", "162352.335000", "162353.122500", "162353.910000", "162354.700000", "162355.487500", "162356.275000", "162357.062500", "162357.852500", "162358.640000", "162359.427500", "162400.215000", "162401.005000", "162401.792500", "162402.580000", "162403.367500", "162404.157500", "162404.945000", "162405.732500", "162406.520000", "162407.310000", "162408.097500", "162408.885000", "162409.672500", "162410.462500", "162411.250000", "162412.037500", "162412.827500", "162413.615000", "162414.402500", "162415.190000", "162415.980000", "162416.767500", "162417.555000", "162418.342500", "162419.132500", "162419.920000", "162420.707500", "162421.495000", "162422.285000", "162423.072500", "162423.860000", "162424.647500", "162425.437500", "162426.225000", "162427.012500", "162427.800000", "162428.590000", "162429.377500", "162430.165000", "162430.955000", "162431.742500", "162432.530000", "162433.317500", "162434.107500", "162434.895000", "162435.682500", "162436.470000", "162437.260000", "162438.047500", "162438.835000", "162439.622500", "162440.412500", "162441.200000", "162441.987500", "162442.775000", "162443.565000", "162444.352500", "162445.140000", "162445.927500", "162446.717500", "162447.505000", "162448.292500", "162449.082500", "162449.870000", "162450.657500", "162451.445000", "162452.235000", "162453.022500", "162453.810000", "162454.597500", "162455.387500", "162456.175000", "162456.962500", "162457.750000", "162458.540000", "162459.327500", "162500.115000", "162500.902500", "162501.692500", "162502.480000", "162503.267500", "162504.055000", "162504.845000", "162505.632500", "162506.420000", "162507.210000", "162507.997500", "162508.785000", "162509.572500", "162510.362500", "162511.150000", "162511.937500", "162512.725000", "162513.515000", "162514.302500", "162515.090000", "162515.877500", "162516.667500", "162517.455000", "162518.242500", "162519.030000", "162519.820000", "162520.607500", "162521.395000", "162522.182500", "162522.972500", "162523.760000", "162524.547500", "162525.337500", "162526.125000", "162526.912500", "162527.700000", "162528.490000", "162529.277500", "162530.065000", "162530.852500", "162531.642500", "162532.430000", "162533.217500", "162534.005000", "162534.795000", "162535.582500", "162536.370000", "162537.157500", "162537.947500", "162538.735000", "162539.522500", "162540.310000", "162541.100000", "162541.887500", "162542.675000", "162543.465000", "162544.252500", "162545.040000", "162545.827500", "162546.617500", "162547.405000", "162548.192500", "162548.980000", "162549.770000", "162550.557500", "162551.345000", "162552.132500", "162552.922500", "162553.710000", "162554.497500", "162555.285000", "162556.075000", "162556.862500", "162557.650000", "162558.437500", "162559.227500", "162600.015000", "162600.802500", "162601.592500", "162602.380000", "162603.167500", "162603.955000", "162604.745000", "162605.532500", "162606.320000", "162607.107500", "162607.897500", "162608.685000", "162609.472500", "162610.260000", "162611.050000", "162611.837500", "162612.625000", "162613.412500", "162614.202500", "162614.990000", "162615.777500", "162616.565000", "162617.355000", "162618.142500", "162618.930000", "162619.720000", "162620.507500", "162621.295000", "162622.082500", "162622.872500", "162623.660000", "162624.447500", "162625.235000", "162626.025000", "162626.812500", "162627.600000", "162628.387500", "162629.177500", "162629.965000", "162630.752500", "162631.540000", "162632.330000", "162633.117500", "162633.905000", "162634.692500", "162635.482500", "162636.270000", "162637.057500", "162637.847500", "162638.635000", "162639.422500", "162640.210000", "162641.000000", "162641.787500", "162642.575000", "162643.362500", "162644.152500", "162644.940000", "162645.727500", "162646.515000", "162647.305000", "162648.092500", "162648.880000", "162649.667500", "162650.457500", "162651.245000", "162652.032500", "162652.820000", "162653.610000", "162654.397500", "162655.185000", "162655.975000", "162656.762500", "162657.550000", "162658.337500", "162659.127500", "162659.915000", "162700.702500", "162701.490000", "162702.280000", "162703.067500", "162703.855000"],
      "ContentTime": ["171327.765000", "171327.781000", "171327.781000", "171327.781000", "171327.781000", "171327.781000", "171327.781000", "171327.781000", "171327.796000", "171427.750000", "171427.750000", "171427.750000", "171427.765000", "171427.765000", "171427.765000", "171427.765000", "171427.765000", "171427.765000", "171427.765000", "171427.781000", "171427.781000", "171427.781000", "171427.781000", "171427.781000", "171427.781000", "171427.781000", "171427.796000", "171427.796000", "171427.796000", "171427.812000", "171427.812000", "171427.812000", "171427.812000", "171427.812000", "171427.812000", "171427.812000", "171427.828000", "171527.750000", "171527.750000", "171527.750000", "171527.750000", "171527.765000", "171527.765000", "171527.765000", "171527.765000", "171527.765000", "171527.765000", "171527.765000", "171527.781000", "171527.781000", "171527.781000", "171527.781000", "171527.781000", "171527.781000", "171527.796000", "171527.796000", "171527.796000", "171527.796000", "171527.796000", "171527.796000", "171527.812000", "171527.812000", "171527.812000", "171527.812000", "171527.812000", "171527.812000", "171627.750000", "171627.750000", "171627.750000", "171627.750000", "171627.765000", "171627.765000", "171627.765000", "171627.765000", "171627.765000", "171627.765000", "171627.781000", "171627.781000", "171627.781000", "171627.781000", "171627.781000", "171627.781000", "171627.781000", "171627.796000", "171627.796000", "171627.796000", "171627.796000", "171627.796000", "171627.796000", "171627.796000", "171627.812000", "171627.812000", "171627.812000", "171627.812000", "171727.750000", "171727.750000", "171727.750000", "171727.750000", "171727.765000", "171727.765000", "171727.765000", "171727.765000", "171727.765000", "171727.765000", "171727.765000", "171727.781000", "171727.781000", "171727.781000", "171727.781000", "171727.781000", "171727.781000", "171727.781000", "171727.796000", "171727.796000", "171727.796000", "171727.796000", "171727.796000", "171727.796000", "171727.796000", "171727.812000", "171727.812000", "171727.812000", "171827.750000", "171827.750000", "171827.750000", "171827.750000", "171827.765000", "171827.765000", "171827.765000", "171827.765000", "171827.765000", "171827.765000", "171827.765000", "171827.781000", "171827.781000", "171827.781000", "171827.781000", "171827.781000", "171827.781000", "171827.781000", "171827.796000", "171827.796000", "171827.796000", "171827.796000", "171827.812000", "171827.812000", "171827.812000", "171827.812000", "171827.812000", "171827.828000", "171927.750000", "171927.750000", "171927.750000", "171927.765000", "171927.765000", "171927.765000", "171927.765000", "171927.765000", "171927.765000", "171927.765000", "171927.781000", "171927.781000", "171927.781000", "171927.781000", "171927.781000", "171927.781000", "171927.781000", "171927.796000", "171927.796000", "171927.796000", "171927.796000", "171927.796000", "171927.796000", "171927.796000", "171927.812000", "171927.812000", "171927.812000", "171927.812000", "172027.750000", "172027.750000", "172027.750000", "172027.750000", "172027.765000", "172027.765000", "172027.765000", "172027.765000", "172027.765000", "172027.765000", "172027.765000", "172027.781000", "172027.781000", "172027.781000", "172027.781000", "172027.781000", "172027.781000", "172027.781000", "172027.796000", "172027.796000", "172027.796000", "172027.796000", "172027.796000", "172027.796000", "172027.796000", "172027.812000", "172027.812000", "172027.812000", "172027.812000", "172127.750000", "172127.750000", "172127.750000", "172127.750000", "172127.765000", "172127.765000", "172127.765000", "172127.765000", "172127.765000", "172127.781000", "172127.781000", "172127.781000", "172127.781000", "172127.781000", "172127.781000", "172127.781000", "172127.796000", "172127.796000", "172127.796000", "172127.796000", "172127.796000", "172127.812000", "172127.812000", "172127.812000", "172127.812000", "172127.812000", "172127.812000", "172127.812000", "172227.750000", "172227.750000", "172227.750000", "172227.765000", "172227.765000", "172227.765000", "172227.765000", "172227.765000", "172227.765000", "172227.765000", "172227.781000", "172227.781000", "172227.781000", "172227.781000", "172227.781000", "172227.781000", "172227.781000", "172227.796000", "172227.796000", "172227.796000", "172227.796000", "172227.796000", "172227.796000", "172227.812000", "172227.812000", "172227.812000", "172227.812000", "172227.812000", "172327.750000", "172327.750000", "172327.750000", "172327.750000", "172327.765000", "172327.765000", "172327.765000", "172327.765000", "172327.765000", "172327.765000", "172327.765000", "172327.781000", "172327.781000", "172327.781000", "172327.781000", "172327.781000", "172327.781000", "172327.796000", "172327.796000", "172327.796000", "172327.796000", "172327.796000", "172327.796000", "172327.796000", "172327.812000", "172327.812000", "172327.812000", "172327.812000", "172327.812000", "172427.750000", "172427.750000", "172427.750000", "172427.765000", "172427.765000", "172427.765000", "172427.765000", "172427.765000", "172427.781000", "172427.781000", "172427.781000", "172427.781000", "172427.781000", "172427.781000", "172427.781000", "172427.796000", "172427.796000", "172427.796000", "172427.796000", "172427.796000", "172427.796000", "172427.796000", "172427.812000", "172427.812000", "172427.812000", "172427.812000", "172427.812000", "172427.812000", "172527.750000", "172527.750000", "172527.750000", "172527.750000", "172527.765000", "172527.765000", "172527.765000", "172527.765000", "172527.765000", "172527.765000", "172527.765000", "172527.781000", "172527.781000", "172527.781000", "172527.781000", "172527.781000", "172527.796000", "172527.796000", "172527.796000", "172527.796000", "172527.796000", "172527.812000", "172527.812000", "172527.812000", "172527.812000", "172527.812000", "172527.828000", "172527.828000", "172627.750000", "172627.750000", "172627.750000", "172627.765000", "172627.765000", "172627.765000", "172627.765000", "172627.765000", "172627.765000", "172627.765000", "172627.781000", "172627.781000", "172627.781000", "172627.781000", "172627.781000", "172627.781000", "172627.781000", "172627.796000", "172627.796000", "172627.796000", "172627.796000", "172627.796000", "172627.796000", "172627.812000", "172627.812000", "172627.812000", "172627.812000", "172627.812000", "172727.750000", "172727.750000", "172727.750000", "172727.750000", "172727.765000", "172727.765000", "172727.765000", "172727.765000", "172727.765000", "172727.765000", "172727.765000", "172727.781000", "172727.781000", "172727.781000", "172727.781000", "172727.781000", "172727.781000", "172727.796000", "172727.796000", "172727.796000", "172727.796000", "172727.796000", "172727.796000", "172727.796000", "172727.812000", "172727.812000", "172727.812000", "172727.812000", "172727.812000", "172827.750000", "172827.750000", "172827.750000", "172827.765000", "172827.765000", "172827.765000", "172827.765000", "172827.765000", "172827.765000", "172827.765000", "172827.781000", "172827.781000", "172827.781000", "172827.781000", "172827.781000", "172827.781000", "172827.781000", "172827.796000", "172827.796000", "172827.796000", "172827.796000", "172827.796000", "172827.796000", "172827.796000", "172827.812000", "172827.812000", "172827.812000", "172827.812000", "172927.750000", "172927.750000", "172927.750000", "172927.765000", "172927.765000", "172927.765000", "172927.765000", "172927.765000", "172927.765000", "172927.765000", "172927.781000", "172927.781000", "172927.781000", "172927.796000", "172927.796000", "172927.796000", "172927.796000", "172927.796000", "172927.796000", "172927.796000", "172927.812000", "172927.812000", "172927.812000", "172927.812000", "172927.812000", "172927.812000", "172927.828000", "172927.828000", "173027.750000", "173027.750000", "173027.750000", "173027.750000", "173027.765000", "173027.765000", "173027.765000", "173027.765000", "173027.765000", "173027.765000", "173027.765000", "173027.781000", "173027.781000", "173027.781000", "173027.781000", "173027.781000", "173027.781000", "173027.781000", "173027.796000", "173027.796000", "173027.796000", "173027.796000", "173027.796000", "173027.796000", "173027.796000", "173027.812000", "173027.812000", "173027.812000", "173127.750000", "173127.750000", "173127.750000", "173127.765000", "173127.765000", "173127.765000", "173127.765000", "173127.765000", "173127.765000", "173127.765000", "173127.781000", "173127.781000", "173127.781000", "173127.781000", "173127.781000", "173127.781000", "173127.781000", "173127.796000", "173127.796000", "173127.796000", "173127.796000", "173127.796000", "173127.812000", "173127.812000", "173127.812000", "173127.812000", "173127.812000", "173127.812000", "173127.812000", "173227.750000", "173227.750000", "173227.750000", "173227.765000", "173227.765000", "173227.765000", "173227.765000", "173227.765000", "173227.765000", "173227.765000", "173227.781000", "173227.781000", "173227.781000", "173227.781000", "173227.781000", "173227.781000", "173227.781000", "173227.796000", "173227.796000", "173227.796000", "173227.796000", "173227.796000", "173227.796000", "173227.796000", "173227.812000", "173227.812000", "173227.812000", "173227.812000", "173327.750000", "173327.750000", "173327.750000", "173327.750000", "173327.765000", "173327.765000", "173327.765000", "173327.765000", "173327.765000", "173327.765000", "173327.781000", "173327.781000", "173327.781000", "173327.781000", "173327.781000", "173327.781000", "173327.781000", "173327.796000", "173327.796000", "173327.796000", "173327.796000", "173327.796000", "173327.796000", "173327.796000", "173327.812000", "173327.812000", "173327.812000", "173327.812000", "173341.125000", "173341.140000", "173341.140000", "173341.140000", "173341.140000", "173341.140000", "173341.140000"],
