{
  "AcquisitionMatrixPE": 104,
  "AcquisitionNumber": 1,
  "AcquisitionTime": "17:01:24.792500",
  "BandwidthPerPixelPhaseEncode": 13.935,
  "BaseResolution": 104,
  "CoilString": "C:HEA;HEP",
  "ConversionSoftware": "dcm2niix",
  "ConversionSoftwareVersion": "v1.0.20210317",
  "DerivedVendorReportedEchoSpacing": 0.000690017,
  "DeviceSerialNumber": "35450",
  "DwellTime": 2.5e-06,
  "EchoTime": 0.0348,
  "EffectiveEchoSpacing": 0.000690017,
  "FlipAngle": 55,
  "ImageComments": "Unaliased MB8/PE3",
  "ImageOrientationPatientDICOM": [0.999972, 0.00164686, -0.00730785, -4.64302e-09, 0.975536, 0.219842],
  "ImageType": [
    "ORIGINAL",
    "PRIMARY",
    "M",
    "MB",
    "ND",
    "MOSAIC"
],
  "ImagingFrequency": 123.235,
  "InPlanePhaseEncodingDirectionDICOM": "COL",
  "InstitutionAddress": "Univeristy Ave. 197,Newark,North East,US,07102-1814",
  "InstitutionName": "RUBIC",
  "InstitutionalDepartmentName": "Department",
  "MRAcquisitionType": "2D",
  "MagneticFieldStrength": 3,
  "Manufacturer": "Siemens",
  "ManufacturersModelName": "TrioTim",
  "Modality": "MR",
  "MultibandAccelerationFactor": 8,
  "PartialFourier": 0.875,
  "PatientPosition": "HFS",
  "PercentPhaseFOV": 100,
  "PercentSampling": 100,
  "PhaseEncodingDirection": "j-",
  "PhaseEncodingSteps": 91,
  "PhaseResolution": 1,
  "PixelBandwidth": 1923,
  "ProcedureStepDescription": "Cole^Michael",
  "ProtocolName": "cmrr_mbep2d_bold_2mm_MB8_Task_8x",
  "PulseSequenceDetails": "%CustomerSeq%\\cmrr_mbep2d_bold",
  "ReceiveCoilName": "32Ch_Head",
  "ReconMatrixPE": 104,
  "RepetitionTime": 0.785,
  "SAR": 0.123848,
  "ScanOptions": "PFP\\FS",
  "ScanningSequence": "EP",
  "SequenceName": "epfid2d1_104",
  "SequenceVariant": "SK\\SS",
  "SeriesDescription": "cmrr_mbep2d_bold_2mm_MB8_Task_8x",
  "SeriesNumber": 29,
  "ShimSetting": [2086, -507, -7521, 639, -60, -499, -157, 149],
  "SliceThickness": 2,
  "SliceTiming": [0, 0.4375, 0.0875, 0.525, 0.175, 0.6125, 0.2625, 0.7, 0.35, 0, 0.4375, 0.0875, 0.525, 0.175, 0.6125, 0.2625, 0.7, 0.35, 0, 0.4375, 0.0875, 0.525, 0.175, 0.6125, 0.2625, 0.7, 0.35, 0, 0.4375, 0.0875, 0.525, 0.175, 0.6125, 0.2625, 0.7, 0.35, 0, 0.4375, 0.0875, 0.525, 0.175, 0.6125, 0.2625, 0.7, 0.35, 0, 0.4375, 0.0875, 0.525, 0.175, 0.6125, 0.2625, 0.7, 0.35, 0, 0.4375, 0.0875, 0.525, 0.175, 0.6125, 0.2625, 0.7, 0.35, 0, 0.4375, 0.0875, 0.525, 0.175, 0.6125, 0.2625, 0.7, 0.35],
  "SoftwareVersions": "syngo MR B19",
  "SpacingBetweenSlices": 2,
  "StationName": "MRC35450",
  "TaskName": "cpro",
  "TotalReadoutTime": 0.0710717,
  "TxRefAmp": 325.76,
  "dcmmeta_affine": [
    [-1.9999438524246216, -9.286045710155122e-09, -0.01498223003000021, 102.52422332763672],
    [-0.0032937268260866404, 1.9510711431503296, 0.43967095017433167, -82.05259704589844],
    [-0.014615695923566818, -0.4396832585334778, 1.9510164260864258, -70.2973403930664],
    [0.0, 0.0, 0.0, 1.0]
],
  "dcmmeta_reorient_transform": [
    [0.0, -1.0, 0.0, 103.0],
    [1.0, 0.0, 0.0, 0.0],
    [0.0, 0.0, 1.0, 0.0],
    [0.0, 0.0, 0.0, 1.0]
],
  "dcmmeta_shape": [104, 104, 72, 581],
  "dcmmeta_slice_dim": 2,
  "dcmmeta_version": 0.6,
  "global": {
    "const": {
      "AcquisitionMatrix": [104, 0, 0, 104],
      "AngioFlag": "N",
      "BitsAllocated": 16,
      "BitsStored": 12,
      "Columns": 936,
      "EchoNumbers": 1,
      "EchoTime": 34.8,
      "EchoTrainLength": 1,
      "FlipAngle": 55.0,
      "HighBit": 11,
      "ImageOrientationPatient": [0.99997194120687, 0.00164686340081, -0.0073078478302, -4.643023e-09, 0.97553557443798, 0.2198416316487],
      "ImagePositionPatient": [-934.50087479085, -931.92352162851, -292.41282282596],
      "ImageType": [
        "ORIGINAL",
        "PRIMARY",
        "M",
        "MB",
        "ND",
        "MOSAIC"
],
      "ImagedNucleus": "1H",
      "ImagingFrequency": 123.234671,
      "InPlanePhaseEncodingDirection": "COL",
      "MRAcquisitionType": "2D",
      "MagneticFieldStrength": 3.0,
      "Manufacturer": "SIEMENS",
      "ManufacturerModelName": "TrioTim",
      "Modality": "MR",
      "NumberOfAverages": 1.0,
      "NumberOfPhaseEncodingSteps": 91,
      "PercentPhaseFieldOfView": 100.0,
      "PercentSampling": 100.0,
      "PerformedProcedureStepStartTime": "143941.640000",
      "PhotometricInterpretation": "MONOCHROME2",
      "PixelBandwidth": 1923.0,
      "PixelRepresentation": 0,
      "PixelSpacing": [2.0, 2.0],
      "ProtocolName": "cmrr_mbep2d_bold_2mm_MB8_Task_8x",
      "RepetitionTime": 785.0,
      "Rows": 936,
      "SAR": 0.12384850096629,
      "SamplesPerPixel": 1,
      "ScanOptions": [
        "PFP",
        "FS"
],
      "ScanningSequence": "EP",
      "SequenceName": "epfid2d1_104",
      "SequenceVariant": [
        "SK",
        "SS"
],
      "SeriesDescription": "cmrr_mbep2d_bold_2mm_MB8_Task_8x",
      "SeriesNumber": 29,
      "SeriesTime": "185716.500000",
      "SliceLocation": -87.381721301645,
      "SliceThickness": 2.0,
      "SmallestImagePixelValue": 0,
      "SoftwareVersions": "syngo MR B19",
      "SpacingBetweenSlices": 2.0000000431822,
      "SpecificCharacterSet": "ISO_IR 100",
      "StudyID": "1",
      "StudyTime": "143941.593000",
      "TransmitCoilName": "Body",
      "VariableFlipAngleFlag": "N",
      "WindowCenterWidthExplanation": "Algo1",
      "dBdt": 0.0},
    "slices": {}
  },
  "time": {
    "samples": {
      "AcquisitionNumber": [1, 2, 3, 4, 5, 6, 7, 8, 9, 10, 11, 12, 13, 14, 15, 16, 17, 18, 19, 20, 21, 22, 23, 24, 25, 26, 27, 28, 29, 30, 31, 32, 33, 34, 35, 36, 37, 38, 39, 40, 41, 42, 43, 44, 45, 46, 47, 48, 49, 50, 51, 52, 53, 54, 55, 56, 57, 58, 59, 60, 61, 62, 63, 64, 65, 66, 67, 68, 69, 70, 71, 72, 73, 74, 75, 76, 77, 78, 79, 80, 81, 82, 83, 84, 85, 86, 87, 88, 89, 90, 91, 92, 93, 94, 95, 96, 97, 98, 99, 100, 101, 102, 103, 104, 105, 106, 107, 108, 109, 110, 111, 112, 113, 114, 115, 116, 117, 118, 119, 120, 121, 122, 123, 124, 125, 126, 127, 128, 129, 130, 131, 132, 133, 134, 135, 136, 137, 138, 139, 140, 141, 142, 143, 144, 145, 146, 147, 148, 149, 150, 151, 152, 153, 154, 155, 156, 157, 158, 159, 160, 161, 162, 163, 164, 165, 166, 167, 168, 169, 170, 171, 172, 173, 174, 175, 176, 177, 178, 179, 180, 181, 182, 183, 184, 185, 186, 187, 188, 189, 190, 191, 192, 193, 194, 195, 196, 197, 198, 199, 200, 201, 202, 203, 204, 205, 206, 207, 208, 209, 210, 211, 212, 213, 214, 215, 216, 217, 218, 219, 220, 221, 222, 223, 224, 225, 226, 227, 228, 229, 230, 231, 232, 233, 234, 235, 236, 237, 238, 239, 240, 241, 242, 243, 244, 245, 246, 247, 248, 249, 250, 251, 252, 253, 254, 255, 256, 257, 258, 259, 260, 261, 262, 263, 264, 265, 266, 267, 268, 269, 270, 271, 272, 273, 274, 275, 276, 277, 278, 279, 280, 281, 282, 283, 284, 285, 286, 287, 288, 289, 290, 291, 292, 293, 294, 295, 296, 297, 298, 299, 300, 301, 302, 303, 304, 305, 306, 307, 308, 309, 310, 311, 312, 313, 314, 315, 316, 317, 318, 319, 320, 321, 322, 323, 324, 325, 326, 327, 328, 329, 330, 331, 332, 333, 334, 335, 336, 337, 338, 339, 340, 341, 342, 343, 344, 345, 346, 347, 348, 349, 350, 351, 352, 353, 354, 355, 356, 357, 358, 359, 360, 361, 362, 363, 364, 365, 366, 367, 368, 369, 370, 371, 372, 373, 374, 375, 376, 377, 378, 379, 380, 381, 382, 383, 384, 385, 386, 387, 388, 389, 390, 391, 392, 393, 394, 395, 396, 397, 398, 399, 400, 401, 402, 403, 404, 405, 406, 407, 408, 409, 410, 411, 412, 413, 414, 415, 416, 417, 418, 419, 420, 421, 422, 423, 424, 425, 426, 427, 428, 429, 430, 431, 432, 433, 434, 435, 436, 437, 438, 439, 440, 441, 442, 443, 444, 445, 446, 447, 448, 449, 450, 451, 452, 453, 454, 455, 456, 457, 458, 459, 460, 461, 462, 463, 464, 465, 466, 467, 468, 469, 470, 471, 472, 473, 474, 475, 476, 477, 478, 479, 480, 481, 482, 483, 484, 485, 486, 487, 488, 489, 490, 491, 492, 493, 494, 495, 496, 497, 498, 499, 500, 501, 502, 503, 504, 505, 506, 507, 508, 509, 510, 511, 512, 513, 514, 515, 516, 517, 518, 519, 520, 521, 522, 523, 524, 525, 526, 527, 528, 529, 530, 531, 532, 533, 534, 535, 536, 537, 538, 539, 540, 541, 542, 543, 544, 545, 546, 547, 548, 549, 550, 551, 552, 553, 554, 555, 556, 557, 558, 559, 560, 561, 562, 563, 564, 565, 566, 567, 568, 569, 570, 571, 572, 573, 574, 575, 576, 577, 578, 579, 580, 581],
      "AcquisitionTime": ["170124.792500", "170125.580000", "170126.367500", "170127.155000", "170127.945000", "170128.732500", "170129.520000", "170130.307500", "170131.097500", "170131.885000", "170132.672500", "170133.460000", "170134.250000", "170135.037500", "170135.825000", "170136.612500", "170137.402500", "170138.190000", "170138.977500", "170139.765000", "170140.555000", "170141.342500", "170142.130000", "170142.920000", "170143.707500", "170144.495000", "170145.282500", "170146.072500", "170146.860000", "170147.647500", "170148.435000", "170149.225000", "170150.012500", "170150.800000", "170151.587500", "170152.377500", "170153.165000", "170153.952500", "170154.740000", "170155.530000", "170156.317500", "170157.105000", "170157.892500", "170158.682500", "170159.470000", "170200.257500", "170201.047500", "170201.835000", "170202.622500", "170203.410000", "170204.200000", "170204.987500", "170205.775000", "170206.562500", "170207.352500", "170208.140000", "170208.927500", "170209.715000", "170210.505000", "170211.292500", "170212.080000", "170212.867500", "170213.657500", "170214.445000", "170215.232500", "170216.020000", "170216.810000", "170217.597500", "170218.385000", "170219.175000", "170219.962500", "170220.750000", "170221.537500", "170222.327500", "170223.115000", "170223.902500", "170224.690000", "170225.480000", "170226.267500", "170227.055000", "170227.842500", "170228.632500", "170229.420000", "170230.207500", "170230.995000", "170231.785000", "170232.572500", "170233.360000", "170234.147500", "170234.937500", "170235.725000", "170236.512500", "170237.302500", "170238.090000", "170238.877500", "170239.665000", "170240.455000", "170241.242500", "170242.030000", "170242.817500", "170243.607500", "170244.395000", "170245.182500", "170245.970000", "170246.760000", "170247.547500", "170248.335000", "170249.122500", "170249.912500", "170250.700000", "170251.487500", "170252.275000", "170253.065000", "170253.852500", "170254.640000", "170255.430000", "170256.217500", "170257.005000", "170257.792500", "170258.582500", "170259.370000", "170300.157500", "170300.945000", "170301.735000", "170302.522500", "170303.310000", "170304.097500", "170304.887500", "170305.675000", "170306.462500", "170307.250000", "170308.040000", "170308.827500", "170309.615000", "170310.405000", "170311.192500", "170311.980000", "170312.767500", "170313.557500", "170314.345000", "170315.132500", "170315.920000", "170316.710000", "170317.497500", "170318.285000", "170319.072500", "170319.862500", "170320.650000", "170321.437500", "170322.225000", "170323.015000", "170323.802500", "170324.590000", "170325.377500", "170326.167500", "170326.955000", "170327.742500", "170328.532500", "170329.320000", "170330.107500", "170330.895000", "170331.685000", "170332.472500", "170333.260000", "170334.047500", "170334.837500", "170335.625000", "170336.412500", "170337.200000", "170337.990000", "170338.777500", "170339.565000", "170340.352500", "170341.142500", "170341.930000", "170342.717500", "170343.505000", "170344.295000", "170345.082500", "170345.870000", "170346.660000", "170347.447500", "170348.235000", "170349.022500", "170349.812500", "170350.600000", "170351.387500", "170352.175000", "170352.965000", "170353.752500", "170354.540000", "170355.327500", "170356.117500", "170356.905000", "170357.692500", "170358.480000", "170359.270000", "170400.057500", "170400.845000", "170401.632500", "170402.422500", "170403.210000", "170403.997500", "170404.787500", "170405.575000", "170406.362500", "170407.150000", "170407.940000", "170408.727500", "170409.515000", "170410.302500", "170411.092500", "170411.880000", "170412.667500", "170413.455000", "170414.245000", "170415.032500", "170415.820000", "170416.607500", "170417.397500", "170418.185000", "170418.972500", "170419.760000", "170420.550000", "170421.337500", "170422.125000", "170422.915000", "170423.702500", "170424.490000", "170425.277500", "170426.067500", "170426.855000", "170427.642500", "170428.430000", "170429.220000", "170430.007500", "170430.795000", "170431.582500", "170432.372500", "170433.160000", "170433.947500", "170434.735000", "170435.525000", "170436.312500", "170437.100000", "170437.887500", "170438.677500", "170439.465000", "170440.252500", "170441.042500", "170441.830000", "170442.617500", "170443.405000", "170444.195000", "170444.982500", "170445.770000", "170446.557500", "170447.347500", "170448.135000", "170448.922500", "170449.710000", "170450.500000", "170451.287500", "170452.075000", "170452.862500", "170453.652500", "170454.440000", "170455.227500", "170456.015000", "170456.805000", "170457.592500", "170458.380000", "170459.170000", "170459.957500", "170500.745000", "170501.532500", "170502.322500", "170503.110000", "170503.897500", "170504.685000", "170505.475000", "170506.262500", "170507.050000", "170507.837500", "170508.627500", "170509.415000", "170510.202500", "170510.990000", "170511.780000", "170512.567500", "170513.355000", "170514.142500", "170514.932500", "170515.720000", "170516.507500", "170517.297500", "170518.085000", "170518.872500", "170519.660000", "170520.450000", "170521.237500", "170522.025000", "170522.812500", "170523.602500", "170524.390000", "170525.177500", "170525.965000", "170526.755000", "170527.542500", "170528.330000", "170529.117500", "170529.907500", "170530.695000", "170531.482500", "170532.270000", "170533.060000", "170533.847500", "170534.635000", "170535.425000", "170536.212500", "170537.000000", "170537.787500", "170538.577500", "170539.365000", "170540.152500", "170540.940000", "170541.730000", "170542.517500", "170543.305000", "170544.092500", "170544.882500", "170545.670000", "170546.457500", "170547.245000", "170548.035000", "170548.822500", "170549.610000", "170550.397500", "170551.187500", "170551.975000", "170552.762500", "170553.552500", "170554.340000", "170555.127500", "170555.915000", "170556.705000", "170557.492500", "170558.280000", "170559.067500", "170559.857500", "170600.645000", "170601.432500", "170602.220000", "170603.010000", "170603.797500", "170604.585000", "170605.372500", "170606.162500", "170606.950000", "170607.737500", "170608.525000", "170609.315000", "170610.102500", "170610.890000", "170611.680000", "170612.467500", "170613.255000", "170614.042500", "170614.832500", "170615.620000", "170616.407500", "170617.195000", "170617.985000", "170618.772500", "170619.560000", "170620.347500", "170621.137500", "170621.925000", "170622.712500", "170623.500000", "170624.290000", "170625.077500", "170625.865000", "170626.655000", "170627.442500", "170628.230000", "170629.017500", "170629.807500", "170630.595000", "170631.382500", "170632.170000", "170632.960000", "170633.747500", "170634.535000", "170635.322500", "170636.112500", "170636.900000", "170637.687500", "170638.475000", "170639.265000", "170640.052500", "170640.840000", "170641.627500", "170642.417500", "170643.205000", "170643.992500", "170644.782500", "170645.570000", "170646.357500", "170647.145000", "170647.935000", "170648.722500", "170649.510000", "170650.297500", "170651.087500", "170651.875000", "170652.662500", "170653.450000", "170654.240000", "170655.027500", "170655.815000", "170656.602500", "170657.392500", "170658.180000", "170658.967500", "170659.755000", "170700.545000", "170701.332500", "170702.120000", "170702.910000", "170703.697500", "170704.485000", "170705.272500", "170706.062500", "170706.850000", "170707.637500", "170708.425000", "170709.215000", "170710.002500", "170710.790000", "170711.577500", "170712.367500", "170713.155000", "170713.942500", "170714.730000", "170715.520000", "170716.307500", "170717.095000", "170717.882500", "170718.672500", "170719.460000", "170720.247500", "170721.037500", "170721.825000", "170722.612500", "170723.400000", "170724.190000", "170724.977500", "170725.765000", "170726.552500", "170727.342500", "170728.130000", "170728.917500", "170729.705000", "170730.495000", "170731.282500", "170732.070000", "170732.857500", "170733.647500", "170734.435000", "170735.222500", "170736.010000", "170736.800000", "170737.587500", "170738.375000", "170739.165000", "170739.952500", "170740.740000", "170741.527500", "170742.317500", "170743.105000", "170743.892500", "170744.680000", "170745.470000", "170746.257500", "170747.045000", "170747.832500", "170748.622500", "170749.410000", "170750.197500", "170750.985000", "170751.775000", "170752.562500", "170753.350000", "170754.137500", "170754.927500", "170755.715000", "170756.502500", "170757.292500", "170758.080000", "170758.867500", "170759.655000", "170800.445000", "170801.232500", "170802.020000", "170802.807500", "170803.597500", "170804.385000", "170805.172500", "170805.960000", "170806.750000", "170807.537500", "170808.325000", "170809.112500", "170809.902500", "170810.690000", "170811.477500", "170812.265000", "170813.055000", "170813.842500", "170814.630000", "170815.420000", "170816.207500", "170816.995000", "170817.782500", "170818.572500", "170819.360000", "170820.147500", "170820.935000", "170821.725000", "170822.512500", "170823.300000", "170824.087500", "170824.877500", "170825.665000", "170826.452500", "170827.240000", "170828.030000", "170828.817500", "170829.605000", "170830.392500", "170831.182500", "170831.970000", "170832.757500", "170833.547500", "170834.335000", "170835.122500", "170835.910000", "170836.700000", "170837.487500", "170838.275000", "170839.062500", "170839.852500", "170840.640000", "170841.427500", "170842.215000", "170843.005000", "170843.792500", "170844.580000", "170845.367500", "170846.157500", "170846.945000", "170847.732500", "170848.520000", "170849.310000", "170850.097500", "170850.885000", "170851.675000", "170852.462500", "170853.250000", "170854.037500", "170854.827500", "170855.615000", "170856.402500", "170857.190000", "170857.980000", "170858.767500", "170859.555000", "170900.342500", "170901.132500", "170901.920000"],
      "ContentTime": ["185716.500000", "185716.515000", "185816.484000", "185816.484000", "185816.500000", "185816.500000", "185816.500000", "185816.500000", "185816.500000", "185816.500000", "185816.500000", "185816.500000", "185816.515000", "185816.515000", "185816.515000", "185816.515000", "185816.515000", "185816.515000", "185816.531000", "185816.531000", "185816.531000", "185816.531000", "185816.531000", "185816.531000", "185816.531000", "185816.546000", "185816.546000", "185816.546000", "185816.546000", "185816.546000", "185916.484000", "185916.484000", "185916.484000", "185916.484000", "185916.500000", "185916.500000", "185916.500000", "185916.500000", "185916.500000", "185916.500000", "185916.515000", "185916.515000", "185916.515000", "185916.515000", "185916.515000", "185916.515000", "185916.515000", "185916.531000", "185916.531000", "185916.531000", "185916.531000", "185916.531000", "185916.531000", "185916.531000", "185916.546000", "185916.546000", "185916.546000", "185916.546000", "185916.546000", "190016.484000", "190016.484000", "190016.500000", "190016.500000", "190016.500000", "190016.500000", "190016.500000", "190016.500000", "190016.500000", "190016.515000", "190016.515000", "190016.515000", "190016.515000", "190016.515000", "190016.515000", "190016.515000", "190016.531000", "190016.531000", "190016.531000", "190016.531000", "190016.531000", "190016.546000", "190016.546000", "190016.546000", "190016.546000", "190016.546000", "190016.546000", "190016.546000", "190116.484000", "190116.484000", "190116.484000", "190116.500000", "190116.500000", "190116.500000", "190116.500000", "190116.500000", "190116.500000", "190116.500000", "190116.515000", "190116.515000", "190116.515000", "190116.515000", "190116.515000", "190116.515000", "190116.515000", "190116.531000", "190116.531000", "190116.531000", "190116.531000", "190116.531000", "190116.531000", "190116.531000", "190116.546000", "190116.546000", "190116.546000", "190116.546000", "190136.484000", "190136.484000", "190136.484000", "190136.500000", "190136.500000", "190136.500000", "190136.500000", "190136.500000", "190136.500000", "190136.500000", "190236.484000", "190236.484000", "190236.484000", "190236.500000", "190236.500000", "190236.500000", "190236.500000", "190236.500000", "190236.500000", "190236.500000", "190236.515000", "190236.515000", "190236.515000", "190236.515000", "190236.515000", "190236.515000", "190236.531000", "190236.531000", "190236.531000", "190236.531000", "190236.531000", "190236.531000", "190236.531000", "190236.546000", "190236.546000", "190236.546000", "190236.546000", "190236.546000", "190336.484000", "190336.484000", "190336.484000", "190336.484000", "190336.500000", "190336.500000", "190336.500000", "190336.500000", "190336.500000", "190336.500000", "190336.500000", "190336.515000", "190336.515000", "190336.515000", "190336.515000", "190336.515000", "190336.515000", "190336.531000", "190336.531000", "190336.531000", "190336.531000", "190336.531000", "190336.531000", "190336.546000", "190336.546000", "190336.546000", "190336.546000", "190336.546000", "190436.484000", "190436.484000", "190436.484000", "190436.484000", "190436.500000", "190436.500000", "190436.500000", "190436.500000", "190436.500000", "190436.500000", "190436.515000", "190436.515000", "190436.515000", "190436.515000", "190436.515000", "190436.515000", "190436.515000", "190436.531000", "190436.531000", "190436.531000", "190436.531000", "190436.531000", "190436.531000", "190436.531000", "190436.546000", "190436.546000", "190436.546000", "190436.546000", "190436.546000", "190536.484000", "190536.484000", "190536.484000", "190536.484000", "190536.500000", "190536.500000", "190536.500000", "190536.500000", "190536.500000", "190536.500000", "190536.500000", "190536.515000", "190536.515000", "190536.515000", "190536.515000", "190536.515000", "190536.515000", "190536.531000", "190536.531000", "190536.531000", "190536.531000", "190536.531000", "190536.531000", "190536.531000", "190536.546000", "190536.546000", "190536.546000", "190536.546000", "190636.484000", "190636.484000", "190636.500000", "190636.500000", "190636.500000", "190636.500000", "190636.500000", "190636.500000", "190636.500000", "190636.515000", "190636.515000", "190636.515000", "190636.515000", "190636.515000", "190636.515000", "190636.515000", "190636.531000", "190636.531000", "190636.531000", "190636.531000", "190636.531000", "190636.531000", "190636.531000", "190636.546000", "190636.546000", "190636.546000", "190636.546000", "190636.546000", "190736.484000", "190736.484000", "190736.484000", "190736.500000", "190736.500000", "190736.500000", "190736.500000", "190736.500000", "190736.500000", "190736.500000", "190736.515000", "190736.515000", "190736.515000", "190736.515000", "190736.531000", "190736.531000", "190736.531000", "190736.531000", "190736.531000", "190736.531000", "190736.531000", "190736.546000", "190736.546000", "190736.546000", "190736.546000", "190736.546000", "190736.562000", "190736.562000", "190736.562000", "190836.484000", "190836.484000", "190836.484000", "190836.500000", "190836.500000", "190836.500000", "190836.500000", "190836.500000", "190836.500000", "190836.500000", "190836.515000", "190836.515000", "190836.515000", "190836.515000", "190836.515000", "190836.515000", "190836.531000", "190836.531000", "190836.531000", "190836.531000", "190836.531000", "190836.531000", "190836.531000", "190836.546000", "190836.546000", "190836.546000", "190836.546000", "190836.546000", "190936.484000", "190936.484000", "190936.484000", "190936.500000", "190936.500000", "190936.500000", "190936.500000", "190936.500000", "190936.500000", "190936.500000", "190936.515000", "190936.515000", "190936.515000", "190936.515000", "190936.515000", "190936.515000", "190936.515000", "190936.531000", "190936.531000", "190936.531000", "190936.531000", "190936.531000", "190936.531000", "190936.546000", "190936.546000", "190936.546000", "190936.546000", "190936.546000", "191036.484000", "191036.484000", "191036.484000", "191036.500000", "191036.500000", "191036.500000", "191036.500000", "191036.500000", "191036.500000", "191036.500000", "191036.515000", "191036.515000", "191036.515000", "191036.515000", "191036.515000", "191036.531000", "191036.531000", "191036.531000", "191036.531000", "191036.531000", "191036.531000", "191036.531000", "191036.546000", "191036.546000", "191036.546000", "191036.546000", "191036.546000", "191036.546000", "191036.546000", "191136.484000", "191136.484000", "191136.484000", "191136.484000", "191136.500000", "191136.500000", "191136.500000", "191136.500000", "191136.500000", "191136.500000", "191136.515000", "191136.515000", "191136.515000", "191136.515000", "191136.515000", "191136.515000", "191136.515000", "191136.531000", "191136.531000", "191136.531000", "191136.531000", "191136.531000", "191136.531000", "191136.531000", "191136.546000", "191136.546000", "191136.546000", "191136.546000", "191236.484000", "191236.484000", "191236.484000", "191236.484000", "191236.500000", "191236.500000", "191236.500000", "191236.500000", "191236.500000", "191236.500000", "191236.500000", "191236.515000", "191236.515000", "191236.515000", "191236.515000", "191236.515000", "191236.515000", "191236.531000", "191236.531000", "191236.531000", "191236.531000", "191236.531000", "191236.531000", "191236.531000", "191236.546000", "191236.546000", "191236.546000", "191236.546000", "191336.484000", "191336.484000", "191336.484000", "191336.500000", "191336.500000", "191336.500000", "191336.500000", "191336.500000", "191336.500000", "191336.500000", "191336.515000", "191336.515000", "191336.515000", "191336.515000", "191336.515000", "191336.515000", "191336.531000", "191336.531000", "191336.531000", "191336.531000", "191336.531000", "191336.546000", "191336.546000", "191336.546000", "191336.546000", "191336.546000", "191336.546000", "191336.546000", "191436.484000", "191436.484000", "191436.484000", "191436.484000", "191436.500000", "191436.500000", "191436.500000", "191436.500000", "191436.500000", "191436.515000", "191436.515000", "191436.515000", "191436.515000", "191436.515000", "191436.515000", "191436.515000", "191436.531000", "191436.531000", "191436.531000", "191436.531000", "191436.531000", "191436.531000", "191436.546000", "191436.546000", "191436.546000", "191436.546000", "191436.546000", "191436.546000", "191436.546000", "191536.484000", "191536.484000", "191536.484000", "191536.484000", "191536.500000", "191536.500000", "191536.500000", "191536.515000", "191536.515000", "191536.515000", "191536.515000", "191536.515000", "191536.531000", "191536.531000", "191536.531000", "191536.531000", "191536.531000", "191536.531000", "191536.531000", "191536.546000", "191536.546000", "191536.546000", "191536.546000", "191536.546000", "191536.546000", "191536.546000", "191536.562000", "191536.562000", "191636.484000", "191636.484000", "191636.484000", "191636.500000", "191636.500000", "191636.500000", "191636.500000", "191636.500000", "191636.515000", "191636.515000", "191636.515000", "191636.515000", "191636.515000", "191636.515000", "191636.531000", "191636.531000", "191636.531000", "191636.531000", "191636.531000", "191636.531000", "191636.531000", "191636.546000", "191636.546000", "191636.546000", "191636.546000", "191636.546000", "191636.546000", "191636.546000", "191736.484000", "191736.484000", "191736.484000", "191736.500000", "191736.500000", "191736.500000", "191736.500000", "191736.500000", "191736.500000", "191736.500000", "191736.515000", "191736.515000", "191736.515000", "191736.515000", "191736.515000", "191736.515000", "191736.515000", "191736.531000", "191736.531000", "191736.531000", "191736.531000", "191736.531000", "191736.546000", "191736.546000", "191736.546000", "191736.546000", "191736.546000", "191736.562000", "191736.562000", "191742.093000", "191742.093000", "191742.109000"],
