{
  "AcquisitionMatrixPE": 104,
  "AcquisitionNumber": 1,
  "AcquisitionTime": "16:15:57.765000",
  "BandwidthPerPixelPhaseEncode": 13.935,
  "BaseResolution": 104,
  "CoilString": "C:HEA;HEP",
  "ConversionSoftware": "dcm2niix",
  "ConversionSoftwareVersion": "v1.0.20210317",
  "DerivedVendorReportedEchoSpacing": 0.000690017,
  "DeviceSerialNumber": "35450",
  "DwellTime": 2.5e-06,
  "EchoTime": 0.0348,
  "EffectiveEchoSpacing": 0.000690017,
  "FlipAngle": 55,
  "ImageComments": "Unaliased MB8/PE3",
  "ImageOrientationPatientDICOM": [1, -7.09275e-07, 6.09109e-05, -3.49384e-08, 0.999925, 0.0122172],
  "ImageType": [
    "ORIGINAL",
    "PRIMARY",
    "M",
    "MB",
    "ND",
    "MOSAIC"
],
  "ImagingFrequency": 123.235,
  "InPlanePhaseEncodingDirectionDICOM": "COL",
  "InstitutionAddress": "Univeristy Ave. 197,Newark,North East,US,07102-1814",
  "InstitutionName": "RUBIC",
  "InstitutionalDepartmentName": "Department",
  "MRAcquisitionType": "2D",
  "MagneticFieldStrength": 3,
  "Manufacturer": "Siemens",
  "ManufacturersModelName": "TrioTim",
  "Modality": "MR",
  "MultibandAccelerationFactor": 8,
  "PartialFourier": 0.875,
  "PatientPosition": "HFS",
  "PercentPhaseFOV": 100,
  "PercentSampling": 100,
  "PhaseEncodingDirection": "j-",
  "PhaseEncodingSteps": 91,
  "PhaseResolution": 1,
  "PixelBandwidth": 1923,
  "ProcedureStepDescription": "Cole^Michael",
  "ProtocolName": "cmrr_mbep2d_bold_2mm_MB8_Task_8x",
  "PulseSequenceDetails": "%CustomerSeq%\\cmrr_mbep2d_bold",
  "ReceiveCoilName": "32Ch_Head",
  "ReconMatrixPE": 104,
  "RepetitionTime": 0.785,
  "SAR": 0.11962,
  "ScanOptions": "PFP\\FS",
  "ScanningSequence": "EP",
  "SequenceName": "epfid2d1_104",
  "SequenceVariant": "SK\\SS",
  "SeriesDescription": "cmrr_mbep2d_bold_2mm_MB8_Task_8x",
  "SeriesNumber": 33,
  "ShimSetting": [2099, -413, -7265, 647, -79, -106, 56, -46],
  "SliceThickness": 2,
  "SliceTiming": [0, 0.4375, 0.0875, 0.525, 0.175, 0.6125, 0.2625, 0.7, 0.35, 0, 0.4375, 0.0875, 0.525, 0.175, 0.6125, 0.2625, 0.7, 0.35, 0, 0.4375, 0.0875, 0.525, 0.175, 0.6125, 0.2625, 0.7, 0.35, 0, 0.4375, 0.0875, 0.525, 0.175, 0.6125, 0.2625, 0.7, 0.35, 0, 0.4375, 0.0875, 0.525, 0.175, 0.6125, 0.2625, 0.7, 0.35, 0, 0.4375, 0.0875, 0.525, 0.175, 0.6125, 0.2625, 0.7, 0.35, 0, 0.4375, 0.0875, 0.525, 0.175, 0.6125, 0.2625, 0.7, 0.35, 0, 0.4375, 0.0875, 0.525, 0.175, 0.6125, 0.2625, 0.7, 0.35],
  "SoftwareVersions": "syngo MR B19",
  "SpacingBetweenSlices": 2,
  "StationName": "MRC35450",
  "TaskName": "cpro",
  "TotalReadoutTime": 0.0710717,
  "TxRefAmp": 333.307,
  "dcmmeta_affine": [
    [-2.0, -6.987684031400931e-08, 0.00012182994396425784, 101.98607635498047],
    [1.418550823473197e-06, 1.9998507499694824, 0.024434426799416542, -90.06849670410156],
    [0.00012182170758023858, -0.024434426799416542, 1.9998506307601929, -83.30166625976562],
    [0.0, 0.0, 0.0, 1.0]
],
  "dcmmeta_reorient_transform": [
    [0.0, -1.0, 0.0, 103.0],
    [1.0, 0.0, 0.0, 0.0],
    [0.0, 0.0, 1.0, 0.0],
    [0.0, 0.0, 0.0, 1.0]
],
  "dcmmeta_shape": [104, 104, 72, 581],
  "dcmmeta_slice_dim": 2,
  "dcmmeta_version": 0.6,
  "global": {
    "const": {
      "AcquisitionMatrix": [104, 0, 0, 104],
      "AngioFlag": "N",
      "BitsAllocated": 16,
      "BitsStored": 12,
      "Columns": 936,
      "EchoNumbers": 1,
      "EchoTime": 34.8,
      "EchoTrainLength": 1,
      "FlipAngle": 55.0,
      "HighBit": 11,
      "ImageOrientationPatient": [0.99999999814468, -7.09275404e-07, 6.091085282e-05, -3.4938419e-08, 0.99992536706323, 0.01221721340805],
      "ImagePositionPatient": [-933.98603643241, -947.85344323616, -96.033812955638],
      "ImageType": [
        "ORIGINAL",
        "PRIMARY",
        "M",
        "MB",
        "ND",
        "MOSAIC"
],
      "ImagedNucleus": "1H",
      "ImagingFrequency": 123.234834,
      "InPlanePhaseEncodingDirection": "COL",
      "MRAcquisitionType": "2D",
      "MagneticFieldStrength": 3.0,
      "Manufacturer": "SIEMENS",
      "ManufacturerModelName": "TrioTim",
      "Modality": "MR",
      "NumberOfAverages": 1.0,
      "NumberOfPhaseEncodingSteps": 91,
      "PercentPhaseFieldOfView": 100.0,
      "PercentSampling": 100.0,
      "PerformedProcedureStepStartTime": "141440.062000",
      "PhotometricInterpretation": "MONOCHROME2",
      "PixelBandwidth": 1923.0,
      "PixelRepresentation": 0,
      "PixelSpacing": [2.0, 2.0],
      "ProtocolName": "cmrr_mbep2d_bold_2mm_MB8_Task_8x",
      "RepetitionTime": 785.0,
      "Rows": 936,
      "SAR": 0.11961987056751,
      "SamplesPerPixel": 1,
      "ScanOptions": [
        "PFP",
        "FS"
],
      "ScanningSequence": "EP",
      "SequenceName": "epfid2d1_104",
      "SequenceVariant": [
        "SK",
        "SS"
],
      "SeriesDescription": "cmrr_mbep2d_bold_2mm_MB8_Task_8x",
      "SeriesNumber": 33,
      "SeriesTime": "181329.062000",
      "SliceLocation": -84.389623982404,
      "SliceThickness": 2.0,
      "SmallestImagePixelValue": 0,
      "SoftwareVersions": "syngo MR B19",
      "SpacingBetweenSlices": 1.9999999590964,
      "SpecificCharacterSet": "ISO_IR 100",
      "StudyID": "1",
      "StudyTime": "141440.031000",
      "TransmitCoilName": "Body",
      "VariableFlipAngleFlag": "N",
      "WindowCenterWidthExplanation": "Algo1",
      "dBdt": 0.0},
    "slices": {}
  },
  "time": {
    "samples": {
      "AcquisitionNumber": [1, 2, 3, 4, 5, 6, 7, 8, 9, 10, 11, 12, 13, 14, 15, 16, 17, 18, 19, 20, 21, 22, 23, 24, 25, 26, 27, 28, 29, 30, 31, 32, 33, 34, 35, 36, 37, 38, 39, 40, 41, 42, 43, 44, 45, 46, 47, 48, 49, 50, 51, 52, 53, 54, 55, 56, 57, 58, 59, 60, 61, 62, 63, 64, 65, 66, 67, 68, 69, 70, 71, 72, 73, 74, 75, 76, 77, 78, 79, 80, 81, 82, 83, 84, 85, 86, 87, 88, 89, 90, 91, 92, 93, 94, 95, 96, 97, 98, 99, 100, 101, 102, 103, 104, 105, 106, 107, 108, 109, 110, 111, 112, 113, 114, 115, 116, 117, 118, 119, 120, 121, 122, 123, 124, 125, 126, 127, 128, 129, 130, 131, 132, 133, 134, 135, 136, 137, 138, 139, 140, 141, 142, 143, 144, 145, 146, 147, 148, 149, 150, 151, 152, 153, 154, 155, 156, 157, 158, 159, 160, 161, 162, 163, 164, 165, 166, 167, 168, 169, 170, 171, 172, 173, 174, 175, 176, 177, 178, 179, 180, 181, 182, 183, 184, 185, 186, 187, 188, 189, 190, 191, 192, 193, 194, 195, 196, 197, 198, 199, 200, 201, 202, 203, 204, 205, 206, 207, 208, 209, 210, 211, 212, 213, 214, 215, 216, 217, 218, 219, 220, 221, 222, 223, 224, 225, 226, 227, 228, 229, 230, 231, 232, 233, 234, 235, 236, 237, 238, 239, 240, 241, 242, 243, 244, 245, 246, 247, 248, 249, 250, 251, 252, 253, 254, 255, 256, 257, 258, 259, 260, 261, 262, 263, 264, 265, 266, 267, 268, 269, 270, 271, 272, 273, 274, 275, 276, 277, 278, 279, 280, 281, 282, 283, 284, 285, 286, 287, 288, 289, 290, 291, 292, 293, 294, 295, 296, 297, 298, 299, 300, 301, 302, 303, 304, 305, 306, 307, 308, 309, 310, 311, 312, 313, 314, 315, 316, 317, 318, 319, 320, 321, 322, 323, 324, 325, 326, 327, 328, 329, 330, 331, 332, 333, 334, 335, 336, 337, 338, 339, 340, 341, 342, 343, 344, 345, 346, 347, 348, 349, 350, 351, 352, 353, 354, 355, 356, 357, 358, 359, 360, 361, 362, 363, 364, 365, 366, 367, 368, 369, 370, 371, 372, 373, 374, 375, 376, 377, 378, 379, 380, 381, 382, 383, 384, 385, 386, 387, 388, 389, 390, 391, 392, 393, 394, 395, 396, 397, 398, 399, 400, 401, 402, 403, 404, 405, 406, 407, 408, 409, 410, 411, 412, 413, 414, 415, 416, 417, 418, 419, 420, 421, 422, 423, 424, 425, 426, 427, 428, 429, 430, 431, 432, 433, 434, 435, 436, 437, 438, 439, 440, 441, 442, 443, 444, 445, 446, 447, 448, 449, 450, 451, 452, 453, 454, 455, 456, 457, 458, 459, 460, 461, 462, 463, 464, 465, 466, 467, 468, 469, 470, 471, 472, 473, 474, 475, 476, 477, 478, 479, 480, 481, 482, 483, 484, 485, 486, 487, 488, 489, 490, 491, 492, 493, 494, 495, 496, 497, 498, 499, 500, 501, 502, 503, 504, 505, 506, 507, 508, 509, 510, 511, 512, 513, 514, 515, 516, 517, 518, 519, 520, 521, 522, 523, 524, 525, 526, 527, 528, 529, 530, 531, 532, 533, 534, 535, 536, 537, 538, 539, 540, 541, 542, 543, 544, 545, 546, 547, 548, 549, 550, 551, 552, 553, 554, 555, 556, 557, 558, 559, 560, 561, 562, 563, 564, 565, 566, 567, 568, 569, 570, 571, 572, 573, 574, 575, 576, 577, 578, 579, 580, 581],
      "AcquisitionTime": ["161557.765000", "161558.552500", "161559.340000", "161600.127500", "161600.917500", "161601.705000", "161602.492500", "161603.282500", "161604.070000", "161604.857500", "161605.645000", "161606.435000", "161607.222500", "161608.010000", "161608.797500", "161609.587500", "161610.375000", "161611.162500", "161611.950000", "161612.740000", "161613.527500", "161614.315000", "161615.102500", "161615.892500", "161616.680000", "161617.467500", "161618.255000", "161619.045000", "161619.832500", "161620.620000", "161621.410000", "161622.197500", "161622.985000", "161623.772500", "161624.562500", "161625.350000", "161626.137500", "161626.925000", "161627.715000", "161628.502500", "161629.290000", "161630.077500", "161630.867500", "161631.655000", "161632.442500", "161633.230000", "161634.020000", "161634.807500", "161635.595000", "161636.382500", "161637.172500", "161637.960000", "161638.747500", "161639.537500", "161640.325000", "161641.112500", "161641.900000", "161642.690000", "161643.477500", "161644.265000", "161645.052500", "161645.842500", "161646.630000", "161647.417500", "161648.205000", "161648.995000", "161649.782500", "161650.570000", "161651.357500", "161652.147500", "161652.935000", "161653.722500", "161654.512500", "161655.300000", "161656.087500", "161656.875000", "161657.665000", "161658.452500", "161659.240000", "161700.027500", "161700.817500", "161701.605000", "161702.392500", "161703.180000", "161703.970000", "161704.757500", "161705.545000", "161706.332500", "161707.122500", "161707.910000", "161708.697500", "161709.485000", "161710.275000", "161711.062500", "161711.850000", "161712.640000", "161713.427500", "161714.215000", "161715.002500", "161715.792500", "161716.580000", "161717.367500", "161718.155000", "161718.945000", "161719.732500", "161720.520000", "161721.307500", "161722.097500", "161722.885000", "161723.672500", "161724.460000", "161725.250000", "161726.037500", "161726.825000", "161727.612500", "161728.402500", "161729.190000", "161729.977500", "161730.767500", "161731.555000", "161732.342500", "161733.130000", "161733.920000", "161734.707500", "161735.495000", "161736.282500", "161737.072500", "161737.860000", "161738.647500", "161739.435000", "161740.225000", "161741.012500", "161741.800000", "161742.587500", "161743.377500", "161744.165000", "161744.952500", "161745.740000", "161746.530000", "161747.317500", "161748.105000", "161748.895000", "161749.682500", "161750.470000", "161751.257500", "161752.047500", "161752.835000", "161753.622500", "161754.410000", "161755.200000", "161755.987500", "161756.775000", "161757.562500", "161758.352500", "161759.140000", "161759.927500", "161800.715000", "161801.505000", "161802.292500", "161803.080000", "161803.867500", "161804.657500", "161805.445000", "161806.232500", "161807.022500", "161807.810000", "161808.597500", "161809.385000", "161810.175000", "161810.962500", "161811.750000", "161812.537500", "161813.327500", "161814.115000", "161814.902500", "161815.690000", "161816.480000", "161817.267500", "161818.055000", "161818.842500", "161819.632500", "161820.420000", "161821.207500", "161821.995000", "161822.785000", "161823.572500", "161824.360000", "161825.150000", "161825.937500", "161826.725000", "161827.512500", "161828.302500", "161829.090000", "161829.877500", "161830.665000", "161831.455000", "161832.242500", "161833.030000", "161833.817500", "161834.607500", "161835.395000", "161836.182500", "161836.970000", "161837.760000", "161838.547500", "161839.335000", "161840.122500", "161840.912500", "161841.700000", "161842.487500", "161843.277500", "161844.065000", "161844.852500", "161845.640000", "161846.430000", "161847.217500", "161848.005000", "161848.792500", "161849.582500", "161850.370000", "161851.157500", "161851.945000", "161852.735000", "161853.522500", "161854.310000", "161855.097500", "161855.887500", "161856.675000", "161857.462500", "161858.250000", "161859.040000", "161859.827500", "161900.615000", "161901.405000", "161902.192500", "161902.980000", "161903.767500", "161904.557500", "161905.345000", "161906.132500", "161906.920000", "161907.710000", "161908.497500", "161909.285000", "161910.072500", "161910.862500", "161911.650000", "161912.437500", "161913.225000", "161914.015000", "161914.802500", "161915.590000", "161916.377500", "161917.167500", "161917.955000", "161918.742500", "161919.532500", "161920.320000", "161921.107500", "161921.895000", "161922.685000", "161923.472500", "161924.260000", "161925.047500", "161925.837500", "161926.625000", "161927.412500", "161928.200000", "161928.990000", "161929.777500", "161930.565000", "161931.352500", "161932.142500", "161932.930000", "161933.717500", "161934.505000", "161935.295000", "161936.082500", "161936.870000", "161937.660000", "161938.447500", "161939.235000", "161940.022500", "161940.812500", "161941.600000", "161942.387500", "161943.175000", "161943.965000", "161944.752500", "161945.540000", "161946.327500", "161947.117500", "161947.905000", "161948.692500", "161949.480000", "161950.270000", "161951.057500", "161951.845000", "161952.632500", "161953.422500", "161954.210000", "161954.997500", "161955.787500", "161956.575000", "161957.362500", "161958.150000", "161958.940000", "161959.727500", "162000.515000", "162001.302500", "162002.092500", "162002.880000", "162003.667500", "162004.455000", "162005.245000", "162006.032500", "162006.820000", "162007.607500", "162008.397500", "162009.185000", "162009.972500", "162010.762500", "162011.550000", "162012.337500", "162013.125000", "162013.915000", "162014.702500", "162015.490000", "162016.277500", "162017.067500", "162017.855000", "162018.642500", "162019.430000", "162020.220000", "162021.007500", "162021.795000", "162022.582500", "162023.372500", "162024.160000", "162024.947500", "162025.735000", "162026.525000", "162027.312500", "162028.100000", "162028.890000", "162029.677500", "162030.465000", "162031.252500", "162032.042500", "162032.830000", "162033.617500", "162034.405000", "162035.195000", "162035.982500", "162036.770000", "162037.557500", "162038.347500", "162039.135000", "162039.922500", "162040.710000", "162041.500000", "162042.287500", "162043.075000", "162043.862500", "162044.652500", "162045.440000", "162046.227500", "162047.017500", "162047.805000", "162048.592500", "162049.380000", "162050.170000", "162050.957500", "162051.745000", "162052.532500", "162053.322500", "162054.110000", "162054.897500", "162055.685000", "162056.475000", "162057.262500", "162058.050000", "162058.837500", "162059.627500", "162100.415000", "162101.202500", "162101.990000", "162102.780000", "162103.567500", "162104.355000", "162105.145000", "162105.932500", "162106.720000", "162107.507500", "162108.297500", "162109.085000", "162109.872500", "162110.660000", "162111.450000", "162112.237500", "162113.025000", "162113.812500", "162114.602500", "162115.390000", "162116.177500", "162116.965000", "162117.755000", "162118.542500", "162119.330000", "162120.117500", "162120.907500", "162121.695000", "162122.482500", "162123.272500", "162124.060000", "162124.847500", "162125.635000", "162126.425000", "162127.212500", "162128.000000", "162128.787500", "162129.577500", "162130.365000", "162131.152500", "162131.940000", "162132.730000", "162133.517500", "162134.305000", "162135.092500", "162135.882500", "162136.670000", "162137.457500", "162138.245000", "162139.035000", "162139.822500", "162140.610000", "162141.400000", "162142.187500", "162142.975000", "162143.762500", "162144.552500", "162145.340000", "162146.127500", "162146.915000", "162147.705000", "162148.492500", "162149.280000", "162150.067500", "162150.857500", "162151.645000", "162152.432500", "162153.220000", "162154.010000", "162154.797500", "162155.585000", "162156.372500", "162157.162500", "162157.950000", "162158.737500", "162159.527500", "162200.315000", "162201.102500", "162201.890000", "162202.680000", "162203.467500", "162204.255000", "162205.042500", "162205.832500", "162206.620000", "162207.407500", "162208.195000", "162208.985000", "162209.772500", "162210.560000", "162211.347500", "162212.137500", "162212.925000", "162213.712500", "162214.500000", "162215.290000", "162216.077500", "162216.865000", "162217.655000", "162218.442500", "162219.230000", "162220.017500", "162220.807500", "162221.595000", "162222.382500", "162223.170000", "162223.960000", "162224.747500", "162225.535000", "162226.322500", "162227.112500", "162227.900000", "162228.687500", "162229.475000", "162230.265000", "162231.052500", "162231.840000", "162232.627500", "162233.417500", "162234.205000", "162234.992500", "162235.782500", "162236.570000", "162237.357500", "162238.145000", "162238.935000", "162239.722500", "162240.510000", "162241.297500", "162242.087500", "162242.875000", "162243.662500", "162244.450000", "162245.240000", "162246.027500", "162246.815000", "162247.602500", "162248.392500", "162249.180000", "162249.967500", "162250.755000", "162251.545000", "162252.332500", "162253.120000", "162253.910000", "162254.697500", "162255.485000", "162256.272500", "162257.062500", "162257.850000", "162258.637500", "162259.425000", "162300.215000", "162301.002500", "162301.790000", "162302.577500", "162303.367500", "162304.155000", "162304.942500", "162305.730000", "162306.520000", "162307.307500", "162308.095000", "162308.882500", "162309.672500", "162310.460000", "162311.247500", "162312.037500", "162312.825000", "162313.612500", "162314.400000", "162315.190000", "162315.977500", "162316.765000", "162317.552500", "162318.342500", "162319.130000", "162319.917500", "162320.705000", "162321.495000", "162322.282500", "162323.070000", "162323.857500", "162324.647500", "162325.435000", "162326.222500", "162327.012500", "162327.800000", "162328.587500", "162329.375000", "162330.165000", "162330.952500", "162331.740000", "162332.527500", "162333.317500", "162334.105000", "162334.892500"],
      "ContentTime": ["181329.062000", "181329.062000", "181429.031000", "181429.046000", "181429.046000", "181429.046000", "181429.046000", "181429.046000", "181429.046000", "181429.046000", "181429.046000", "181429.062000", "181429.062000", "181429.062000", "181429.062000", "181429.062000", "181429.062000", "181429.062000", "181429.078000", "181429.078000", "181429.078000", "181429.078000", "181429.078000", "181429.078000", "181429.078000", "181429.093000", "181429.093000", "181429.093000", "181429.093000", "181429.093000", "181529.031000", "181529.046000", "181529.046000", "181529.046000", "181529.046000", "181529.046000", "181529.046000", "181529.046000", "181529.062000", "181529.062000", "181529.062000", "181529.062000", "181529.062000", "181529.062000", "181529.062000", "181529.078000", "181529.078000", "181529.078000", "181529.078000", "181529.078000", "181529.078000", "181529.078000", "181529.078000", "181529.093000", "181529.093000", "181529.093000", "181529.093000", "181529.093000", "181549.031000", "181549.046000", "181549.046000", "181549.046000", "181549.046000", "181549.046000", "181549.046000", "181549.046000", "181549.062000", "181549.062000", "181649.031000", "181649.046000", "181649.046000", "181649.046000", "181649.046000", "181649.046000", "181649.046000", "181649.046000", "181649.046000", "181649.062000", "181649.062000", "181649.062000", "181649.062000", "181649.062000", "181649.062000", "181649.078000", "181649.078000", "181649.078000", "181649.078000", "181649.078000", "181649.078000", "181649.078000", "181649.093000", "181649.093000", "181649.093000", "181649.093000", "181649.093000", "181649.093000", "181749.031000", "181749.046000", "181749.046000", "181749.046000", "181749.046000", "181749.046000", "181749.046000", "181749.046000", "181749.046000", "181749.062000", "181749.062000", "181749.062000", "181749.062000", "181749.062000", "181749.062000", "181749.062000", "181749.078000", "181749.078000", "181749.078000", "181749.078000", "181749.078000", "181749.078000", "181749.078000", "181749.093000", "181749.093000", "181749.093000", "181749.093000", "181749.093000", "181849.031000", "181849.046000", "181849.046000", "181849.046000", "181849.046000", "181849.046000", "181849.046000", "181849.046000", "181849.062000", "181849.062000", "181849.062000", "181849.062000", "181849.062000", "181849.062000", "181849.062000", "181849.078000", "181849.078000", "181849.078000", "181849.078000", "181849.078000", "181849.078000", "181849.078000", "181849.093000", "181849.093000", "181849.093000", "181849.093000", "181849.093000", "181849.093000", "181849.093000", "181949.031000", "181949.046000", "181949.046000", "181949.046000", "181949.046000", "181949.046000", "181949.046000", "181949.046000", "181949.046000", "181949.062000", "181949.062000", "181949.062000", "181949.062000", "181949.062000", "181949.078000", "181949.078000", "181949.078000", "181949.078000", "181949.093000", "181949.093000", "181949.093000", "181949.093000", "181949.093000", "181949.093000", "181949.093000", "181949.093000", "181949.109000", "181949.109000", "182049.031000", "182049.046000", "182049.046000", "182049.046000", "182049.046000", "182049.046000", "182049.046000", "182049.046000", "182049.062000", "182049.062000", "182049.062000", "182049.062000", "182049.062000", "182049.062000", "182049.062000", "182049.078000", "182049.078000", "182049.078000", "182049.078000", "182049.078000", "182049.093000", "182049.093000", "182049.093000", "182049.093000", "182049.093000", "182049.109000", "182049.109000", "182049.109000", "182149.031000", "182149.046000", "182149.046000", "182149.046000", "182149.046000", "182149.046000", "182149.046000", "182149.046000", "182149.046000", "182149.062000", "182149.062000", "182149.062000", "182149.062000", "182149.062000", "182149.062000", "182149.062000", "182149.078000", "182149.078000", "182149.078000", "182149.078000", "182149.078000", "182149.078000", "182149.078000", "182149.093000", "182149.093000", "182149.093000", "182149.093000", "182149.093000", "182149.093000", "182249.031000", "182249.046000", "182249.046000", "182249.046000", "182249.046000", "182249.046000", "182249.046000", "182249.046000", "182249.062000", "182249.062000", "182249.062000", "182249.062000", "182249.062000", "182249.062000", "182249.062000", "182249.062000", "182249.078000", "182249.078000", "182249.078000", "182249.078000", "182249.078000", "182249.078000", "182249.078000", "182249.093000", "182249.093000", "182249.093000", "182249.093000", "182249.093000", "182349.031000", "182349.046000", "182349.046000", "182349.046000", "182349.046000", "182349.046000", "182349.046000", "182349.046000", "182349.062000", "182349.062000", "182349.062000", "182349.062000", "182349.062000", "182349.062000", "182349.062000", "182349.078000", "182349.078000", "182349.078000", "182349.078000", "182349.078000", "182349.078000", "182349.078000", "182349.093000", "182349.093000", "182349.093000", "182349.093000", "182349.093000", "182349.093000", "182449.031000", "182449.046000", "182449.046000", "182449.046000", "182449.046000", "182449.046000", "182449.046000", "182449.046000", "182449.062000", "182449.062000", "182449.062000", "182449.062000", "182449.062000", "182449.062000", "182449.062000", "182449.078000", "182449.078000", "182449.078000", "182449.078000", "182449.078000", "182449.078000", "182449.078000", "182449.093000", "182449.093000", "182449.093000", "182449.093000", "182449.093000", "182449.093000", "182549.031000", "182549.046000", "182549.046000", "182549.046000", "182549.046000", "182549.046000", "182549.046000", "182549.046000", "182549.046000", "182549.062000", "182549.062000", "182549.062000", "182549.062000", "182549.062000", "182549.062000", "182549.062000", "182549.078000", "182549.078000", "182549.078000", "182549.078000", "182549.093000", "182549.093000", "182549.093000", "182549.093000", "182549.093000", "182549.093000", "182549.093000", "182549.109000", "182649.031000", "182649.046000", "182649.046000", "182649.046000", "182649.046000", "182649.046000", "182649.046000", "182649.046000", "182649.062000", "182649.062000", "182649.062000", "182649.062000", "182649.062000", "182649.062000", "182649.062000", "182649.078000", "182649.078000", "182649.078000", "182649.078000", "182649.078000", "182649.078000", "182649.078000", "182649.093000", "182649.093000", "182649.093000", "182649.093000", "182649.093000", "182649.109000", "182649.109000", "182749.031000", "182749.046000", "182749.046000", "182749.046000", "182749.046000", "182749.046000", "182749.046000", "182749.046000", "182749.062000", "182749.062000", "182749.062000", "182749.062000", "182749.062000", "182749.062000", "182749.062000", "182749.062000", "182749.078000", "182749.078000", "182749.078000", "182749.078000", "182749.078000", "182749.078000", "182749.078000", "182749.093000", "182749.093000", "182749.093000", "182749.093000", "182749.093000", "182849.031000", "182849.046000", "182849.046000", "182849.046000", "182849.046000", "182849.046000", "182849.046000", "182849.046000", "182849.062000", "182849.062000", "182849.062000", "182849.062000", "182849.062000", "182849.062000", "182849.062000", "182849.062000", "182849.078000", "182849.078000", "182849.078000", "182849.078000", "182849.078000", "182849.093000", "182849.093000", "182849.093000", "182849.093000", "182849.093000", "182849.093000", "182849.093000", "182949.031000", "182949.046000", "182949.046000", "182949.046000", "182949.046000", "182949.046000", "182949.046000", "182949.046000", "182949.062000", "182949.062000", "182949.062000", "182949.062000", "182949.062000", "182949.078000", "182949.078000", "182949.078000", "182949.078000", "182949.078000", "182949.078000", "182949.093000", "182949.093000", "182949.093000", "182949.093000", "182949.093000", "182949.109000", "182949.109000", "182949.109000", "182949.109000", "182949.109000", "183049.031000", "183049.046000", "183049.046000", "183049.046000", "183049.046000", "183049.046000", "183049.046000", "183049.046000", "183049.062000", "183049.062000", "183049.062000", "183049.062000", "183049.062000", "183049.062000", "183049.062000", "183049.078000", "183049.078000", "183049.078000", "183049.078000", "183049.078000", "183049.078000", "183049.078000", "183049.093000", "183049.093000", "183049.093000", "183049.093000", "183049.093000", "183049.093000", "183149.031000", "183149.046000", "183149.046000", "183149.046000", "183149.046000", "183149.046000", "183149.046000", "183149.046000", "183149.062000", "183149.062000", "183149.062000", "183149.062000", "183149.062000", "183149.062000", "183149.062000", "183149.078000", "183149.078000", "183149.078000", "183149.078000", "183149.078000", "183149.078000", "183149.078000", "183149.093000", "183149.093000", "183149.093000", "183149.093000", "183149.093000", "183149.093000", "183249.031000", "183249.046000", "183249.046000", "183249.046000", "183249.046000", "183249.046000", "183249.046000", "183249.046000", "183249.062000", "183249.062000", "183249.062000", "183249.062000", "183249.062000", "183249.062000", "183249.062000", "183249.078000", "183249.078000", "183249.078000", "183249.078000", "183249.078000", "183249.078000", "183249.078000", "183249.093000", "183249.093000", "183249.093000", "183249.093000", "183249.093000", "183249.093000", "183349.031000", "183349.046000", "183349.046000", "183349.046000", "183349.046000", "183349.046000", "183349.046000", "183349.046000", "183349.062000", "183349.062000", "183349.062000", "183349.062000", "183349.062000", "183349.062000", "183349.062000", "183349.078000", "183349.078000", "183349.078000", "183349.078000", "183349.078000", "183349.078000", "183349.093000", "183349.093000", "183349.093000", "183349.093000", "183349.093000", "183349.093000", "183349.093000", "183349.109000", "183356.953000", "183356.953000", "183356.953000", "183356.953000"],
