{
  "AcquisitionMatrixPE": 104,
  "AcquisitionNumber": 1,
  "AcquisitionTime": "15:34:35.690000",
  "BandwidthPerPixelPhaseEncode": 13.935,
  "BaseResolution": 104,
  "CoilString": "C:HEA;HEP",
  "ConversionSoftware": "dcm2niix",
  "ConversionSoftwareVersion": "v1.0.20210317",
  "DerivedVendorReportedEchoSpacing": 0.000690017,
  "DeviceSerialNumber": "35450",
  "DwellTime": 2.5e-06,
  "EchoTime": 0.0348,
  "EffectiveEchoSpacing": 0.000690017,
  "FlipAngle": 55,
  "ImageComments": "Unaliased MB8/PE3",
  "ImageOrientationPatientDICOM": [1, -7.09275e-07, 6.09109e-05, -3.49384e-08, 0.999925, 0.0122172],
  "ImageType": [
    "ORIGINAL",
    "PRIMARY",
    "M",
    "MB",
    "ND",
    "MOSAIC"
],
  "ImagingFrequency": 123.235,
  "InPlanePhaseEncodingDirectionDICOM": "COL",
  "InstitutionAddress": "Univeristy Ave. 197,Newark,North East,US,07102-1814",
  "InstitutionName": "RUBIC",
  "InstitutionalDepartmentName": "Department",
  "MRAcquisitionType": "2D",
  "MagneticFieldStrength": 3,
  "Manufacturer": "Siemens",
  "ManufacturersModelName": "TrioTim",
  "Modality": "MR",
  "MultibandAccelerationFactor": 8,
  "PartialFourier": 0.875,
  "PatientPosition": "HFS",
  "PercentPhaseFOV": 100,
  "PercentSampling": 100,
  "PhaseEncodingDirection": "j-",
  "PhaseEncodingSteps": 91,
  "PhaseResolution": 1,
  "PixelBandwidth": 1923,
  "ProcedureStepDescription": "Cole^Michael",
  "ProtocolName": "cmrr_mbep2d_bold_2mm_MB8_Task_8x",
  "PulseSequenceDetails": "%CustomerSeq%\\cmrr_mbep2d_bold",
  "ReceiveCoilName": "32Ch_Head",
  "ReconMatrixPE": 104,
  "RepetitionTime": 0.785,
  "SAR": 0.11962,
  "ScanOptions": "PFP\\FS",
  "ScanningSequence": "EP",
  "SequenceName": "epfid2d1_104",
  "SequenceVariant": "SK\\SS",
  "SeriesDescription": "cmrr_mbep2d_bold_2mm_MB8_Task_8x",
  "SeriesNumber": 23,
  "ShimSetting": [2099, -413, -7265, 647, -79, -106, 56, -46],
  "SliceThickness": 2,
  "SliceTiming": [0, 0.4375, 0.0875, 0.525, 0.175, 0.6125, 0.2625, 0.7, 0.35, 0, 0.4375, 0.0875, 0.525, 0.175, 0.6125, 0.2625, 0.7, 0.35, 0, 0.4375, 0.0875, 0.525, 0.175, 0.6125, 0.2625, 0.7, 0.35, 0, 0.4375, 0.0875, 0.525, 0.175, 0.6125, 0.2625, 0.7, 0.35, 0, 0.4375, 0.0875, 0.525, 0.175, 0.6125, 0.2625, 0.7, 0.35, 0, 0.4375, 0.0875, 0.525, 0.175, 0.6125, 0.2625, 0.7, 0.35, 0, 0.4375, 0.0875, 0.525, 0.175, 0.6125, 0.2625, 0.7, 0.35, 0, 0.4375, 0.0875, 0.525, 0.175, 0.6125, 0.2625, 0.7, 0.35],
  "SoftwareVersions": "syngo MR B19",
  "SpacingBetweenSlices": 2,
  "StationName": "MRC35450",
  "TaskName": "cpro",
  "TotalReadoutTime": 0.0710717,
  "TxRefAmp": 333.307,
  "dcmmeta_affine": [
    [-2.0, -6.987684031400931e-08, 0.00012182994396425784, 101.98607635498047],
    [1.418550823473197e-06, 1.9998507499694824, 0.024434426799416542, -90.06849670410156],
    [0.00012182170758023858, -0.024434426799416542, 1.9998506307601929, -83.30166625976562],
    [0.0, 0.0, 0.0, 1.0]
],
  "dcmmeta_reorient_transform": [
    [0.0, -1.0, 0.0, 103.0],
    [1.0, 0.0, 0.0, 0.0],
    [0.0, 0.0, 1.0, 0.0],
    [0.0, 0.0, 0.0, 1.0]
],
  "dcmmeta_shape": [104, 104, 72, 581],
  "dcmmeta_slice_dim": 2,
  "dcmmeta_version": 0.6,
  "global": {
    "const": {
      "AcquisitionMatrix": [104, 0, 0, 104],
      "AngioFlag": "N",
      "BitsAllocated": 16,
      "BitsStored": 12,
      "Columns": 936,
      "EchoNumbers": 1,
      "EchoTime": 34.8,
      "EchoTrainLength": 1,
      "FlipAngle": 55.0,
      "HighBit": 11,
      "ImageOrientationPatient": [0.99999999814468, -7.09275404e-07, 6.091085282e-05, -3.4938419e-08, 0.99992536706323, 0.01221721340805],
      "ImagePositionPatient": [-933.98603643241, -947.85344323616, -96.033812955638],
      "ImageType": [
        "ORIGINAL",
        "PRIMARY",
        "M",
        "MB",
        "ND",
        "MOSAIC"
],
      "ImagedNucleus": "1H",
      "ImagingFrequency": 123.234834,
      "InPlanePhaseEncodingDirection": "COL",
      "MRAcquisitionType": "2D",
      "MagneticFieldStrength": 3.0,
      "Manufacturer": "SIEMENS",
      "ManufacturerModelName": "TrioTim",
      "Modality": "MR",
      "NumberOfAverages": 1.0,
      "NumberOfPhaseEncodingSteps": 91,
      "PercentPhaseFieldOfView": 100.0,
      "PercentSampling": 100.0,
      "PerformedProcedureStepStartTime": "141440.062000",
      "PhotometricInterpretation": "MONOCHROME2",
      "PixelBandwidth": 1923.0,
      "PixelRepresentation": 0,
      "PixelSpacing": [2.0, 2.0],
      "ProtocolName": "cmrr_mbep2d_bold_2mm_MB8_Task_8x",
      "RepetitionTime": 785.0,
      "Rows": 936,
      "SAR": 0.11961987056751,
      "SamplesPerPixel": 1,
      "ScanOptions": [
        "PFP",
        "FS"
],
      "ScanningSequence": "EP",
      "SequenceName": "epfid2d1_104",
      "SequenceVariant": [
        "SK",
        "SS"
],
      "SeriesDescription": "cmrr_mbep2d_bold_2mm_MB8_Task_8x",
      "SeriesNumber": 23,
      "SeriesTime": "162925.593000",
      "SliceLocation": -84.389623982404,
      "SliceThickness": 2.0,
      "SmallestImagePixelValue": 0,
      "SoftwareVersions": "syngo MR B19",
      "SpacingBetweenSlices": 1.9999999590964,
      "SpecificCharacterSet": "ISO_IR 100",
      "StudyID": "1",
      "StudyTime": "141440.031000",
      "TransmitCoilName": "Body",
      "VariableFlipAngleFlag": "N",
      "WindowCenterWidthExplanation": "Algo1",
      "dBdt": 0.0},
    "slices": {}
  },
  "time": {
    "samples": {
      "AcquisitionNumber": [1, 2, 3, 4, 5, 6, 7, 8, 9, 10, 11, 12, 13, 14, 15, 16, 17, 18, 19, 20, 21, 22, 23, 24, 25, 26, 27, 28, 29, 30, 31, 32, 33, 34, 35, 36, 37, 38, 39, 40, 41, 42, 43, 44, 45, 46, 47, 48, 49, 50, 51, 52, 53, 54, 55, 56, 57, 58, 59, 60, 61, 62, 63, 64, 65, 66, 67, 68, 69, 70, 71, 72, 73, 74, 75, 76, 77, 78, 79, 80, 81, 82, 83, 84, 85, 86, 87, 88, 89, 90, 91, 92, 93, 94, 95, 96, 97, 98, 99, 100, 101, 102, 103, 104, 105, 106, 107, 108, 109, 110, 111, 112, 113, 114, 115, 116, 117, 118, 119, 120, 121, 122, 123, 124, 125, 126, 127, 128, 129, 130, 131, 132, 133, 134, 135, 136, 137, 138, 139, 140, 141, 142, 143, 144, 145, 146, 147, 148, 149, 150, 151, 152, 153, 154, 155, 156, 157, 158, 159, 160, 161, 162, 163, 164, 165, 166, 167, 168, 169, 170, 171, 172, 173, 174, 175, 176, 177, 178, 179, 180, 181, 182, 183, 184, 185, 186, 187, 188, 189, 190, 191, 192, 193, 194, 195, 196, 197, 198, 199, 200, 201, 202, 203, 204, 205, 206, 207, 208, 209, 210, 211, 212, 213, 214, 215, 216, 217, 218, 219, 220, 221, 222, 223, 224, 225, 226, 227, 228, 229, 230, 231, 232, 233, 234, 235, 236, 237, 238, 239, 240, 241, 242, 243, 244, 245, 246, 247, 248, 249, 250, 251, 252, 253, 254, 255, 256, 257, 258, 259, 260, 261, 262, 263, 264, 265, 266, 267, 268, 269, 270, 271, 272, 273, 274, 275, 276, 277, 278, 279, 280, 281, 282, 283, 284, 285, 286, 287, 288, 289, 290, 291, 292, 293, 294, 295, 296, 297, 298, 299, 300, 301, 302, 303, 304, 305, 306, 307, 308, 309, 310, 311, 312, 313, 314, 315, 316, 317, 318, 319, 320, 321, 322, 323, 324, 325, 326, 327, 328, 329, 330, 331, 332, 333, 334, 335, 336, 337, 338, 339, 340, 341, 342, 343, 344, 345, 346, 347, 348, 349, 350, 351, 352, 353, 354, 355, 356, 357, 358, 359, 360, 361, 362, 363, 364, 365, 366, 367, 368, 369, 370, 371, 372, 373, 374, 375, 376, 377, 378, 379, 380, 381, 382, 383, 384, 385, 386, 387, 388, 389, 390, 391, 392, 393, 394, 395, 396, 397, 398, 399, 400, 401, 402, 403, 404, 405, 406, 407, 408, 409, 410, 411, 412, 413, 414, 415, 416, 417, 418, 419, 420, 421, 422, 423, 424, 425, 426, 427, 428, 429, 430, 431, 432, 433, 434, 435, 436, 437, 438, 439, 440, 441, 442, 443, 444, 445, 446, 447, 448, 449, 450, 451, 452, 453, 454, 455, 456, 457, 458, 459, 460, 461, 462, 463, 464, 465, 466, 467, 468, 469, 470, 471, 472, 473, 474, 475, 476, 477, 478, 479, 480, 481, 482, 483, 484, 485, 486, 487, 488, 489, 490, 491, 492, 493, 494, 495, 496, 497, 498, 499, 500, 501, 502, 503, 504, 505, 506, 507, 508, 509, 510, 511, 512, 513, 514, 515, 516, 517, 518, 519, 520, 521, 522, 523, 524, 525, 526, 527, 528, 529, 530, 531, 532, 533, 534, 535, 536, 537, 538, 539, 540, 541, 542, 543, 544, 545, 546, 547, 548, 549, 550, 551, 552, 553, 554, 555, 556, 557, 558, 559, 560, 561, 562, 563, 564, 565, 566, 567, 568, 569, 570, 571, 572, 573, 574, 575, 576, 577, 578, 579, 580, 581],
      "AcquisitionTime": ["153435.690000", "153436.477500", "153437.265000", "153438.052500", "153438.842500", "153439.630000", "153440.417500", "153441.205000", "153441.995000", "153442.782500", "153443.570000", "153444.357500", "153445.147500", "153445.935000", "153446.722500", "153447.512500", "153448.300000", "153449.087500", "153449.875000", "153450.665000", "153451.452500", "153452.240000", "153453.027500", "153453.817500", "153454.605000", "153455.392500", "153456.180000", "153456.970000", "153457.757500", "153458.545000", "153459.332500", "153500.122500", "153500.910000", "153501.697500", "153502.485000", "153503.275000", "153504.062500", "153504.850000", "153505.640000", "153506.427500", "153507.215000", "153508.002500", "153508.792500", "153509.580000", "153510.367500", "153511.155000", "153511.945000", "153512.732500", "153513.520000", "153514.307500", "153515.097500", "153515.885000", "153516.672500", "153517.460000", "153518.250000", "153519.037500", "153519.825000", "153520.612500", "153521.402500", "153522.190000", "153522.977500", "153523.767500", "153524.555000", "153525.342500", "153526.130000", "153526.920000", "153527.707500", "153528.495000", "153529.282500", "153530.072500", "153530.860000", "153531.647500", "153532.435000", "153533.225000", "153534.012500", "153534.800000", "153535.587500", "153536.377500", "153537.165000", "153537.952500", "153538.742500", "153539.530000", "153540.317500", "153541.105000", "153541.895000", "153542.682500", "153543.470000", "153544.257500", "153545.047500", "153545.835000", "153546.622500", "153547.410000", "153548.200000", "153548.987500", "153549.775000", "153550.562500", "153551.352500", "153552.140000", "153552.927500", "153553.715000", "153554.505000", "153555.292500", "153556.080000", "153556.870000", "153557.657500", "153558.445000", "153559.232500", "153600.022500", "153600.810000", "153601.597500", "153602.385000", "153603.175000", "153603.962500", "153604.750000", "153605.537500", "153606.327500", "153607.115000", "153607.902500", "153608.690000", "153609.480000", "153610.267500", "153611.055000", "153611.842500", "153612.632500", "153613.420000", "153614.207500", "153614.997500", "153615.785000", "153616.572500", "153617.360000", "153618.150000", "153618.937500", "153619.725000", "153620.512500", "153621.302500", "153622.090000", "153622.877500", "153623.665000", "153624.455000", "153625.242500", "153626.030000", "153626.817500", "153627.607500", "153628.395000", "153629.182500", "153629.970000", "153630.760000", "153631.547500", "153632.335000", "153633.125000", "153633.912500", "153634.700000", "153635.487500", "153636.277500", "153637.065000", "153637.852500", "153638.640000", "153639.430000", "153640.217500", "153641.005000", "153641.792500", "153642.582500", "153643.370000", "153644.157500", "153644.945000", "153645.735000", "153646.522500", "153647.310000", "153648.097500", "153648.887500", "153649.675000", "153650.462500", "153651.252500", "153652.040000", "153652.827500", "153653.615000", "153654.405000", "153655.192500", "153655.980000", "153656.767500", "153657.557500", "153658.345000", "153659.132500", "153659.920000", "153700.710000", "153701.497500", "153702.285000", "153703.072500", "153703.862500", "153704.650000", "153705.437500", "153706.225000", "153707.015000", "153707.802500", "153708.590000", "153709.380000", "153710.167500", "153710.955000", "153711.742500", "153712.532500", "153713.320000", "153714.107500", "153714.895000", "153715.685000", "153716.472500", "153717.260000", "153718.047500", "153718.837500", "153719.625000", "153720.412500", "153721.200000", "153721.990000", "153722.777500", "153723.565000", "153724.352500", "153725.142500", "153725.930000", "153726.717500", "153727.507500", "153728.295000", "153729.082500", "153729.870000", "153730.660000", "153731.447500", "153732.235000", "153733.022500", "153733.812500", "153734.600000", "153735.387500", "153736.175000", "153736.965000", "153737.752500", "153738.540000", "153739.327500", "153740.117500", "153740.905000", "153741.692500", "153742.480000", "153743.270000", "153744.057500", "153744.845000", "153745.635000", "153746.422500", "153747.210000", "153747.997500", "153748.787500", "153749.575000", "153750.362500", "153751.150000", "153751.940000", "153752.727500", "153753.515000", "153754.302500", "153755.092500", "153755.880000", "153756.667500", "153757.455000", "153758.245000", "153759.032500", "153759.820000", "153800.607500", "153801.397500", "153802.185000", "153802.972500", "153803.762500", "153804.550000", "153805.337500", "153806.125000", "153806.915000", "153807.702500", "153808.490000", "153809.277500", "153810.067500", "153810.855000", "153811.642500", "153812.430000", "153813.220000", "153814.007500", "153814.795000", "153815.582500", "153816.372500", "153817.160000", "153817.947500", "153818.735000", "153819.525000", "153820.312500", "153821.100000", "153821.890000", "153822.677500", "153823.465000", "153824.252500", "153825.042500", "153825.830000", "153826.617500", "153827.405000", "153828.195000", "153828.982500", "153829.770000", "153830.557500", "153831.347500", "153832.135000", "153832.922500", "153833.710000", "153834.500000", "153835.287500", "153836.075000", "153836.862500", "153837.652500", "153838.440000", "153839.227500", "153840.017500", "153840.805000", "153841.592500", "153842.380000", "153843.170000", "153843.957500", "153844.745000", "153845.532500", "153846.322500", "153847.110000", "153847.897500", "153848.685000", "153849.475000", "153850.262500", "153851.050000", "153851.837500", "153852.627500", "153853.415000", "153854.202500", "153854.992500", "153855.780000", "153856.567500", "153857.355000", "153858.145000", "153858.932500", "153859.720000", "153900.507500", "153901.297500", "153902.085000", "153902.872500", "153903.660000", "153904.450000", "153905.237500", "153906.025000", "153906.812500", "153907.602500", "153908.390000", "153909.177500", "153909.965000", "153910.755000", "153911.542500", "153912.330000", "153913.120000", "153913.907500", "153914.695000", "153915.482500", "153916.272500", "153917.060000", "153917.847500", "153918.635000", "153919.425000", "153920.212500", "153921.000000", "153921.787500", "153922.577500", "153923.365000", "153924.152500", "153924.940000", "153925.730000", "153926.517500", "153927.305000", "153928.092500", "153928.882500", "153929.670000", "153930.457500", "153931.247500", "153932.035000", "153932.822500", "153933.610000", "153934.400000", "153935.187500", "153935.975000", "153936.762500", "153937.552500", "153938.340000", "153939.127500", "153939.915000", "153940.705000", "153941.492500", "153942.280000", "153943.067500", "153943.857500", "153944.645000", "153945.432500", "153946.220000", "153947.010000", "153947.797500", "153948.585000", "153949.375000", "153950.162500", "153950.950000", "153951.737500", "153952.527500", "153953.315000", "153954.102500", "153954.890000", "153955.680000", "153956.467500", "153957.255000", "153958.042500", "153958.832500", "153959.620000", "154000.407500", "154001.195000", "154001.985000", "154002.772500", "154003.560000", "154004.347500", "154005.137500", "154005.925000", "154006.712500", "154007.502500", "154008.290000", "154009.077500", "154009.865000", "154010.655000", "154011.442500", "154012.230000", "154013.017500", "154013.807500", "154014.595000", "154015.382500", "154016.170000", "154016.960000", "154017.747500", "154018.535000", "154019.322500", "154020.112500", "154020.900000", "154021.687500", "154022.475000", "154023.265000", "154024.052500", "154024.840000", "154025.630000", "154026.417500", "154027.205000", "154027.992500", "154028.782500", "154029.570000", "154030.357500", "154031.145000", "154031.935000", "154032.722500", "154033.510000", "154034.297500", "154035.087500", "154035.875000", "154036.662500", "154037.450000", "154038.240000", "154039.027500", "154039.815000", "154040.602500", "154041.392500", "154042.180000", "154042.967500", "154043.757500", "154044.545000", "154045.332500", "154046.120000", "154046.910000", "154047.697500", "154048.485000", "154049.272500", "154050.062500", "154050.850000", "154051.637500", "154052.425000", "154053.215000", "154054.002500", "154054.790000", "154055.577500", "154056.367500", "154057.155000", "154057.942500", "154058.730000", "154059.520000", "154100.307500", "154101.095000", "154101.885000", "154102.672500", "154103.460000", "154104.247500", "154105.037500", "154105.825000", "154106.612500", "154107.400000", "154108.190000", "154108.977500", "154109.765000", "154110.552500", "154111.342500", "154112.130000", "154112.917500", "154113.705000", "154114.495000", "154115.282500", "154116.070000", "154116.857500", "154117.647500", "154118.435000", "154119.222500", "154120.012500", "154120.800000", "154121.587500", "154122.375000", "154123.165000", "154123.952500", "154124.740000", "154125.527500", "154126.317500", "154127.105000", "154127.892500", "154128.680000", "154129.470000", "154130.257500", "154131.045000", "154131.832500", "154132.622500", "154133.410000", "154134.197500", "154134.985000", "154135.775000", "154136.562500", "154137.350000", "154138.140000", "154138.927500", "154139.715000", "154140.502500", "154141.292500", "154142.080000", "154142.867500", "154143.655000", "154144.445000", "154145.232500", "154146.020000", "154146.807500", "154147.597500", "154148.385000", "154149.172500", "154149.960000", "154150.750000", "154151.537500", "154152.325000", "154153.112500", "154153.902500", "154154.690000", "154155.477500", "154156.267500", "154157.055000", "154157.842500", "154158.630000", "154159.420000", "154200.207500", "154200.995000", "154201.782500", "154202.572500", "154203.360000", "154204.147500", "154204.935000", "154205.725000", "154206.512500", "154207.300000", "154208.087500", "154208.877500", "154209.665000", "154210.452500", "154211.242500", "154212.030000", "154212.817500"],
      "ContentTime": ["162925.593000", "162925.609000", "162925.609000", "162925.609000", "162925.609000", "162925.609000", "162925.625000", "163025.562000", "163025.578000", "163025.578000", "163025.578000", "163025.578000", "163025.578000", "163025.578000", "163025.578000", "163025.578000", "163025.593000", "163025.593000", "163025.593000", "163025.593000", "163025.593000", "163025.593000", "163025.609000", "163025.609000", "163025.609000", "163025.609000", "163025.609000", "163025.609000", "163025.609000", "163025.625000", "163025.625000", "163025.625000", "163025.625000", "163025.625000", "163025.625000", "163125.562000", "163125.578000", "163125.578000", "163125.578000", "163125.578000", "163125.578000", "163125.578000", "163125.578000", "163125.593000", "163125.593000", "163125.593000", "163125.593000", "163125.593000", "163125.593000", "163125.609000", "163125.609000", "163125.609000", "163125.609000", "163125.609000", "163125.609000", "163125.609000", "163125.625000", "163125.625000", "163125.625000", "163125.625000", "163125.625000", "163125.625000", "163125.640000", "163225.562000", "163225.578000", "163225.578000", "163225.578000", "163225.578000", "163225.578000", "163225.578000", "163225.578000", "163225.593000", "163225.593000", "163225.593000", "163225.593000", "163225.593000", "163225.593000", "163225.609000", "163225.609000", "163225.609000", "163225.609000", "163225.609000", "163225.609000", "163225.609000", "163225.625000", "163225.625000", "163225.625000", "163225.625000", "163225.625000", "163225.625000", "163325.562000", "163325.578000", "163325.578000", "163325.578000", "163325.578000", "163325.578000", "163325.578000", "163325.578000", "163325.578000", "163325.593000", "163325.593000", "163325.593000", "163325.593000", "163325.593000", "163325.593000", "163325.593000", "163325.609000", "163325.609000", "163325.609000", "163325.609000", "163325.609000", "163325.609000", "163325.609000", "163325.625000", "163325.625000", "163325.625000", "163325.625000", "163325.625000", "163425.562000", "163425.578000", "163425.578000", "163425.578000", "163425.578000", "163425.578000", "163425.578000", "163425.578000", "163425.578000", "163425.593000", "163425.593000", "163425.593000", "163425.593000", "163425.593000", "163425.593000", "163425.593000", "163425.609000", "163425.609000", "163425.609000", "163425.609000", "163425.609000", "163425.609000", "163425.609000", "163425.625000", "163425.625000", "163425.625000", "163425.625000", "163425.625000", "163425.625000", "163525.562000", "163525.578000", "163525.578000", "163525.578000", "163525.578000", "163525.578000", "163525.578000", "163525.578000", "163525.593000", "163525.593000", "163525.593000", "163525.593000", "163525.593000", "163525.593000", "163525.593000", "163525.609000", "163525.609000", "163525.609000", "163525.609000", "163525.609000", "163525.609000", "163525.609000", "163525.625000", "163525.625000", "163525.625000", "163525.625000", "163525.625000", "163525.625000", "163625.562000", "163625.578000", "163625.578000", "163625.578000", "163625.578000", "163625.578000", "163625.578000", "163625.578000", "163625.593000", "163625.593000", "163625.593000", "163625.593000", "163625.593000", "163625.593000", "163625.593000", "163625.609000", "163625.609000", "163625.609000", "163625.609000", "163625.609000", "163625.609000", "163625.625000", "163625.625000", "163625.625000", "163625.625000", "163625.625000", "163625.625000", "163625.625000", "163725.562000", "163725.578000", "163725.578000", "163725.578000", "163725.578000", "163725.578000", "163725.578000", "163725.578000", "163725.593000", "163725.593000", "163725.593000", "163725.593000", "163725.593000", "163725.593000", "163725.609000", "163725.609000", "163725.609000", "163725.609000", "163725.609000", "163725.609000", "163725.609000", "163725.625000", "163725.625000", "163725.625000", "163725.625000", "163725.625000", "163725.625000", "163725.625000", "163825.562000", "163825.578000", "163825.578000", "163825.578000", "163825.578000", "163825.578000", "163825.578000", "163825.578000", "163825.593000", "163825.593000", "163825.593000", "163825.593000", "163825.593000", "163825.593000", "163825.593000", "163825.609000", "163825.609000", "163825.609000", "163825.609000", "163825.609000", "163825.625000", "163825.625000", "163825.625000", "163825.625000", "163825.625000", "163825.640000", "163825.640000", "163825.640000", "163925.562000", "163925.578000", "163925.578000", "163925.578000", "163925.578000", "163925.578000", "163925.578000", "163925.578000", "163925.593000", "163925.593000", "163925.593000", "163925.593000", "163925.593000", "163925.593000", "163925.593000", "163925.593000", "163925.609000", "163925.609000", "163925.609000", "163925.609000", "163925.609000", "163925.609000", "163925.609000", "163925.625000", "163925.625000", "163925.625000", "163925.625000", "163925.625000", "163925.625000", "164025.562000", "164025.578000", "164025.578000", "164025.578000", "164025.578000", "164025.578000", "164025.578000", "164025.578000", "164025.593000", "164025.593000", "164025.593000", "164025.593000", "164025.593000", "164025.593000", "164025.593000", "164025.609000", "164025.609000", "164025.609000", "164025.609000", "164025.609000", "164025.609000", "164025.609000", "164025.625000", "164025.625000", "164025.625000", "164025.625000", "164025.625000", "164025.625000", "164125.562000", "164125.578000", "164125.578000", "164125.578000", "164125.578000", "164125.578000", "164125.578000", "164125.578000", "164125.593000", "164125.593000", "164125.593000", "164125.593000", "164125.593000", "164125.593000", "164125.593000", "164125.609000", "164125.609000", "164125.609000", "164125.609000", "164125.609000", "164125.625000", "164125.625000", "164125.625000", "164125.625000", "164125.625000", "164125.625000", "164125.625000", "164125.640000", "164225.562000", "164225.578000", "164225.578000", "164225.578000", "164225.578000", "164225.578000", "164225.578000", "164225.578000", "164225.578000", "164225.593000", "164225.593000", "164225.593000", "164225.593000", "164225.593000", "164225.593000", "164225.593000", "164225.609000", "164225.609000", "164225.609000", "164225.609000", "164225.609000", "164225.609000", "164225.609000", "164225.625000", "164225.625000", "164225.625000", "164225.625000", "164225.625000", "164225.625000", "164325.562000", "164325.578000", "164325.578000", "164325.578000", "164325.578000", "164325.578000", "164325.578000", "164325.578000", "164325.593000", "164325.593000", "164325.593000", "164325.593000", "164325.593000", "164325.593000", "164325.593000", "164325.609000", "164325.609000", "164325.609000", "164325.609000", "164325.609000", "164325.609000", "164325.625000", "164325.625000", "164325.625000", "164325.625000", "164325.625000", "164325.625000", "164325.640000", "164425.562000", "164425.578000", "164425.578000", "164425.578000", "164425.578000", "164425.578000", "164425.578000", "164425.578000", "164425.593000", "164425.593000", "164425.593000", "164425.593000", "164425.593000", "164425.593000", "164425.609000", "164425.609000", "164425.609000", "164425.609000", "164425.609000", "164425.609000", "164425.625000", "164425.625000", "164425.625000", "164425.625000", "164425.625000", "164425.625000", "164425.625000", "164425.640000", "164525.562000", "164525.578000", "164525.578000", "164525.578000", "164525.578000", "164525.578000", "164525.578000", "164525.578000", "164525.593000", "164525.593000", "164525.593000", "164525.593000", "164525.593000", "164525.593000", "164525.593000", "164525.609000", "164525.609000", "164525.609000", "164525.609000", "164525.609000", "164525.625000", "164525.625000", "164525.625000", "164525.625000", "164525.625000", "164525.625000", "164525.625000", "164525.640000", "164625.562000", "164625.578000", "164625.578000", "164625.578000", "164625.578000", "164625.578000", "164625.578000", "164625.578000", "164625.593000", "164625.593000", "164625.593000", "164625.593000", "164625.593000", "164625.593000", "164625.593000", "164625.609000", "164625.609000", "164625.609000", "164625.609000", "164625.609000", "164625.609000", "164625.609000", "164625.625000", "164625.625000", "164625.625000", "164625.625000", "164625.625000", "164625.625000", "164725.562000", "164725.578000", "164725.578000", "164725.578000", "164725.578000", "164725.578000", "164725.578000", "164725.578000", "164725.593000", "164725.593000", "164725.593000", "164725.593000", "164725.593000", "164725.593000", "164725.593000", "164725.609000", "164725.609000", "164725.609000", "164725.609000", "164725.609000", "164725.609000", "164725.609000", "164725.625000", "164725.625000", "164725.625000", "164725.625000", "164725.625000", "164725.640000", "164725.640000", "164825.562000", "164825.578000", "164825.578000", "164825.578000", "164825.578000", "164825.578000", "164825.578000", "164825.578000", "164825.593000", "164825.593000", "164825.593000", "164825.593000", "164825.593000", "164825.593000", "164825.593000", "164825.609000", "164825.609000", "164825.609000", "164825.609000", "164825.609000", "164825.609000", "164825.609000", "164825.625000", "164825.625000", "164825.625000", "164825.625000", "164825.625000", "164825.625000", "164925.562000", "164925.578000", "164925.578000", "164925.578000", "164925.578000", "164925.578000", "164925.578000", "164925.578000", "164925.593000", "164925.593000", "164925.593000", "164925.593000", "164925.593000", "164925.593000", "164925.593000", "164925.609000", "164925.609000", "164925.609000", "164925.609000", "164925.609000", "164925.609000", "164925.609000", "164925.625000", "164925.625000", "164925.625000", "164925.625000", "164925.625000", "164925.625000", "164947.531000", "164947.531000", "164947.531000", "164947.531000", "164947.531000", "164947.531000", "164947.531000", "164947.546000", "164947.546000", "164947.546000", "164947.546000"],
