{
  "AcquisitionMatrixPE": 104,
  "AcquisitionNumber": 1,
  "AcquisitionTime": "15:26:26.727500",
  "BandwidthPerPixelPhaseEncode": 13.935,
  "BaseResolution": 104,
  "CoilString": "C:HEA;HEP",
  "ConversionSoftware": "dcm2niix",
  "ConversionSoftwareVersion": "v1.0.20210317",
  "DerivedVendorReportedEchoSpacing": 0.000690017,
  "DeviceSerialNumber": "35450",
  "DwellTime": 2.5e-06,
  "EchoTime": 0.0348,
  "EffectiveEchoSpacing": 0.000690017,
  "FlipAngle": 55,
  "ImageComments": "Unaliased MB8/PE3",
  "ImageOrientationPatientDICOM": [1, -7.09275e-07, 6.09109e-05, -3.49384e-08, 0.999925, 0.0122172],
  "ImageType": [
    "ORIGINAL",
    "PRIMARY",
    "M",
    "MB",
    "ND",
    "MOSAIC"
],
  "ImagingFrequency": 123.235,
  "InPlanePhaseEncodingDirectionDICOM": "COL",
  "InstitutionAddress": "Univeristy Ave. 197,Newark,North East,US,07102-1814",
  "InstitutionName": "RUBIC",
  "InstitutionalDepartmentName": "Department",
  "MRAcquisitionType": "2D",
  "MagneticFieldStrength": 3,
  "Manufacturer": "Siemens",
  "ManufacturersModelName": "TrioTim",
  "Modality": "MR",
  "MultibandAccelerationFactor": 8,
  "PartialFourier": 0.875,
  "PatientPosition": "HFS",
  "PercentPhaseFOV": 100,
  "PercentSampling": 100,
  "PhaseEncodingDirection": "j-",
  "PhaseEncodingSteps": 91,
  "PhaseResolution": 1,
  "PixelBandwidth": 1923,
  "ProcedureStepDescription": "Cole^Michael",
  "ProtocolName": "cmrr_mbep2d_bold_2mm_MB8_Task_8x",
  "PulseSequenceDetails": "%CustomerSeq%\\cmrr_mbep2d_bold",
  "ReceiveCoilName": "32Ch_Head",
  "ReconMatrixPE": 104,
  "RepetitionTime": 0.785,
  "SAR": 0.11962,
  "ScanOptions": "PFP\\FS",
  "ScanningSequence": "EP",
  "SequenceName": "epfid2d1_104",
  "SequenceVariant": "SK\\SS",
  "SeriesDescription": "cmrr_mbep2d_bold_2mm_MB8_Task_8x",
  "SeriesNumber": 21,
  "ShimSetting": [2099, -413, -7265, 647, -79, -106, 56, -46],
  "SliceThickness": 2,
  "SliceTiming": [0, 0.4375, 0.0875, 0.525, 0.175, 0.6125, 0.2625, 0.7025, 0.35, 0, 0.4375, 0.0875, 0.525, 0.175, 0.6125, 0.2625, 0.7025, 0.35, 0, 0.4375, 0.0875, 0.525, 0.175, 0.6125, 0.2625, 0.7025, 0.35, 0, 0.4375, 0.0875, 0.525, 0.175, 0.6125, 0.2625, 0.7025, 0.35, 0, 0.4375, 0.0875, 0.525, 0.175, 0.6125, 0.2625, 0.7025, 0.35, 0, 0.4375, 0.0875, 0.525, 0.175, 0.6125, 0.2625, 0.7025, 0.35, 0, 0.4375, 0.0875, 0.525, 0.175, 0.6125, 0.2625, 0.7025, 0.35, 0, 0.4375, 0.0875, 0.525, 0.175, 0.6125, 0.2625, 0.7025, 0.35],
  "SoftwareVersions": "syngo MR B19",
  "SpacingBetweenSlices": 2,
  "StationName": "MRC35450",
  "TaskName": "cpro",
  "TotalReadoutTime": 0.0710717,
  "TxRefAmp": 333.307,
  "dcmmeta_affine": [
    [-2.0, -6.987684031400931e-08, 0.00012182994396425784, 101.98607635498047],
    [1.418550823473197e-06, 1.9998507499694824, 0.024434426799416542, -90.06849670410156],
    [0.00012182170758023858, -0.024434426799416542, 1.9998506307601929, -83.30166625976562],
    [0.0, 0.0, 0.0, 1.0]
],
  "dcmmeta_reorient_transform": [
    [0.0, -1.0, 0.0, 103.0],
    [1.0, 0.0, 0.0, 0.0],
    [0.0, 0.0, 1.0, 0.0],
    [0.0, 0.0, 0.0, 1.0]
],
  "dcmmeta_shape": [104, 104, 72, 581],
  "dcmmeta_slice_dim": 2,
  "dcmmeta_version": 0.6,
  "global": {
    "const": {
      "AcquisitionMatrix": [104, 0, 0, 104],
      "AngioFlag": "N",
      "BitsAllocated": 16,
      "BitsStored": 12,
      "Columns": 936,
      "EchoNumbers": 1,
      "EchoTime": 34.8,
      "EchoTrainLength": 1,
      "FlipAngle": 55.0,
      "HighBit": 11,
      "ImageOrientationPatient": [0.99999999814468, -7.09275404e-07, 6.091085282e-05, -3.4938419e-08, 0.99992536706323, 0.01221721340805],
      "ImagePositionPatient": [-933.98603643241, -947.85344323616, -96.033812955638],
      "ImageType": [
        "ORIGINAL",
        "PRIMARY",
        "M",
        "MB",
        "ND",
        "MOSAIC"
],
      "ImagedNucleus": "1H",
      "ImagingFrequency": 123.234834,
      "InPlanePhaseEncodingDirection": "COL",
      "MRAcquisitionType": "2D",
      "MagneticFieldStrength": 3.0,
      "Manufacturer": "SIEMENS",
      "ManufacturerModelName": "TrioTim",
      "Modality": "MR",
      "NumberOfAverages": 1.0,
      "NumberOfPhaseEncodingSteps": 91,
      "PercentPhaseFieldOfView": 100.0,
      "PercentSampling": 100.0,
      "PerformedProcedureStepStartTime": "141440.062000",
      "PhotometricInterpretation": "MONOCHROME2",
      "PixelBandwidth": 1923.0,
      "PixelRepresentation": 0,
      "PixelSpacing": [2.0, 2.0],
      "ProtocolName": "cmrr_mbep2d_bold_2mm_MB8_Task_8x",
      "RepetitionTime": 785.0,
      "Rows": 936,
      "SAR": 0.11961987056751,
      "SamplesPerPixel": 1,
      "ScanOptions": [
        "PFP",
        "FS"
],
      "ScanningSequence": "EP",
      "SequenceName": "epfid2d1_104",
      "SequenceVariant": [
        "SK",
        "SS"
],
      "SeriesDescription": "cmrr_mbep2d_bold_2mm_MB8_Task_8x",
      "SeriesNumber": 21,
      "SeriesTime": "160757.578000",
      "SliceLocation": -84.389623982404,
      "SliceThickness": 2.0,
      "SmallestImagePixelValue": 0,
      "SoftwareVersions": "syngo MR B19",
      "SpacingBetweenSlices": 1.9999999590964,
      "SpecificCharacterSet": "ISO_IR 100",
      "StudyID": "1",
      "StudyTime": "141440.031000",
      "TransmitCoilName": "Body",
      "VariableFlipAngleFlag": "N",
      "WindowCenterWidthExplanation": "Algo1",
      "dBdt": 0.0},
    "slices": {}
  },
  "time": {
    "samples": {
      "AcquisitionNumber": [1, 2, 3, 4, 5, 6, 7, 8, 9, 10, 11, 12, 13, 14, 15, 16, 17, 18, 19, 20, 21, 22, 23, 24, 25, 26, 27, 28, 29, 30, 31, 32, 33, 34, 35, 36, 37, 38, 39, 40, 41, 42, 43, 44, 45, 46, 47, 48, 49, 50, 51, 52, 53, 54, 55, 56, 57, 58, 59, 60, 61, 62, 63, 64, 65, 66, 67, 68, 69, 70, 71, 72, 73, 74, 75, 76, 77, 78, 79, 80, 81, 82, 83, 84, 85, 86, 87, 88, 89, 90, 91, 92, 93, 94, 95, 96, 97, 98, 99, 100, 101, 102, 103, 104, 105, 106, 107, 108, 109, 110, 111, 112, 113, 114, 115, 116, 117, 118, 119, 120, 121, 122, 123, 124, 125, 126, 127, 128, 129, 130, 131, 132, 133, 134, 135, 136, 137, 138, 139, 140, 141, 142, 143, 144, 145, 146, 147, 148, 149, 150, 151, 152, 153, 154, 155, 156, 157, 158, 159, 160, 161, 162, 163, 164, 165, 166, 167, 168, 169, 170, 171, 172, 173, 174, 175, 176, 177, 178, 179, 180, 181, 182, 183, 184, 185, 186, 187, 188, 189, 190, 191, 192, 193, 194, 195, 196, 197, 198, 199, 200, 201, 202, 203, 204, 205, 206, 207, 208, 209, 210, 211, 212, 213, 214, 215, 216, 217, 218, 219, 220, 221, 222, 223, 224, 225, 226, 227, 228, 229, 230, 231, 232, 233, 234, 235, 236, 237, 238, 239, 240, 241, 242, 243, 244, 245, 246, 247, 248, 249, 250, 251, 252, 253, 254, 255, 256, 257, 258, 259, 260, 261, 262, 263, 264, 265, 266, 267, 268, 269, 270, 271, 272, 273, 274, 275, 276, 277, 278, 279, 280, 281, 282, 283, 284, 285, 286, 287, 288, 289, 290, 291, 292, 293, 294, 295, 296, 297, 298, 299, 300, 301, 302, 303, 304, 305, 306, 307, 308, 309, 310, 311, 312, 313, 314, 315, 316, 317, 318, 319, 320, 321, 322, 323, 324, 325, 326, 327, 328, 329, 330, 331, 332, 333, 334, 335, 336, 337, 338, 339, 340, 341, 342, 343, 344, 345, 346, 347, 348, 349, 350, 351, 352, 353, 354, 355, 356, 357, 358, 359, 360, 361, 362, 363, 364, 365, 366, 367, 368, 369, 370, 371, 372, 373, 374, 375, 376, 377, 378, 379, 380, 381, 382, 383, 384, 385, 386, 387, 388, 389, 390, 391, 392, 393, 394, 395, 396, 397, 398, 399, 400, 401, 402, 403, 404, 405, 406, 407, 408, 409, 410, 411, 412, 413, 414, 415, 416, 417, 418, 419, 420, 421, 422, 423, 424, 425, 426, 427, 428, 429, 430, 431, 432, 433, 434, 435, 436, 437, 438, 439, 440, 441, 442, 443, 444, 445, 446, 447, 448, 449, 450, 451, 452, 453, 454, 455, 456, 457, 458, 459, 460, 461, 462, 463, 464, 465, 466, 467, 468, 469, 470, 471, 472, 473, 474, 475, 476, 477, 478, 479, 480, 481, 482, 483, 484, 485, 486, 487, 488, 489, 490, 491, 492, 493, 494, 495, 496, 497, 498, 499, 500, 501, 502, 503, 504, 505, 506, 507, 508, 509, 510, 511, 512, 513, 514, 515, 516, 517, 518, 519, 520, 521, 522, 523, 524, 525, 526, 527, 528, 529, 530, 531, 532, 533, 534, 535, 536, 537, 538, 539, 540, 541, 542, 543, 544, 545, 546, 547, 548, 549, 550, 551, 552, 553, 554, 555, 556, 557, 558, 559, 560, 561, 562, 563, 564, 565, 566, 567, 568, 569, 570, 571, 572, 573, 574, 575, 576, 577, 578, 579, 580, 581],
      "AcquisitionTime": ["152626.727500", "152627.517500", "152628.305000", "152629.092500", "152629.880000", "152630.670000", "152631.457500", "152632.245000", "152633.032500", "152633.822500", "152634.610000", "152635.397500", "152636.187500", "152636.975000", "152637.762500", "152638.550000", "152639.340000", "152640.127500", "152640.915000", "152641.702500", "152642.492500", "152643.280000", "152644.067500", "152644.855000", "152645.645000", "152646.432500", "152647.220000", "152648.007500", "152648.797500", "152649.585000", "152650.372500", "152651.162500", "152651.950000", "152652.737500", "152653.525000", "152654.315000", "152655.102500", "152655.890000", "152656.677500", "152657.467500", "152658.255000", "152659.042500", "152659.830000", "152700.620000", "152701.407500", "152702.195000", "152702.982500", "152703.772500", "152704.560000", "152705.347500", "152706.135000", "152706.925000", "152707.712500", "152708.500000", "152709.290000", "152710.077500", "152710.865000", "152711.652500", "152712.442500", "152713.230000", "152714.017500", "152714.805000", "152715.595000", "152716.382500", "152717.170000", "152717.957500", "152718.747500", "152719.535000", "152720.322500", "152721.110000", "152721.900000", "152722.687500", "152723.475000", "152724.262500", "152725.052500", "152725.840000", "152726.627500", "152727.417500", "152728.205000", "152728.992500", "152729.780000", "152730.570000", "152731.357500", "152732.145000", "152732.932500", "152733.722500", "152734.510000", "152735.297500", "152736.085000", "152736.875000", "152737.662500", "152738.450000", "152739.237500", "152740.027500", "152740.815000", "152741.602500", "152742.390000", "152743.180000", "152743.967500", "152744.755000", "152745.545000", "152746.332500", "152747.120000", "152747.907500", "152748.697500", "152749.485000", "152750.272500", "152751.060000", "152751.850000", "152752.637500", "152753.425000", "152754.212500", "152755.002500", "152755.790000", "152756.577500", "152757.365000", "152758.155000", "152758.942500", "152759.730000", "152800.517500", "152801.307500", "152802.095000", "152802.882500", "152803.672500", "152804.460000", "152805.247500", "152806.035000", "152806.825000", "152807.612500", "152808.400000", "152809.187500", "152809.977500", "152810.765000", "152811.552500", "152812.340000", "152813.130000", "152813.917500", "152814.705000", "152815.492500", "152816.282500", "152817.070000", "152817.857500", "152818.645000", "152819.435000", "152820.222500", "152821.010000", "152821.800000", "152822.587500", "152823.375000", "152824.162500", "152824.952500", "152825.740000", "152826.527500", "152827.315000", "152828.105000", "152828.892500", "152829.680000", "152830.467500", "152831.257500", "152832.045000", "152832.832500", "152833.620000", "152834.410000", "152835.197500", "152835.985000", "152836.772500", "152837.562500", "152838.350000", "152839.137500", "152839.927500", "152840.715000", "152841.502500", "152842.290000", "152843.080000", "152843.867500", "152844.655000", "152845.442500", "152846.232500", "152847.020000", "152847.807500", "152848.595000", "152849.385000", "152850.172500", "152850.960000", "152851.747500", "152852.537500", "152853.325000", "152854.112500", "152854.900000", "152855.690000", "152856.477500", "152857.265000", "152858.055000", "152858.842500", "152859.630000", "152900.417500", "152901.207500", "152901.995000", "152902.782500", "152903.570000", "152904.360000", "152905.147500", "152905.935000", "152906.722500", "152907.512500", "152908.300000", "152909.087500", "152909.875000", "152910.665000", "152911.452500", "152912.240000", "152913.027500", "152913.817500", "152914.605000", "152915.392500", "152916.182500", "152916.970000", "152917.757500", "152918.545000", "152919.335000", "152920.122500", "152920.910000", "152921.697500", "152922.487500", "152923.275000", "152924.062500", "152924.850000", "152925.640000", "152926.427500", "152927.215000", "152928.002500", "152928.792500", "152929.580000", "152930.367500", "152931.155000", "152931.945000", "152932.732500", "152933.520000", "152934.310000", "152935.097500", "152935.885000", "152936.672500", "152937.462500", "152938.250000", "152939.037500", "152939.825000", "152940.615000", "152941.402500", "152942.190000", "152942.977500", "152943.767500", "152944.555000", "152945.342500", "152946.130000", "152946.920000", "152947.707500", "152948.495000", "152949.282500", "152950.072500", "152950.860000", "152951.647500", "152952.437500", "152953.225000", "152954.012500", "152954.800000", "152955.590000", "152956.377500", "152957.165000", "152957.952500", "152958.742500", "152959.530000", "153000.317500", "153001.105000", "153001.895000", "153002.682500", "153003.470000", "153004.257500", "153005.047500", "153005.835000", "153006.622500", "153007.412500", "153008.200000", "153008.987500", "153009.775000", "153010.565000", "153011.352500", "153012.140000", "153012.927500", "153013.717500", "153014.505000", "153015.292500", "153016.080000", "153016.870000", "153017.657500", "153018.445000", "153019.232500", "153020.022500", "153020.810000", "153021.597500", "153022.385000", "153023.175000", "153023.962500", "153024.750000", "153025.540000", "153026.327500", "153027.115000", "153027.902500", "153028.692500", "153029.480000", "153030.267500", "153031.055000", "153031.845000", "153032.632500", "153033.420000", "153034.207500", "153034.997500", "153035.785000", "153036.572500", "153037.360000", "153038.150000", "153038.937500", "153039.725000", "153040.512500", "153041.302500", "153042.090000", "153042.877500", "153043.667500", "153044.455000", "153045.242500", "153046.030000", "153046.820000", "153047.607500", "153048.395000", "153049.182500", "153049.972500", "153050.760000", "153051.547500", "153052.335000", "153053.125000", "153053.912500", "153054.700000", "153055.487500", "153056.277500", "153057.065000", "153057.852500", "153058.640000", "153059.430000", "153100.217500", "153101.005000", "153101.795000", "153102.582500", "153103.370000", "153104.157500", "153104.947500", "153105.735000", "153106.522500", "153107.310000", "153108.100000", "153108.887500", "153109.675000", "153110.462500", "153111.252500", "153112.040000", "153112.827500", "153113.615000", "153114.405000", "153115.192500", "153115.980000", "153116.767500", "153117.557500", "153118.345000", "153119.132500", "153119.922500", "153120.710000", "153121.497500", "153122.285000", "153123.075000", "153123.862500", "153124.650000", "153125.437500", "153126.227500", "153127.015000", "153127.802500", "153128.590000", "153129.380000", "153130.167500", "153130.955000", "153131.742500", "153132.532500", "153133.320000", "153134.107500", "153134.895000", "153135.685000", "153136.472500", "153137.260000", "153138.050000", "153138.837500", "153139.625000", "153140.412500", "153141.202500", "153141.990000", "153142.777500", "153143.565000", "153144.355000", "153145.142500", "153145.930000", "153146.717500", "153147.507500", "153148.295000", "153149.082500", "153149.870000", "153150.660000", "153151.447500", "153152.235000", "153153.022500", "153153.812500", "153154.600000", "153155.387500", "153156.177500", "153156.965000", "153157.752500", "153158.540000", "153159.330000", "153200.117500", "153200.905000", "153201.692500", "153202.482500", "153203.270000", "153204.057500", "153204.845000", "153205.635000", "153206.422500", "153207.210000", "153207.997500", "153208.787500", "153209.575000", "153210.362500", "153211.150000", "153211.940000", "153212.727500", "153213.515000", "153214.305000", "153215.092500", "153215.880000", "153216.667500", "153217.457500", "153218.245000", "153219.032500", "153219.820000", "153220.610000", "153221.397500", "153222.185000", "153222.972500", "153223.762500", "153224.550000", "153225.337500", "153226.125000", "153226.915000", "153227.702500", "153228.490000", "153229.277500", "153230.067500", "153230.855000", "153231.642500", "153232.432500", "153233.220000", "153234.007500", "153234.795000", "153235.585000", "153236.372500", "153237.160000", "153237.947500", "153238.737500", "153239.525000", "153240.312500", "153241.100000", "153241.890000", "153242.677500", "153243.465000", "153244.252500", "153245.042500", "153245.830000", "153246.617500", "153247.405000", "153248.195000", "153248.982500", "153249.770000", "153250.560000", "153251.347500", "153252.135000", "153252.922500", "153253.712500", "153254.500000", "153255.287500", "153256.075000", "153256.865000", "153257.652500", "153258.440000", "153259.227500", "153300.017500", "153300.805000", "153301.592500", "153302.380000", "153303.170000", "153303.957500", "153304.745000", "153305.532500", "153306.322500", "153307.110000", "153307.897500", "153308.687500", "153309.475000", "153310.262500", "153311.050000", "153311.840000", "153312.627500", "153313.415000", "153314.202500", "153314.992500", "153315.780000", "153316.567500", "153317.355000", "153318.145000", "153318.932500", "153319.720000", "153320.507500", "153321.297500", "153322.085000", "153322.872500", "153323.662500", "153324.450000", "153325.237500", "153326.025000", "153326.815000", "153327.602500", "153328.390000", "153329.177500", "153329.967500", "153330.755000", "153331.542500", "153332.330000", "153333.120000", "153333.907500", "153334.695000", "153335.482500", "153336.272500", "153337.060000", "153337.847500", "153338.635000", "153339.425000", "153340.212500", "153341.000000", "153341.790000", "153342.577500", "153343.365000", "153344.152500", "153344.942500", "153345.730000", "153346.517500", "153347.305000", "153348.095000", "153348.882500", "153349.670000", "153350.457500", "153351.247500", "153352.035000", "153352.822500", "153353.610000", "153354.400000", "153355.187500", "153355.975000", "153356.762500", "153357.552500", "153358.340000", "153359.127500", "153359.917500", "153400.705000", "153401.492500", "153402.280000", "153403.070000", "153403.857500"],
      "ContentTime": ["160757.578000", "160757.578000", "160757.578000", "160757.578000", "160757.578000", "160857.546000", "160857.546000", "160857.562000", "160857.562000", "160857.562000", "160857.562000", "160857.562000", "160857.562000", "160857.562000", "160857.578000", "160857.578000", "160857.578000", "160857.578000", "160857.578000", "160857.578000", "160857.578000", "160857.593000", "160857.593000", "160857.593000", "160857.593000", "160857.593000", "160857.593000", "160857.609000", "160857.609000", "160857.609000", "160857.609000", "160857.609000", "160957.546000", "160957.546000", "160957.562000", "160957.562000", "160957.562000", "160957.562000", "160957.562000", "160957.562000", "160957.562000", "160957.578000", "160957.578000", "160957.578000", "160957.578000", "160957.578000", "160957.578000", "160957.593000", "160957.593000", "160957.593000", "160957.593000", "160957.593000", "160957.593000", "160957.593000", "160957.609000", "160957.609000", "160957.609000", "160957.609000", "160957.609000", "160957.609000", "161057.546000", "161057.546000", "161057.562000", "161057.562000", "161057.562000", "161057.562000", "161057.562000", "161057.562000", "161057.562000", "161057.578000", "161057.578000", "161057.578000", "161057.578000", "161057.578000", "161057.578000", "161057.593000", "161057.593000", "161057.593000", "161057.593000", "161057.593000", "161057.609000", "161057.609000", "161057.609000", "161057.609000", "161057.609000", "161057.609000", "161057.609000", "161157.546000", "161157.546000", "161157.562000", "161157.562000", "161157.562000", "161157.562000", "161157.562000", "161157.562000", "161157.578000", "161157.578000", "161157.578000", "161157.578000", "161157.578000", "161157.578000", "161157.578000", "161157.593000", "161157.593000", "161157.593000", "161157.593000", "161157.593000", "161157.593000", "161157.593000", "161157.609000", "161157.609000", "161157.609000", "161157.609000", "161157.609000", "161157.609000", "161257.546000", "161257.546000", "161257.562000", "161257.562000", "161257.562000", "161257.562000", "161257.562000", "161257.562000", "161257.562000", "161257.578000", "161257.578000", "161257.578000", "161257.578000", "161257.578000", "161257.578000", "161257.593000", "161257.593000", "161257.593000", "161257.593000", "161257.593000", "161257.593000", "161257.593000", "161257.593000", "161257.609000", "161257.609000", "161257.609000", "161257.609000", "161357.546000", "161357.546000", "161357.562000", "161357.562000", "161357.562000", "161357.562000", "161357.562000", "161357.562000", "161357.562000", "161357.578000", "161357.578000", "161357.578000", "161357.578000", "161357.578000", "161357.578000", "161357.593000", "161357.593000", "161357.593000", "161357.593000", "161357.593000", "161357.593000", "161357.593000", "161357.609000", "161357.609000", "161357.609000", "161357.609000", "161357.625000", "161457.546000", "161457.546000", "161457.562000", "161457.562000", "161457.562000", "161457.562000", "161457.562000", "161457.562000", "161457.562000", "161457.578000", "161457.578000", "161457.578000", "161457.578000", "161457.578000", "161457.578000", "161457.593000", "161457.593000", "161457.593000", "161457.593000", "161457.593000", "161457.593000", "161457.593000", "161457.609000", "161457.609000", "161457.609000", "161457.609000", "161457.609000", "161457.609000", "161557.546000", "161557.546000", "161557.546000", "161557.546000", "161557.562000", "161557.562000", "161557.562000", "161557.562000", "161557.562000", "161557.562000", "161557.562000", "161557.578000", "161557.578000", "161557.578000", "161557.578000", "161557.578000", "161557.578000", "161557.578000", "161557.593000", "161557.593000", "161557.593000", "161557.593000", "161557.593000", "161557.593000", "161557.609000", "161557.609000", "161557.609000", "161637.546000", "161637.546000", "161637.546000", "161637.546000", "161637.562000", "161637.562000", "161637.562000", "161637.562000", "161637.562000", "161637.562000", "161637.562000", "161637.578000", "161637.578000", "161637.578000", "161637.578000", "161637.578000", "161637.578000", "161637.578000", "161637.593000", "161737.546000", "161737.546000", "161737.546000", "161737.546000", "161737.562000", "161737.562000", "161737.562000", "161737.562000", "161737.562000", "161737.562000", "161737.562000", "161737.578000", "161737.578000", "161737.578000", "161737.578000", "161737.578000", "161737.578000", "161737.578000", "161737.593000", "161737.593000", "161737.593000", "161737.593000", "161737.593000", "161737.593000", "161737.593000", "161737.609000", "161737.609000", "161837.546000", "161837.546000", "161837.546000", "161837.546000", "161837.562000", "161837.562000", "161837.562000", "161837.562000", "161837.562000", "161837.562000", "161837.562000", "161837.578000", "161837.578000", "161837.578000", "161837.578000", "161837.578000", "161837.593000", "161837.593000", "161837.593000", "161837.593000", "161837.593000", "161837.609000", "161837.609000", "161837.609000", "161837.609000", "161837.609000", "161837.609000", "161937.546000", "161937.546000", "161937.546000", "161937.562000", "161937.562000", "161937.562000", "161937.562000", "161937.562000", "161937.562000", "161937.562000", "161937.578000", "161937.578000", "161937.578000", "161937.578000", "161937.578000", "161937.578000", "161937.578000", "161937.593000", "161937.593000", "161937.593000", "161937.593000", "161937.593000", "161937.593000", "161937.609000", "161937.609000", "161937.609000", "161937.609000", "162037.546000", "162037.546000", "162037.546000", "162037.546000", "162037.562000", "162037.562000", "162037.562000", "162037.562000", "162037.562000", "162037.562000", "162037.562000", "162037.578000", "162037.578000", "162037.578000", "162037.578000", "162037.578000", "162037.578000", "162037.578000", "162037.593000", "162037.593000", "162037.593000", "162037.593000", "162037.593000", "162037.593000", "162037.593000", "162037.609000", "162037.609000", "162037.609000", "162137.546000", "162137.546000", "162137.546000", "162137.546000", "162137.562000", "162137.562000", "162137.562000", "162137.562000", "162137.562000", "162137.578000", "162137.578000", "162137.578000", "162137.578000", "162137.578000", "162137.578000", "162137.578000", "162137.593000", "162137.593000", "162137.593000", "162137.593000", "162137.593000", "162137.593000", "162137.609000", "162137.609000", "162137.609000", "162137.609000", "162137.609000", "162237.546000", "162237.546000", "162237.546000", "162237.546000", "162237.562000", "162237.562000", "162237.562000", "162237.562000", "162237.562000", "162237.578000", "162237.578000", "162237.578000", "162237.578000", "162237.578000", "162237.578000", "162237.578000", "162237.593000", "162237.593000", "162237.593000", "162237.593000", "162237.593000", "162237.593000", "162237.593000", "162237.609000", "162237.609000", "162237.609000", "162237.609000", "162337.546000", "162337.546000", "162337.546000", "162337.546000", "162337.562000", "162337.562000", "162337.562000", "162337.562000", "162337.562000", "162337.562000", "162337.562000", "162337.578000", "162337.578000", "162337.578000", "162337.578000", "162337.578000", "162337.593000", "162337.593000", "162337.593000", "162337.593000", "162337.593000", "162337.593000", "162337.593000", "162337.609000", "162337.609000", "162337.609000", "162337.609000", "162337.609000", "162437.546000", "162437.562000", "162437.562000", "162437.562000", "162437.562000", "162437.562000", "162437.562000", "162437.562000", "162437.578000", "162437.578000", "162437.578000", "162437.578000", "162437.578000", "162437.578000", "162437.578000", "162437.593000", "162437.593000", "162437.593000", "162437.593000", "162437.609000", "162437.609000", "162437.609000", "162437.609000", "162437.609000", "162437.609000", "162437.609000", "162437.625000", "162437.625000", "162537.546000", "162537.562000", "162537.562000", "162537.562000", "162537.562000", "162537.562000", "162537.562000", "162537.562000", "162537.578000", "162537.578000", "162537.578000", "162537.578000", "162537.578000", "162537.578000", "162537.578000", "162537.593000", "162537.593000", "162537.593000", "162537.593000", "162537.593000", "162537.593000", "162537.609000", "162537.609000", "162537.609000", "162537.609000", "162537.609000", "162537.609000", "162637.546000", "162637.562000", "162637.562000", "162637.562000", "162637.562000", "162637.562000", "162637.562000", "162637.562000", "162637.578000", "162637.578000", "162637.578000", "162637.578000", "162637.578000", "162637.578000", "162637.578000", "162637.593000", "162637.593000", "162637.593000", "162637.593000", "162637.593000", "162637.593000", "162637.609000", "162637.609000", "162637.609000", "162637.609000", "162637.609000", "162637.609000", "162637.609000", "162737.546000", "162737.562000", "162737.562000", "162737.562000", "162737.562000", "162737.562000", "162737.562000", "162737.562000", "162737.578000", "162737.578000", "162737.578000", "162737.578000", "162737.578000", "162737.578000", "162737.578000", "162737.593000", "162737.593000", "162737.593000", "162737.593000", "162737.593000", "162737.593000", "162737.593000", "162737.609000", "162737.609000", "162737.609000", "162737.609000", "162737.609000", "162737.609000", "162837.546000", "162837.562000", "162837.562000", "162837.562000", "162837.562000", "162837.562000", "162837.562000", "162837.562000", "162837.578000", "162837.578000", "162837.578000", "162837.578000", "162837.578000", "162837.578000", "162837.578000", "162837.593000", "162837.593000", "162837.593000", "162837.593000", "162837.593000", "162837.593000", "162837.593000", "162837.609000", "162837.609000", "162837.609000", "162837.609000", "162837.609000", "162837.609000", "162853.968000", "162853.984000", "162853.984000", "162853.984000", "162853.984000", "162854.000000", "162854.000000", "162854.000000"],
