{
  "AcquisitionMatrixPE": 104,
  "AcquisitionNumber": 1,
  "AcquisitionTime": "16:00:21.722500",
  "BandwidthPerPixelPhaseEncode": 13.935,
  "BaseResolution": 104,
  "CoilString": "C:HEA;HEP",
  "ConversionSoftware": "dcm2niix",
  "ConversionSoftwareVersion": "v1.0.20210317",
  "DerivedVendorReportedEchoSpacing": 0.000690017,
  "DeviceSerialNumber": "35450",
  "DwellTime": 2.5e-06,
  "EchoTime": 0.0348,
  "EffectiveEchoSpacing": 0.000690017,
  "FlipAngle": 55,
  "ImageComments": "Unaliased MB8/PE3 (remote)",
  "ImageOrientationPatientDICOM": [1, 7.18335e-05, 0.000934519, 6.82108e-08, 0.997053, -0.0767133],
  "ImageType": [
    "ORIGINAL",
    "PRIMARY",
    "M",
    "MB",
    "ND",
    "MOSAIC"
],
  "ImagingFrequency": 123.234,
  "InPlanePhaseEncodingDirectionDICOM": "COL",
  "InstitutionAddress": "Univeristy Ave. 197,Newark,North East,US,07102-1814",
  "InstitutionName": "RUBIC",
  "InstitutionalDepartmentName": "Department",
  "MRAcquisitionType": "2D",
  "MagneticFieldStrength": 3,
  "Manufacturer": "Siemens",
  "ManufacturersModelName": "TrioTim",
  "Modality": "MR",
  "MultibandAccelerationFactor": 8,
  "PartialFourier": 0.875,
  "PatientPosition": "HFS",
  "PercentPhaseFOV": 100,
  "PercentSampling": 100,
  "PhaseEncodingDirection": "j-",
  "PhaseEncodingSteps": 91,
  "PhaseResolution": 1,
  "PixelBandwidth": 1923,
  "ProcedureStepDescription": "Cole^Michael",
  "ProtocolName": "cmrr_mbep2d_bold_2mm_MB8_Task_8x",
  "PulseSequenceDetails": "%CustomerSeq%\\cmrr_mbep2d_bold",
  "ReceiveCoilName": "32Ch_Head",
  "ReconMatrixPE": 104,
  "RepetitionTime": 0.785,
  "SAR": 0.118053,
  "ScanOptions": "PFP\\FS",
  "ScanningSequence": "EP",
  "SequenceName": "epfid2d1_104",
  "SequenceVariant": "SK\\SS",
  "SeriesDescription": "cmrr_mbep2d_bold_2mm_MB8_Task_8x",
  "SeriesNumber": 19,
  "ShimSetting": [2111, -388, -7180, 379, 51, -657, 192, 120],
  "SliceThickness": 2,
  "SliceTiming": [0, 0.4375, 0.0875, 0.525, 0.175, 0.6125, 0.2625, 0.7, 0.35, 0, 0.4375, 0.0875, 0.525, 0.175, 0.6125, 0.2625, 0.7, 0.35, 0, 0.4375, 0.0875, 0.525, 0.175, 0.6125, 0.2625, 0.7, 0.35, 0, 0.4375, 0.0875, 0.525, 0.175, 0.6125, 0.2625, 0.7, 0.35, 0, 0.4375, 0.0875, 0.525, 0.175, 0.6125, 0.2625, 0.7, 0.35, 0, 0.4375, 0.0875, 0.525, 0.175, 0.6125, 0.2625, 0.7, 0.35, 0, 0.4375, 0.0875, 0.525, 0.175, 0.6125, 0.2625, 0.7, 0.35, 0, 0.4375, 0.0875, 0.525, 0.175, 0.6125, 0.2625, 0.7, 0.35],
  "SoftwareVersions": "syngo MR B19",
  "SpacingBetweenSlices": 2,
  "StationName": "MRC35450",
  "TaskName": "cpro",
  "TotalReadoutTime": 0.0710717,
  "TxRefAmp": 318.909,
  "dcmmeta_affine": [
    [-1.9999991655349731, 1.3642160467952635e-07, 0.0018745504785329103, 103.94432830810547],
    [-0.00014366701361723244, 1.994106411933899, -0.15342660248279572, -76.12290954589844],
    [0.0018690370488911867, 0.15342667698860168, 1.9941054582595825, -89.35294342041016],
    [0.0, 0.0, 0.0, 1.0]
],
  "dcmmeta_reorient_transform": [
    [0.0, -1.0, 0.0, 103.0],
    [1.0, 0.0, 0.0, 0.0],
    [0.0, 0.0, 1.0, 0.0],
    [0.0, 0.0, 0.0, 1.0]
],
  "dcmmeta_shape": [104, 104, 72, 581],
  "dcmmeta_slice_dim": 2,
  "dcmmeta_version": 0.6,
  "global": {
    "const": {
      "AcquisitionMatrix": [104, 0, 0, 104],
      "AngioFlag": "N",
      "BitsAllocated": 16,
      "BitsStored": 12,
      "Columns": 936,
      "EchoNumbers": 1,
      "EchoTime": 34.8,
      "EchoTrainLength": 1,
      "FlipAngle": 55.0,
      "HighBit": 11,
      "ImageOrientationPatient": [0.99999956075742, 7.183350443e-05, 0.00093451855231, 6.8210802e-08, 0.99705319021007, -0.0767133358153],
      "ImagePositionPatient": [-935.94403566119, -958.87806440258, -10.502019168305],
      "ImageType": [
        "ORIGINAL",
        "PRIMARY",
        "M",
        "MB",
        "ND",
        "MOSAIC"
],
      "ImagedNucleus": "1H",
      "ImagingFrequency": 123.234465,
      "InPlanePhaseEncodingDirection": "COL",
      "MRAcquisitionType": "2D",
      "MagneticFieldStrength": 3.0,
      "Manufacturer": "SIEMENS",
      "ManufacturerModelName": "TrioTim",
      "Modality": "MR",
      "NumberOfAverages": 1.0,
      "NumberOfPhaseEncodingSteps": 91,
      "PercentPhaseFieldOfView": 100.0,
      "PercentSampling": 100.0,
      "PerformedProcedureStepStartTime": "144451.421000",
      "PhotometricInterpretation": "MONOCHROME2",
      "PixelBandwidth": 1923.0,
      "PixelRepresentation": 0,
      "PixelSpacing": [2.0, 2.0],
      "ProtocolName": "cmrr_mbep2d_bold_2mm_MB8_Task_8x",
      "RepetitionTime": 785.0,
      "Rows": 936,
      "SAR": 0.11805344708941,
      "SamplesPerPixel": 1,
      "ScanOptions": [
        "PFP",
        "FS"
],
      "ScanningSequence": "EP",
      "SequenceName": "epfid2d1_104",
      "SequenceVariant": [
        "SK",
        "SS"
],
      "SeriesDescription": "cmrr_mbep2d_bold_2mm_MB8_Task_8x",
      "SeriesNumber": 19,
      "SeriesTime": "160044.671000",
      "SliceLocation": -83.152532608467,
      "SliceThickness": 2.0,
      "SmallestImagePixelValue": 0,
      "SoftwareVersions": "syngo MR B19",
      "SpacingBetweenSlices": 1.999999928451,
      "SpecificCharacterSet": "ISO_IR 100",
      "StudyID": "1",
      "StudyTime": "144451.343000",
      "TransmitCoilName": "Body",
      "VariableFlipAngleFlag": "N",
      "WindowCenterWidthExplanation": "Algo1",
      "dBdt": 0.0},
    "slices": {}
  },
  "time": {
    "samples": {
      "AcquisitionNumber": [1, 2, 3, 4, 5, 6, 7, 8, 9, 10, 11, 12, 13, 14, 15, 16, 17, 18, 19, 20, 21, 22, 23, 24, 25, 26, 27, 28, 29, 30, 31, 32, 33, 34, 35, 36, 37, 38, 39, 40, 41, 42, 43, 44, 45, 46, 47, 48, 49, 50, 51, 52, 53, 54, 55, 56, 57, 58, 59, 60, 61, 62, 63, 64, 65, 66, 67, 68, 69, 70, 71, 72, 73, 74, 75, 76, 77, 78, 79, 80, 81, 82, 83, 84, 85, 86, 87, 88, 89, 90, 91, 92, 93, 94, 95, 96, 97, 98, 99, 100, 101, 102, 103, 104, 105, 106, 107, 108, 109, 110, 111, 112, 113, 114, 115, 116, 117, 118, 119, 120, 121, 122, 123, 124, 125, 126, 127, 128, 129, 130, 131, 132, 133, 134, 135, 136, 137, 138, 139, 140, 141, 142, 143, 144, 145, 146, 147, 148, 149, 150, 151, 152, 153, 154, 155, 156, 157, 158, 159, 160, 161, 162, 163, 164, 165, 166, 167, 168, 169, 170, 171, 172, 173, 174, 175, 176, 177, 178, 179, 180, 181, 182, 183, 184, 185, 186, 187, 188, 189, 190, 191, 192, 193, 194, 195, 196, 197, 198, 199, 200, 201, 202, 203, 204, 205, 206, 207, 208, 209, 210, 211, 212, 213, 214, 215, 216, 217, 218, 219, 220, 221, 222, 223, 224, 225, 226, 227, 228, 229, 230, 231, 232, 233, 234, 235, 236, 237, 238, 239, 240, 241, 242, 243, 244, 245, 246, 247, 248, 249, 250, 251, 252, 253, 254, 255, 256, 257, 258, 259, 260, 261, 262, 263, 264, 265, 266, 267, 268, 269, 270, 271, 272, 273, 274, 275, 276, 277, 278, 279, 280, 281, 282, 283, 284, 285, 286, 287, 288, 289, 290, 291, 292, 293, 294, 295, 296, 297, 298, 299, 300, 301, 302, 303, 304, 305, 306, 307, 308, 309, 310, 311, 312, 313, 314, 315, 316, 317, 318, 319, 320, 321, 322, 323, 324, 325, 326, 327, 328, 329, 330, 331, 332, 333, 334, 335, 336, 337, 338, 339, 340, 341, 342, 343, 344, 345, 346, 347, 348, 349, 350, 351, 352, 353, 354, 355, 356, 357, 358, 359, 360, 361, 362, 363, 364, 365, 366, 367, 368, 369, 370, 371, 372, 373, 374, 375, 376, 377, 378, 379, 380, 381, 382, 383, 384, 385, 386, 387, 388, 389, 390, 391, 392, 393, 394, 395, 396, 397, 398, 399, 400, 401, 402, 403, 404, 405, 406, 407, 408, 409, 410, 411, 412, 413, 414, 415, 416, 417, 418, 419, 420, 421, 422, 423, 424, 425, 426, 427, 428, 429, 430, 431, 432, 433, 434, 435, 436, 437, 438, 439, 440, 441, 442, 443, 444, 445, 446, 447, 448, 449, 450, 451, 452, 453, 454, 455, 456, 457, 458, 459, 460, 461, 462, 463, 464, 465, 466, 467, 468, 469, 470, 471, 472, 473, 474, 475, 476, 477, 478, 479, 480, 481, 482, 483, 484, 485, 486, 487, 488, 489, 490, 491, 492, 493, 494, 495, 496, 497, 498, 499, 500, 501, 502, 503, 504, 505, 506, 507, 508, 509, 510, 511, 512, 513, 514, 515, 516, 517, 518, 519, 520, 521, 522, 523, 524, 525, 526, 527, 528, 529, 530, 531, 532, 533, 534, 535, 536, 537, 538, 539, 540, 541, 542, 543, 544, 545, 546, 547, 548, 549, 550, 551, 552, 553, 554, 555, 556, 557, 558, 559, 560, 561, 562, 563, 564, 565, 566, 567, 568, 569, 570, 571, 572, 573, 574, 575, 576, 577, 578, 579, 580, 581],
      "AcquisitionTime": ["160021.722500", "160022.510000", "160023.300000", "160024.087500", "160024.875000", "160025.662500", "160026.452500", "160027.240000", "160028.027500", "160028.815000", "160029.605000", "160030.392500", "160031.180000", "160031.967500", "160032.757500", "160033.545000", "160034.332500", "160035.122500", "160035.910000", "160036.697500", "160037.485000", "160038.275000", "160039.062500", "160039.850000", "160040.637500", "160041.427500", "160042.215000", "160043.002500", "160043.790000", "160044.580000", "160045.367500", "160046.155000", "160046.942500", "160047.732500", "160048.520000", "160049.307500", "160050.095000", "160050.885000", "160051.672500", "160052.460000", "160053.250000", "160054.037500", "160054.825000", "160055.612500", "160056.402500", "160057.190000", "160057.977500", "160058.765000", "160059.555000", "160100.342500", "160101.130000", "160101.917500", "160102.707500", "160103.495000", "160104.282500", "160105.070000", "160105.860000", "160106.647500", "160107.435000", "160108.222500", "160109.012500", "160109.800000", "160110.587500", "160111.377500", "160112.165000", "160112.952500", "160113.740000", "160114.530000", "160115.317500", "160116.105000", "160116.892500", "160117.682500", "160118.470000", "160119.257500", "160120.045000", "160120.835000", "160121.622500", "160122.410000", "160123.197500", "160123.987500", "160124.775000", "160125.562500", "160126.350000", "160127.140000", "160127.927500", "160128.715000", "160129.505000", "160130.292500", "160131.080000", "160131.867500", "160132.657500", "160133.445000", "160134.232500", "160135.020000", "160135.810000", "160136.597500", "160137.385000", "160138.172500", "160138.962500", "160139.750000", "160140.537500", "160141.325000", "160142.115000", "160142.902500", "160143.690000", "160144.477500", "160145.267500", "160146.055000", "160146.842500", "160147.632500", "160148.420000", "160149.207500", "160149.995000", "160150.785000", "160151.572500", "160152.360000", "160153.147500", "160153.937500", "160154.725000", "160155.512500", "160156.300000", "160157.090000", "160157.877500", "160158.665000", "160159.452500", "160200.242500", "160201.030000", "160201.817500", "160202.605000", "160203.395000", "160204.182500", "160204.970000", "160205.760000", "160206.547500", "160207.335000", "160208.122500", "160208.912500", "160209.700000", "160210.487500", "160211.275000", "160212.065000", "160212.852500", "160213.640000", "160214.427500", "160215.217500", "160216.005000", "160216.792500", "160217.580000", "160218.370000", "160219.157500", "160219.945000", "160220.732500", "160221.522500", "160222.310000", "160223.097500", "160223.887500", "160224.675000", "160225.462500", "160226.250000", "160227.040000", "160227.827500", "160228.615000", "160229.402500", "160230.192500", "160230.980000", "160231.767500", "160232.555000", "160233.345000", "160234.132500", "160234.920000", "160235.707500", "160236.497500", "160237.285000", "160238.072500", "160238.862500", "160239.650000", "160240.437500", "160241.225000", "160242.015000", "160242.802500", "160243.590000", "160244.377500", "160245.167500", "160245.955000", "160246.742500", "160247.530000", "160248.320000", "160249.107500", "160249.895000", "160250.682500", "160251.472500", "160252.260000", "160253.047500", "160253.835000", "160254.625000", "160255.412500", "160256.200000", "160256.990000", "160257.777500", "160258.565000", "160259.352500", "160300.142500", "160300.930000", "160301.717500", "160302.505000", "160303.295000", "160304.082500", "160304.870000", "160305.657500", "160306.447500", "160307.235000", "160308.022500", "160308.810000", "160309.600000", "160310.387500", "160311.175000", "160311.962500", "160312.752500", "160313.540000", "160314.327500", "160315.117500", "160315.905000", "160316.692500", "160317.480000", "160318.270000", "160319.057500", "160319.845000", "160320.632500", "160321.422500", "160322.210000", "160322.997500", "160323.785000", "160324.575000", "160325.362500", "160326.150000", "160326.937500", "160327.727500", "160328.515000", "160329.302500", "160330.090000", "160330.880000", "160331.667500", "160332.455000", "160333.245000", "160334.032500", "160334.820000", "160335.607500", "160336.397500", "160337.185000", "160337.972500", "160338.760000", "160339.550000", "160340.337500", "160341.125000", "160341.912500", "160342.702500", "160343.490000", "160344.277500", "160345.065000", "160345.855000", "160346.642500", "160347.430000", "160348.217500", "160349.007500", "160349.795000", "160350.582500", "160351.372500", "160352.160000", "160352.947500", "160353.735000", "160354.525000", "160355.312500", "160356.100000", "160356.887500", "160357.677500", "160358.465000", "160359.252500", "160400.040000", "160400.830000", "160401.617500", "160402.405000", "160403.192500", "160403.982500", "160404.770000", "160405.557500", "160406.345000", "160407.135000", "160407.922500", "160408.710000", "160409.500000", "160410.287500", "160411.075000", "160411.862500", "160412.652500", "160413.440000", "160414.227500", "160415.015000", "160415.805000", "160416.592500", "160417.380000", "160418.167500", "160418.957500", "160419.745000", "160420.532500", "160421.320000", "160422.110000", "160422.897500", "160423.685000", "160424.472500", "160425.262500", "160426.050000", "160426.837500", "160427.627500", "160428.415000", "160429.202500", "160429.990000", "160430.780000", "160431.567500", "160432.355000", "160433.142500", "160433.932500", "160434.720000", "160435.507500", "160436.295000", "160437.085000", "160437.872500", "160438.660000", "160439.447500", "160440.237500", "160441.025000", "160441.812500", "160442.600000", "160443.390000", "160444.177500", "160444.965000", "160445.755000", "160446.542500", "160447.330000", "160448.117500", "160448.907500", "160449.695000", "160450.482500", "160451.270000", "160452.060000", "160452.847500", "160453.635000", "160454.422500", "160455.212500", "160456.000000", "160456.787500", "160457.575000", "160458.365000", "160459.152500", "160459.940000", "160500.727500", "160501.517500", "160502.305000", "160503.092500", "160503.882500", "160504.670000", "160505.457500", "160506.245000", "160507.035000", "160507.822500", "160508.610000", "160509.397500", "160510.187500", "160510.975000", "160511.762500", "160512.550000", "160513.340000", "160514.127500", "160514.915000", "160515.702500", "160516.492500", "160517.280000", "160518.067500", "160518.855000", "160519.645000", "160520.432500", "160521.220000", "160522.010000", "160522.797500", "160523.585000", "160524.372500", "160525.162500", "160525.950000", "160526.737500", "160527.525000", "160528.315000", "160529.102500", "160529.890000", "160530.677500", "160531.467500", "160532.255000", "160533.042500", "160533.830000", "160534.620000", "160535.407500", "160536.195000", "160536.982500", "160537.772500", "160538.560000", "160539.347500", "160540.137500", "160540.925000", "160541.712500", "160542.500000", "160543.290000", "160544.077500", "160544.865000", "160545.652500", "160546.442500", "160547.230000", "160548.017500", "160548.805000", "160549.595000", "160550.382500", "160551.170000", "160551.957500", "160552.747500", "160553.535000", "160554.322500", "160555.112500", "160555.900000", "160556.687500", "160557.475000", "160558.265000", "160559.052500", "160559.840000", "160600.627500", "160601.417500", "160602.205000", "160602.992500", "160603.780000", "160604.570000", "160605.357500", "160606.145000", "160606.932500", "160607.722500", "160608.510000", "160609.297500", "160610.085000", "160610.875000", "160611.662500", "160612.450000", "160613.240000", "160614.027500", "160614.815000", "160615.602500", "160616.392500", "160617.180000", "160617.967500", "160618.755000", "160619.545000", "160620.332500", "160621.120000", "160621.907500", "160622.697500", "160623.485000", "160624.272500", "160625.060000", "160625.850000", "160626.637500", "160627.425000", "160628.212500", "160629.002500", "160629.790000", "160630.577500", "160631.367500", "160632.155000", "160632.942500", "160633.730000", "160634.520000", "160635.307500", "160636.095000", "160636.882500", "160637.672500", "160638.460000", "160639.247500", "160640.035000", "160640.825000", "160641.612500", "160642.400000", "160643.187500", "160643.977500", "160644.765000", "160645.552500", "160646.340000", "160647.130000", "160647.917500", "160648.705000", "160649.495000", "160650.282500", "160651.070000", "160651.857500", "160652.647500", "160653.435000", "160654.222500", "160655.010000", "160655.800000", "160656.587500", "160657.375000", "160658.162500", "160658.952500", "160659.740000", "160700.527500", "160701.315000", "160702.105000", "160702.892500", "160703.680000", "160704.467500", "160705.257500", "160706.045000", "160706.832500", "160707.622500", "160708.410000", "160709.197500", "160709.985000", "160710.775000", "160711.562500", "160712.350000", "160713.137500", "160713.927500", "160714.715000", "160715.502500", "160716.290000", "160717.080000", "160717.867500", "160718.655000", "160719.442500", "160720.232500", "160721.020000", "160721.807500", "160722.595000", "160723.385000", "160724.172500", "160724.960000", "160725.750000", "160726.537500", "160727.325000", "160728.112500", "160728.902500", "160729.690000", "160730.477500", "160731.265000", "160732.055000", "160732.842500", "160733.630000", "160734.417500", "160735.207500", "160735.995000", "160736.782500", "160737.570000", "160738.360000", "160739.147500", "160739.935000", "160740.722500", "160741.512500", "160742.300000", "160743.087500", "160743.877500", "160744.665000", "160745.452500", "160746.240000", "160747.030000", "160747.817500", "160748.605000", "160749.392500", "160750.182500", "160750.970000", "160751.757500", "160752.545000", "160753.335000", "160754.122500", "160754.910000", "160755.697500", "160756.487500", "160757.275000", "160758.062500", "160758.850000"],
      "ContentTime": ["160044.671000", "160044.671000", "160044.671000", "160044.687000", "160044.687000", "160044.687000", "160044.687000", "160044.687000", "160044.687000", "160044.687000", "160044.703000", "160044.703000", "160044.703000", "160044.703000", "160044.703000", "160044.703000", "160044.703000", "160044.718000", "160044.718000", "160044.718000", "160044.718000", "160044.718000", "160044.718000", "160044.718000", "160044.734000", "160044.734000", "160104.656000", "160104.656000", "160104.656000", "160104.656000", "160104.656000", "160104.671000", "160104.671000", "160104.671000", "160104.671000", "160104.671000", "160104.687000", "160104.687000", "160104.687000", "160104.703000", "160104.703000", "160104.703000", "160104.703000", "160104.703000", "160104.703000", "160104.703000", "160104.718000", "160104.718000", "160104.718000", "160104.718000", "160104.718000", "160124.656000", "160124.656000", "160124.656000", "160124.656000", "160124.656000", "160124.671000", "160124.671000", "160124.671000", "160124.671000", "160124.671000", "160124.671000", "160124.671000", "160124.687000", "160124.687000", "160124.687000", "160124.687000", "160124.687000", "160124.687000", "160124.687000", "160124.703000", "160124.703000", "160124.703000", "160124.703000", "160124.703000", "160124.703000", "160124.703000", "160144.656000", "160144.656000", "160144.656000", "160144.656000", "160144.656000", "160144.671000", "160144.671000", "160144.671000", "160144.671000", "160144.671000", "160144.671000", "160144.687000", "160144.687000", "160144.687000", "160144.687000", "160144.687000", "160144.703000", "160144.703000", "160144.703000", "160144.703000", "160144.718000", "160144.718000", "160144.718000", "160144.718000", "160144.718000", "160204.656000", "160204.656000", "160204.656000", "160204.656000", "160204.656000", "160204.671000", "160204.671000", "160204.671000", "160204.671000", "160204.671000", "160204.671000", "160204.671000", "160204.687000", "160204.687000", "160204.687000", "160204.687000", "160204.687000", "160204.687000", "160204.687000", "160204.703000", "160204.703000", "160204.703000", "160204.703000", "160204.703000", "160204.703000", "160204.703000", "160224.656000", "160224.656000", "160224.656000", "160224.656000", "160224.656000", "160224.671000", "160224.671000", "160224.671000", "160224.671000", "160224.671000", "160224.671000", "160224.687000", "160224.687000", "160224.687000", "160224.687000", "160224.687000", "160224.687000", "160224.687000", "160224.703000", "160224.703000", "160224.703000", "160224.703000", "160224.703000", "160224.703000", "160224.703000", "160244.656000", "160244.656000", "160244.656000", "160244.656000", "160244.656000", "160244.671000", "160244.671000", "160244.671000", "160244.671000", "160244.671000", "160244.671000", "160244.671000", "160244.687000", "160244.687000", "160244.687000", "160244.687000", "160244.687000", "160244.687000", "160244.687000", "160244.703000", "160244.703000", "160244.703000", "160244.703000", "160244.703000", "160244.703000", "160244.703000", "160304.656000", "160304.656000", "160304.656000", "160304.656000", "160304.656000", "160304.671000", "160304.671000", "160304.671000", "160304.671000", "160304.671000", "160304.671000", "160304.671000", "160304.687000", "160304.687000", "160304.687000", "160304.687000", "160304.687000", "160304.687000", "160304.687000", "160304.703000", "160304.703000", "160304.703000", "160304.703000", "160304.703000", "160304.718000", "160324.656000", "160324.656000", "160324.656000", "160324.656000", "160324.656000", "160324.671000", "160324.671000", "160324.671000", "160324.671000", "160324.671000", "160324.671000", "160324.671000", "160324.687000", "160324.687000", "160324.687000", "160324.687000", "160324.687000", "160324.687000", "160324.687000", "160324.703000", "160324.703000", "160324.703000", "160324.703000", "160324.703000", "160324.703000", "160324.703000", "160344.656000", "160344.656000", "160344.656000", "160344.656000", "160344.656000", "160344.671000", "160344.671000", "160344.671000", "160344.671000", "160344.671000", "160344.671000", "160344.671000", "160344.687000", "160344.687000", "160344.687000", "160344.687000", "160344.687000", "160344.687000", "160344.687000", "160344.703000", "160344.703000", "160344.703000", "160344.703000", "160344.703000", "160344.703000", "160404.656000", "160404.656000", "160404.656000", "160404.656000", "160404.656000", "160404.671000", "160404.671000", "160404.671000", "160404.671000", "160404.671000", "160404.671000", "160404.671000", "160404.687000", "160404.687000", "160404.687000", "160404.687000", "160404.687000", "160404.687000", "160404.687000", "160404.703000", "160404.703000", "160404.703000", "160404.703000", "160404.703000", "160404.703000", "160404.703000", "160424.656000", "160424.656000", "160424.656000", "160424.656000", "160424.656000", "160424.671000", "160424.671000", "160424.671000", "160424.671000", "160424.671000", "160424.671000", "160424.671000", "160424.687000", "160424.687000", "160424.687000", "160424.687000", "160424.687000", "160424.687000", "160424.687000", "160424.703000", "160424.703000", "160424.703000", "160424.703000", "160424.703000", "160424.703000", "160444.656000", "160444.656000", "160444.656000", "160444.656000", "160444.656000", "160444.671000", "160444.671000", "160444.671000", "160444.671000", "160444.671000", "160444.671000", "160444.687000", "160444.687000", "160444.687000", "160444.687000", "160444.687000", "160444.687000", "160444.687000", "160444.687000", "160444.703000", "160444.703000", "160444.703000", "160444.703000", "160444.703000", "160444.703000", "160444.718000", "160504.656000", "160504.656000", "160504.656000", "160504.656000", "160504.656000", "160504.671000", "160504.671000", "160504.671000", "160504.671000", "160504.671000", "160504.671000", "160504.671000", "160504.687000", "160504.687000", "160504.687000", "160504.687000", "160504.687000", "160504.687000", "160504.687000", "160504.703000", "160504.703000", "160504.703000", "160504.703000", "160504.703000", "160504.703000", "160524.656000", "160524.656000", "160524.656000", "160524.656000", "160524.656000", "160524.671000", "160524.671000", "160524.671000", "160524.671000", "160524.671000", "160524.671000", "160524.671000", "160524.687000", "160524.687000", "160524.687000", "160524.687000", "160524.687000", "160524.687000", "160524.687000", "160524.703000", "160524.703000", "160524.703000", "160524.703000", "160524.703000", "160524.703000", "160524.703000", "160544.656000", "160544.656000", "160544.656000", "160544.656000", "160544.656000", "160544.671000", "160544.671000", "160544.671000", "160544.671000", "160544.671000", "160544.671000", "160544.671000", "160544.687000", "160544.687000", "160544.687000", "160544.687000", "160544.687000", "160544.687000", "160544.687000", "160544.703000", "160544.703000", "160544.703000", "160544.703000", "160544.703000", "160544.703000", "160604.656000", "160604.656000", "160604.656000", "160604.656000", "160604.656000", "160604.671000", "160604.671000", "160604.671000", "160604.671000", "160604.671000", "160604.671000", "160604.671000", "160604.687000", "160604.687000", "160604.687000", "160604.687000", "160604.687000", "160604.687000", "160604.687000", "160604.703000", "160604.703000", "160604.703000", "160604.703000", "160604.703000", "160604.703000", "160604.703000", "160624.656000", "160624.656000", "160624.656000", "160624.656000", "160624.656000", "160624.671000", "160624.671000", "160624.671000", "160624.671000", "160624.671000", "160624.671000", "160624.671000", "160624.687000", "160624.687000", "160624.687000", "160624.687000", "160624.687000", "160624.687000", "160624.687000", "160624.703000", "160624.703000", "160624.703000", "160624.703000", "160624.703000", "160624.703000", "160644.656000", "160644.656000", "160644.656000", "160644.656000", "160644.656000", "160644.671000", "160644.671000", "160644.671000", "160644.671000", "160644.671000", "160644.671000", "160644.687000", "160644.703000", "160644.703000", "160644.703000", "160644.703000", "160644.703000", "160644.718000", "160644.734000", "160644.734000", "160644.734000", "160644.734000", "160644.750000", "160644.750000", "160644.765000", "160644.765000", "160704.656000", "160704.656000", "160704.656000", "160704.656000", "160704.656000", "160704.671000", "160704.671000", "160704.671000", "160704.671000", "160704.671000", "160704.671000", "160704.671000", "160704.687000", "160704.687000", "160704.687000", "160704.687000", "160704.687000", "160704.687000", "160704.687000", "160704.703000", "160704.703000", "160704.703000", "160704.703000", "160704.703000", "160704.703000", "160724.656000", "160724.656000", "160724.656000", "160724.656000", "160724.656000", "160724.671000", "160724.671000", "160724.671000", "160724.671000", "160724.671000", "160724.671000", "160724.671000", "160724.687000", "160724.687000", "160724.687000", "160724.687000", "160724.687000", "160724.687000", "160724.687000", "160724.703000", "160724.703000", "160724.703000", "160724.703000", "160724.703000", "160724.703000", "160724.703000", "160744.656000", "160744.656000", "160744.656000", "160744.656000", "160744.656000", "160744.671000", "160744.671000", "160744.671000", "160744.671000", "160744.671000", "160744.671000", "160744.671000", "160744.687000", "160744.687000", "160744.687000", "160744.687000", "160744.687000", "160744.687000", "160744.703000", "160744.703000", "160744.703000", "160744.703000", "160744.703000", "160744.703000", "160744.703000", "160800.000000", "160800.015000", "160800.015000", "160800.015000", "160800.015000", "160800.015000", "160800.015000", "160800.015000", "160800.031000", "160800.031000", "160800.031000", "160800.031000", "160800.031000", "160800.031000", "160800.031000", "160800.046000", "160800.046000", "160800.046000", "160800.046000", "160800.046000"],
      "DataSetTrailingPadding": [
        "\u0000\u0000\u0000\u0000\u0000\u0000\u0000\u0000\u0000\u0000\u0000\u0000\u0000\u0000\u0000\u0000\u0000\u0000\u0000\u0000\u0000\u0000\u0000\u0000\u0000\u0000\u0000\u0000\u0000\u0000\u0000\u0000\u0000\u0000\u0000\u0000\u0000\u0000\u0000\u0000\u0000\u0000\u0000\u0000\u0000\u0000\u0000\u0000\u0000\u0000\u0000\u0000\u0000\u0000\u0000\u0000\u0000\u0000\u0000\u0000\u0000\u0000\u0000\u0000\u0000\u0000\u0000\u0000\u0000\u0000\u0000\u0000\u0000\u0000\u0000\u0000\u0000\u0000\u0000\u0000\u0000\u0000\u0000\u0000\u0000\u0000\u0000\u0000\u0000\u0000\u0000\u0000\u0000\u0000\u0000\u0000\u0000\u0000\u0000\u0000\u0000\u0000\u0000\u0000\u0000\u0000\u0000\u0000\u0000\u0000\u0000\u0000\u0000\u0000\u0000\u0000\u0000\u0000\u0000\u0000\u0000\u0000\u0000\u0000\u0000\u0000\u0000\u0000\u0000\u0000\u0000\u0000\u0000\u0000\u0000\u0000\u0000\u0000\u0000\u0000\u0000\u0000\u0000\u0000\u0000\u0000\u0000\u0000\u0000\u0000\u0000\u0000\u0000\u0000\u0000\u0000\u0000\u0000\u0000\u0000\u0000\u0000\u0000\u0000\u0000\u0000\u0000\u0000\u0000\u0000\u0000\u0000\u0000\u0000\u0000\u0000\u0000\u0000\u0000\u0000\u0000\u0000\u0000\u0000\u0000\u0000\u0000\u0000\u0000\u0000\u0000\u0000\u0000\u0000\u0000\u0000\u0000\u0000\u0000\u0000\u0000\u0000\u0000\u0000\u0000\u0000\u0000\u0000\u0000\u0000\u0000\u0000\u0000\u0000\u0000\u0000\u0000\u0000\u0000\u0000\u0000\u0000\u0000\u0000\u0000\u0000\u0000\u0000\u0000\u0000\u0000\u0000\u0000\u0000\u0000\u0000\u0000\u0000\u0000\u0000\u0000\u0000\u0000\u0000\u0000\u0000\u0000\u0000",
