{
  "AcquisitionMatrixPE": 104,
  "AcquisitionNumber": 1,
  "AcquisitionTime": "15:52:8.722500",
  "BandwidthPerPixelPhaseEncode": 13.935,
  "BaseResolution": 104,
  "CoilString": "C:HEA;HEP",
  "ConversionSoftware": "dcm2niix",
  "ConversionSoftwareVersion": "v1.0.20210317",
  "DerivedVendorReportedEchoSpacing": 0.000690017,
  "DeviceSerialNumber": "35450",
  "DwellTime": 2.5e-06,
  "EchoTime": 0.0348,
  "EffectiveEchoSpacing": 0.000690017,
  "FlipAngle": 55,
  "ImageComments": "Unaliased MB8/PE3 (remote)",
  "ImageOrientationPatientDICOM": [1, 7.18335e-05, 0.000934519, 6.82108e-08, 0.997053, -0.0767133],
  "ImageType": [
    "ORIGINAL",
    "PRIMARY",
    "M",
    "MB",
    "ND",
    "MOSAIC"
],
  "ImagingFrequency": 123.234,
  "InPlanePhaseEncodingDirectionDICOM": "COL",
  "InstitutionAddress": "Univeristy Ave. 197,Newark,North East,US,07102-1814",
  "InstitutionName": "RUBIC",
  "InstitutionalDepartmentName": "Department",
  "MRAcquisitionType": "2D",
  "MagneticFieldStrength": 3,
  "Manufacturer": "Siemens",
  "ManufacturersModelName": "TrioTim",
  "Modality": "MR",
  "MultibandAccelerationFactor": 8,
  "PartialFourier": 0.875,
  "PatientPosition": "HFS",
  "PercentPhaseFOV": 100,
  "PercentSampling": 100,
  "PhaseEncodingDirection": "j-",
  "PhaseEncodingSteps": 91,
  "PhaseResolution": 1,
  "PixelBandwidth": 1923,
  "ProcedureStepDescription": "Cole^Michael",
  "ProtocolName": "cmrr_mbep2d_bold_2mm_MB8_Task_8x",
  "PulseSequenceDetails": "%CustomerSeq%\\cmrr_mbep2d_bold",
  "ReceiveCoilName": "32Ch_Head",
  "ReconMatrixPE": 104,
  "RepetitionTime": 0.785,
  "SAR": 0.118053,
  "ScanOptions": "PFP\\FS",
  "ScanningSequence": "EP",
  "SequenceName": "epfid2d1_104",
  "SequenceVariant": "SK\\SS",
  "SeriesDescription": "cmrr_mbep2d_bold_2mm_MB8_Task_8x",
  "SeriesNumber": 17,
  "ShimSetting": [2111, -388, -7180, 379, 51, -657, 192, 120],
  "SliceThickness": 2,
  "SliceTiming": [0, 0.44, 0.0875, 0.5275, 0.175, 0.615, 0.2625, 0.7025, 0.35, 0, 0.44, 0.0875, 0.5275, 0.175, 0.615, 0.2625, 0.7025, 0.35, 0, 0.44, 0.0875, 0.5275, 0.175, 0.615, 0.2625, 0.7025, 0.35, 0, 0.44, 0.0875, 0.5275, 0.175, 0.615, 0.2625, 0.7025, 0.35, 0, 0.44, 0.0875, 0.5275, 0.175, 0.615, 0.2625, 0.7025, 0.35, 0, 0.44, 0.0875, 0.5275, 0.175, 0.615, 0.2625, 0.7025, 0.35, 0, 0.44, 0.0875, 0.5275, 0.175, 0.615, 0.2625, 0.7025, 0.35, 0, 0.44, 0.0875, 0.5275, 0.175, 0.615, 0.2625, 0.7025, 0.35],
  "SoftwareVersions": "syngo MR B19",
  "SpacingBetweenSlices": 2,
  "StationName": "MRC35450",
  "TaskName": "cpro",
  "TotalReadoutTime": 0.0710717,
  "TxRefAmp": 318.909,
  "dcmmeta_affine": [
    [-1.9999991655349731, 1.3642160467952635e-07, 0.0018745504785329103, 103.94432830810547],
    [-0.00014366701361723244, 1.994106411933899, -0.15342660248279572, -76.12290954589844],
    [0.0018690370488911867, 0.15342667698860168, 1.9941054582595825, -89.35294342041016],
    [0.0, 0.0, 0.0, 1.0]
],
  "dcmmeta_reorient_transform": [
    [0.0, -1.0, 0.0, 103.0],
    [1.0, 0.0, 0.0, 0.0],
    [0.0, 0.0, 1.0, 0.0],
    [0.0, 0.0, 0.0, 1.0]
],
  "dcmmeta_shape": [104, 104, 72, 581],
  "dcmmeta_slice_dim": 2,
  "dcmmeta_version": 0.6,
  "global": {
    "const": {
      "AcquisitionMatrix": [104, 0, 0, 104],
      "AngioFlag": "N",
      "BitsAllocated": 16,
      "BitsStored": 12,
      "Columns": 936,
      "EchoNumbers": 1,
      "EchoTime": 34.8,
      "EchoTrainLength": 1,
      "FlipAngle": 55.0,
      "HighBit": 11,
      "ImageOrientationPatient": [0.99999956075742, 7.183350443e-05, 0.00093451855231, 6.8210802e-08, 0.99705319021007, -0.0767133358153],
      "ImagePositionPatient": [-935.94403566119, -958.87806440258, -10.502019168305],
      "ImageType": [
        "ORIGINAL",
        "PRIMARY",
        "M",
        "MB",
        "ND",
        "MOSAIC"
],
      "ImagedNucleus": "1H",
      "ImagingFrequency": 123.234465,
      "InPlanePhaseEncodingDirection": "COL",
      "MRAcquisitionType": "2D",
      "MagneticFieldStrength": 3.0,
      "Manufacturer": "SIEMENS",
      "ManufacturerModelName": "TrioTim",
      "Modality": "MR",
      "NumberOfAverages": 1.0,
      "NumberOfPhaseEncodingSteps": 91,
      "PercentPhaseFieldOfView": 100.0,
      "PercentSampling": 100.0,
      "PerformedProcedureStepStartTime": "144451.421000",
      "PhotometricInterpretation": "MONOCHROME2",
      "PixelBandwidth": 1923.0,
      "PixelRepresentation": 0,
      "PixelSpacing": [2.0, 2.0],
      "ProtocolName": "cmrr_mbep2d_bold_2mm_MB8_Task_8x",
      "RepetitionTime": 785.0,
      "Rows": 936,
      "SAR": 0.11805344708941,
      "SamplesPerPixel": 1,
      "ScanOptions": [
        "PFP",
        "FS"
],
      "ScanningSequence": "EP",
      "SequenceName": "epfid2d1_104",
      "SequenceVariant": [
        "SK",
        "SS"
],
      "SeriesDescription": "cmrr_mbep2d_bold_2mm_MB8_Task_8x",
      "SeriesNumber": 17,
      "SeriesTime": "155227.796000",
      "SliceLocation": -83.152532608467,
      "SliceThickness": 2.0,
      "SmallestImagePixelValue": 0,
      "SoftwareVersions": "syngo MR B19",
      "SpacingBetweenSlices": 1.999999928451,
      "SpecificCharacterSet": "ISO_IR 100",
      "StudyID": "1",
      "StudyTime": "144451.343000",
      "TransmitCoilName": "Body",
      "VariableFlipAngleFlag": "N",
      "WindowCenterWidthExplanation": "Algo1",
      "dBdt": 0.0},
    "slices": {}
  },
  "time": {
    "samples": {
      "AcquisitionNumber": [1, 2, 3, 4, 5, 6, 7, 8, 9, 10, 11, 12, 13, 14, 15, 16, 17, 18, 19, 20, 21, 22, 23, 24, 25, 26, 27, 28, 29, 30, 31, 32, 33, 34, 35, 36, 37, 38, 39, 40, 41, 42, 43, 44, 45, 46, 47, 48, 49, 50, 51, 52, 53, 54, 55, 56, 57, 58, 59, 60, 61, 62, 63, 64, 65, 66, 67, 68, 69, 70, 71, 72, 73, 74, 75, 76, 77, 78, 79, 80, 81, 82, 83, 84, 85, 86, 87, 88, 89, 90, 91, 92, 93, 94, 95, 96, 97, 98, 99, 100, 101, 102, 103, 104, 105, 106, 107, 108, 109, 110, 111, 112, 113, 114, 115, 116, 117, 118, 119, 120, 121, 122, 123, 124, 125, 126, 127, 128, 129, 130, 131, 132, 133, 134, 135, 136, 137, 138, 139, 140, 141, 142, 143, 144, 145, 146, 147, 148, 149, 150, 151, 152, 153, 154, 155, 156, 157, 158, 159, 160, 161, 162, 163, 164, 165, 166, 167, 168, 169, 170, 171, 172, 173, 174, 175, 176, 177, 178, 179, 180, 181, 182, 183, 184, 185, 186, 187, 188, 189, 190, 191, 192, 193, 194, 195, 196, 197, 198, 199, 200, 201, 202, 203, 204, 205, 206, 207, 208, 209, 210, 211, 212, 213, 214, 215, 216, 217, 218, 219, 220, 221, 222, 223, 224, 225, 226, 227, 228, 229, 230, 231, 232, 233, 234, 235, 236, 237, 238, 239, 240, 241, 242, 243, 244, 245, 246, 247, 248, 249, 250, 251, 252, 253, 254, 255, 256, 257, 258, 259, 260, 261, 262, 263, 264, 265, 266, 267, 268, 269, 270, 271, 272, 273, 274, 275, 276, 277, 278, 279, 280, 281, 282, 283, 284, 285, 286, 287, 288, 289, 290, 291, 292, 293, 294, 295, 296, 297, 298, 299, 300, 301, 302, 303, 304, 305, 306, 307, 308, 309, 310, 311, 312, 313, 314, 315, 316, 317, 318, 319, 320, 321, 322, 323, 324, 325, 326, 327, 328, 329, 330, 331, 332, 333, 334, 335, 336, 337, 338, 339, 340, 341, 342, 343, 344, 345, 346, 347, 348, 349, 350, 351, 352, 353, 354, 355, 356, 357, 358, 359, 360, 361, 362, 363, 364, 365, 366, 367, 368, 369, 370, 371, 372, 373, 374, 375, 376, 377, 378, 379, 380, 381, 382, 383, 384, 385, 386, 387, 388, 389, 390, 391, 392, 393, 394, 395, 396, 397, 398, 399, 400, 401, 402, 403, 404, 405, 406, 407, 408, 409, 410, 411, 412, 413, 414, 415, 416, 417, 418, 419, 420, 421, 422, 423, 424, 425, 426, 427, 428, 429, 430, 431, 432, 433, 434, 435, 436, 437, 438, 439, 440, 441, 442, 443, 444, 445, 446, 447, 448, 449, 450, 451, 452, 453, 454, 455, 456, 457, 458, 459, 460, 461, 462, 463, 464, 465, 466, 467, 468, 469, 470, 471, 472, 473, 474, 475, 476, 477, 478, 479, 480, 481, 482, 483, 484, 485, 486, 487, 488, 489, 490, 491, 492, 493, 494, 495, 496, 497, 498, 499, 500, 501, 502, 503, 504, 505, 506, 507, 508, 509, 510, 511, 512, 513, 514, 515, 516, 517, 518, 519, 520, 521, 522, 523, 524, 525, 526, 527, 528, 529, 530, 531, 532, 533, 534, 535, 536, 537, 538, 539, 540, 541, 542, 543, 544, 545, 546, 547, 548, 549, 550, 551, 552, 553, 554, 555, 556, 557, 558, 559, 560, 561, 562, 563, 564, 565, 566, 567, 568, 569, 570, 571, 572, 573, 574, 575, 576, 577, 578, 579, 580, 581],
      "AcquisitionTime": ["155208.722500", "155209.512500", "155210.300000", "155211.087500", "155211.875000", "155212.665000", "155213.452500", "155214.240000", "155215.030000", "155215.817500", "155216.605000", "155217.392500", "155218.182500", "155218.970000", "155219.757500", "155220.545000", "155221.335000", "155222.122500", "155222.910000", "155223.697500", "155224.487500", "155225.275000", "155226.062500", "155226.850000", "155227.640000", "155228.427500", "155229.215000", "155230.002500", "155230.792500", "155231.580000", "155232.367500", "155233.157500", "155233.945000", "155234.732500", "155235.520000", "155236.310000", "155237.097500", "155237.885000", "155238.672500", "155239.462500", "155240.250000", "155241.037500", "155241.825000", "155242.615000", "155243.402500", "155244.190000", "155244.977500", "155245.767500", "155246.555000", "155247.342500", "155248.130000", "155248.920000", "155249.707500", "155250.495000", "155251.285000", "155252.072500", "155252.860000", "155253.647500", "155254.437500", "155255.225000", "155256.012500", "155256.800000", "155257.590000", "155258.377500", "155259.165000", "155259.952500", "155300.742500", "155301.530000", "155302.317500", "155303.105000", "155303.895000", "155304.682500", "155305.470000", "155306.257500", "155307.047500", "155307.835000", "155308.622500", "155309.412500", "155310.200000", "155310.987500", "155311.775000", "155312.565000", "155313.352500", "155314.140000", "155314.927500", "155315.717500", "155316.505000", "155317.292500", "155318.080000", "155318.870000", "155319.657500", "155320.445000", "155321.232500", "155322.022500", "155322.810000", "155323.597500", "155324.387500", "155325.175000", "155325.962500", "155326.750000", "155327.540000", "155328.327500", "155329.115000", "155329.902500", "155330.692500", "155331.480000", "155332.267500", "155333.055000", "155333.845000", "155334.632500", "155335.420000", "155336.207500", "155336.997500", "155337.785000", "155338.572500", "155339.360000", "155340.150000", "155340.937500", "155341.725000", "155342.515000", "155343.302500", "155344.090000", "155344.877500", "155345.667500", "155346.455000", "155347.242500", "155348.030000", "155348.820000", "155349.607500", "155350.395000", "155351.182500", "155351.972500", "155352.760000", "155353.547500", "155354.335000", "155355.125000", "155355.912500", "155356.700000", "155357.487500", "155358.277500", "155359.065000", "155359.852500", "155400.642500", "155401.430000", "155402.217500", "155403.005000", "155403.795000", "155404.582500", "155405.370000", "155406.157500", "155406.947500", "155407.735000", "155408.522500", "155409.310000", "155410.100000", "155410.887500", "155411.675000", "155412.462500", "155413.252500", "155414.040000", "155414.827500", "155415.615000", "155416.405000", "155417.192500", "155417.980000", "155418.770000", "155419.557500", "155420.345000", "155421.132500", "155421.922500", "155422.710000", "155423.497500", "155424.285000", "155425.075000", "155425.862500", "155426.650000", "155427.437500", "155428.227500", "155429.015000", "155429.802500", "155430.590000", "155431.380000", "155432.167500", "155432.955000", "155433.742500", "155434.532500", "155435.320000", "155436.107500", "155436.897500", "155437.685000", "155438.472500", "155439.260000", "155440.050000", "155440.837500", "155441.625000", "155442.412500", "155443.202500", "155443.990000", "155444.777500", "155445.565000", "155446.355000", "155447.142500", "155447.930000", "155448.717500", "155449.507500", "155450.295000", "155451.082500", "155451.870000", "155452.660000", "155453.447500", "155454.235000", "155455.025000", "155455.812500", "155456.600000", "155457.387500", "155458.177500", "155458.965000", "155459.752500", "155500.540000", "155501.330000", "155502.117500", "155502.905000", "155503.692500", "155504.482500", "155505.270000", "155506.057500", "155506.845000", "155507.635000", "155508.422500", "155509.210000", "155509.997500", "155510.787500", "155511.575000", "155512.362500", "155513.152500", "155513.940000", "155514.727500", "155515.515000", "155516.305000", "155517.092500", "155517.880000", "155518.667500", "155519.457500", "155520.245000", "155521.032500", "155521.820000", "155522.610000", "155523.397500", "155524.185000", "155524.972500", "155525.762500", "155526.550000", "155527.337500", "155528.125000", "155528.915000", "155529.702500", "155530.490000", "155531.280000", "155532.067500", "155532.855000", "155533.642500", "155534.432500", "155535.220000", "155536.007500", "155536.795000", "155537.585000", "155538.372500", "155539.160000", "155539.947500", "155540.737500", "155541.525000", "155542.312500", "155543.100000", "155543.890000", "155544.677500", "155545.465000", "155546.252500", "155547.042500", "155547.830000", "155548.617500", "155549.407500", "155550.195000", "155550.982500", "155551.770000", "155552.560000", "155553.347500", "155554.135000", "155554.922500", "155555.712500", "155556.500000", "155557.287500", "155558.075000", "155558.865000", "155559.652500", "155600.440000", "155601.227500", "155602.017500", "155602.805000", "155603.592500", "155604.380000", "155605.170000", "155605.957500", "155606.745000", "155607.535000", "155608.322500", "155609.110000", "155609.897500", "155610.687500", "155611.475000", "155612.262500", "155613.050000", "155613.840000", "155614.627500", "155615.415000", "155616.202500", "155616.992500", "155617.780000", "155618.567500", "155619.355000", "155620.145000", "155620.932500", "155621.720000", "155622.507500", "155623.297500", "155624.085000", "155624.872500", "155625.662500", "155626.450000", "155627.237500", "155628.025000", "155628.815000", "155629.602500", "155630.390000", "155631.177500", "155631.967500", "155632.755000", "155633.542500", "155634.330000", "155635.120000", "155635.907500", "155636.695000", "155637.482500", "155638.272500", "155639.060000", "155639.847500", "155640.637500", "155641.425000", "155642.212500", "155643.000000", "155643.790000", "155644.577500", "155645.365000", "155646.152500", "155646.942500", "155647.730000", "155648.517500", "155649.305000", "155650.095000", "155650.882500", "155651.670000", "155652.457500", "155653.247500", "155654.035000", "155654.822500", "155655.610000", "155656.400000", "155657.187500", "155657.975000", "155658.765000", "155659.552500", "155700.340000", "155701.127500", "155701.917500", "155702.705000", "155703.492500", "155704.280000", "155705.070000", "155705.857500", "155706.645000", "155707.432500", "155708.222500", "155709.010000", "155709.797500", "155710.585000", "155711.375000", "155712.162500", "155712.950000", "155713.737500", "155714.527500", "155715.315000", "155716.102500", "155716.892500", "155717.680000", "155718.467500", "155719.255000", "155720.045000", "155720.832500", "155721.620000", "155722.407500", "155723.197500", "155723.985000", "155724.772500", "155725.560000", "155726.350000", "155727.137500", "155727.925000", "155728.712500", "155729.502500", "155730.290000", "155731.077500", "155731.865000", "155732.655000", "155733.442500", "155734.230000", "155735.020000", "155735.807500", "155736.595000", "155737.382500", "155738.172500", "155738.960000", "155739.747500", "155740.535000", "155741.325000", "155742.112500", "155742.900000", "155743.687500", "155744.477500", "155745.265000", "155746.052500", "155746.840000", "155747.630000", "155748.417500", "155749.205000", "155749.992500", "155750.782500", "155751.570000", "155752.357500", "155753.147500", "155753.935000", "155754.722500", "155755.510000", "155756.300000", "155757.087500", "155757.875000", "155758.662500", "155759.452500", "155800.240000", "155801.027500", "155801.815000", "155802.605000", "155803.392500", "155804.180000", "155804.967500", "155805.757500", "155806.545000", "155807.332500", "155808.120000", "155808.910000", "155809.697500", "155810.485000", "155811.275000", "155812.062500", "155812.850000", "155813.637500", "155814.427500", "155815.215000", "155816.002500", "155816.790000", "155817.580000", "155818.367500", "155819.155000", "155819.942500", "155820.732500", "155821.520000", "155822.307500", "155823.095000", "155823.885000", "155824.672500", "155825.460000", "155826.247500", "155827.037500", "155827.825000", "155828.612500", "155829.402500", "155830.190000", "155830.977500", "155831.765000", "155832.555000", "155833.342500", "155834.130000", "155834.917500", "155835.707500", "155836.495000", "155837.282500", "155838.070000", "155838.860000", "155839.647500", "155840.435000", "155841.222500", "155842.012500", "155842.800000", "155843.587500", "155844.375000", "155845.165000", "155845.952500", "155846.740000", "155847.530000", "155848.317500", "155849.105000", "155849.892500", "155850.682500", "155851.470000", "155852.257500", "155853.045000", "155853.835000", "155854.622500", "155855.410000", "155856.197500", "155856.987500", "155857.775000", "155858.562500", "155859.350000", "155900.140000", "155900.927500", "155901.715000", "155902.502500", "155903.292500", "155904.080000", "155904.867500", "155905.657500", "155906.445000", "155907.232500", "155908.020000", "155908.810000", "155909.597500", "155910.385000", "155911.172500", "155911.962500", "155912.750000", "155913.537500", "155914.325000", "155915.115000", "155915.902500", "155916.690000", "155917.477500", "155918.267500", "155919.055000", "155919.842500", "155920.630000", "155921.420000", "155922.207500", "155922.995000", "155923.785000", "155924.572500", "155925.360000", "155926.147500", "155926.937500", "155927.725000", "155928.512500", "155929.300000", "155930.090000", "155930.877500", "155931.665000", "155932.452500", "155933.242500", "155934.030000", "155934.817500", "155935.605000", "155936.395000", "155937.182500", "155937.970000", "155938.757500", "155939.547500", "155940.335000", "155941.122500", "155941.912500", "155942.700000", "155943.487500", "155944.275000", "155945.065000", "155945.852500"],
      "ContentTime": ["155227.796000", "155227.812000", "155227.812000", "155227.812000", "155227.812000", "155227.812000", "155227.812000", "155227.828000", "155227.828000", "155227.828000", "155227.828000", "155227.828000", "155227.828000", "155227.828000", "155227.843000", "155227.843000", "155227.843000", "155227.843000", "155227.843000", "155227.843000", "155227.843000", "155227.859000", "155247.781000", "155247.781000", "155247.781000", "155247.781000", "155247.781000", "155247.796000", "155247.796000", "155247.796000", "155247.796000", "155247.796000", "155247.796000", "155247.796000", "155247.812000", "155247.812000", "155247.812000", "155247.812000", "155247.812000", "155247.812000", "155247.812000", "155247.828000", "155247.828000", "155247.828000", "155247.828000", "155247.828000", "155247.828000", "155307.781000", "155307.781000", "155307.781000", "155307.781000", "155307.781000", "155307.796000", "155307.796000", "155307.796000", "155307.796000", "155307.796000", "155307.796000", "155307.796000", "155307.812000", "155307.812000", "155307.812000", "155307.812000", "155307.812000", "155307.812000", "155307.828000", "155307.828000", "155307.828000", "155307.828000", "155307.828000", "155307.828000", "155307.828000", "155307.843000", "155327.781000", "155327.781000", "155327.781000", "155327.781000", "155327.781000", "155327.796000", "155327.796000", "155327.796000", "155327.796000", "155327.796000", "155327.796000", "155327.796000", "155327.812000", "155327.812000", "155327.812000", "155327.812000", "155327.812000", "155327.812000", "155327.812000", "155327.828000", "155327.828000", "155327.828000", "155327.828000", "155327.828000", "155327.828000", "155347.781000", "155347.781000", "155347.781000", "155347.781000", "155347.781000", "155347.796000", "155347.796000", "155347.796000", "155347.796000", "155347.796000", "155347.796000", "155347.796000", "155347.812000", "155347.812000", "155347.812000", "155347.812000", "155347.812000", "155347.812000", "155347.812000", "155347.828000", "155347.828000", "155347.828000", "155347.828000", "155347.828000", "155347.828000", "155347.828000", "155407.781000", "155407.781000", "155407.781000", "155407.781000", "155407.781000", "155407.796000", "155407.796000", "155407.796000", "155407.796000", "155407.796000", "155407.796000", "155407.796000", "155407.812000", "155407.812000", "155407.812000", "155407.812000", "155407.812000", "155407.812000", "155407.812000", "155407.828000", "155407.828000", "155407.828000", "155407.828000", "155407.828000", "155407.828000", "155427.781000", "155427.781000", "155427.781000", "155427.781000", "155427.781000", "155427.796000", "155427.796000", "155427.796000", "155427.796000", "155427.796000", "155427.796000", "155427.796000", "155427.812000", "155427.812000", "155427.812000", "155427.812000", "155427.812000", "155427.812000", "155427.812000", "155427.828000", "155427.828000", "155427.828000", "155427.828000", "155427.828000", "155427.828000", "155427.828000", "155447.781000", "155447.781000", "155447.781000", "155447.781000", "155447.781000", "155447.796000", "155447.796000", "155447.796000", "155447.796000", "155447.796000", "155447.796000", "155447.796000", "155447.812000", "155447.812000", "155447.812000", "155447.812000", "155447.812000", "155447.812000", "155447.812000", "155447.828000", "155447.828000", "155447.828000", "155447.828000", "155447.828000", "155447.828000", "155507.781000", "155507.781000", "155507.781000", "155507.781000", "155507.781000", "155507.796000", "155507.796000", "155507.796000", "155507.796000", "155507.796000", "155507.796000", "155507.796000", "155507.812000", "155507.812000", "155507.812000", "155507.812000", "155507.812000", "155507.812000", "155507.812000", "155507.828000", "155507.828000", "155507.828000", "155507.828000", "155507.828000", "155507.828000", "155507.828000", "155527.781000", "155527.781000", "155527.781000", "155527.781000", "155527.781000", "155527.796000", "155527.796000", "155527.796000", "155527.796000", "155527.796000", "155527.796000", "155527.796000", "155527.812000", "155527.812000", "155527.812000", "155527.812000", "155527.812000", "155527.812000", "155527.812000", "155527.828000", "155527.828000", "155527.828000", "155527.828000", "155527.828000", "155527.828000", "155547.781000", "155547.781000", "155547.796000", "155547.796000", "155547.796000", "155547.796000", "155547.796000", "155547.796000", "155547.812000", "155547.812000", "155547.812000", "155547.812000", "155547.812000", "155547.828000", "155547.828000", "155547.828000", "155547.828000", "155547.828000", "155547.828000", "155547.828000", "155547.843000", "155547.843000", "155547.843000", "155547.843000", "155547.843000", "155607.781000", "155607.781000", "155607.781000", "155607.781000", "155607.781000", "155607.796000", "155607.796000", "155607.796000", "155607.796000", "155607.796000", "155607.796000", "155607.796000", "155607.812000", "155607.812000", "155607.812000", "155607.812000", "155607.812000", "155607.812000", "155607.812000", "155607.828000", "155607.828000", "155607.828000", "155607.828000", "155607.828000", "155607.828000", "155607.828000", "155627.781000", "155627.781000", "155627.781000", "155627.781000", "155627.781000", "155627.796000", "155627.812000", "155627.812000", "155627.812000", "155627.812000", "155627.812000", "155627.812000", "155627.812000", "155627.828000", "155627.828000", "155627.828000", "155627.843000", "155627.843000", "155627.843000", "155627.843000", "155627.843000", "155627.843000", "155627.843000", "155627.859000", "155627.859000", "155647.781000", "155647.781000", "155647.781000", "155647.781000", "155647.781000", "155647.796000", "155647.796000", "155647.796000", "155647.796000", "155647.796000", "155647.796000", "155647.796000", "155647.812000", "155647.812000", "155647.812000", "155647.812000", "155647.812000", "155647.812000", "155647.812000", "155647.828000", "155647.828000", "155647.828000", "155647.828000", "155647.828000", "155647.828000", "155647.828000", "155707.781000", "155707.781000", "155707.781000", "155707.781000", "155707.796000", "155707.796000", "155707.796000", "155707.796000", "155707.796000", "155707.796000", "155707.796000", "155707.812000", "155707.812000", "155707.812000", "155707.812000", "155707.812000", "155707.812000", "155707.828000", "155707.828000", "155707.828000", "155707.828000", "155707.828000", "155707.828000", "155707.843000", "155707.843000", "155727.781000", "155727.781000", "155727.781000", "155727.781000", "155727.781000", "155727.796000", "155727.796000", "155727.796000", "155727.796000", "155727.796000", "155727.796000", "155727.796000", "155727.812000", "155727.812000", "155727.812000", "155727.812000", "155727.828000", "155727.828000", "155727.828000", "155727.828000", "155727.828000", "155727.828000", "155727.828000", "155727.843000", "155727.843000", "155727.843000", "155747.781000", "155747.781000", "155747.781000", "155747.781000", "155747.781000", "155747.796000", "155747.796000", "155747.796000", "155747.796000", "155747.796000", "155747.796000", "155747.796000", "155747.812000", "155747.812000", "155747.812000", "155747.812000", "155747.812000", "155747.812000", "155747.812000", "155747.828000", "155747.828000", "155747.828000", "155747.828000", "155747.828000", "155747.828000", "155807.781000", "155807.781000", "155807.781000", "155807.781000", "155807.796000", "155807.796000", "155807.796000", "155807.796000", "155807.796000", "155807.796000", "155807.812000", "155807.812000", "155807.812000", "155807.812000", "155807.812000", "155807.812000", "155807.812000", "155807.828000", "155807.828000", "155807.828000", "155807.828000", "155807.828000", "155807.828000", "155807.828000", "155807.843000", "155807.843000", "155827.781000", "155827.781000", "155827.781000", "155827.781000", "155827.781000", "155827.796000", "155827.796000", "155827.796000", "155827.796000", "155827.796000", "155827.796000", "155827.796000", "155827.812000", "155827.812000", "155827.812000", "155827.812000", "155827.812000", "155827.812000", "155827.812000", "155827.828000", "155827.828000", "155827.828000", "155827.828000", "155827.828000", "155827.828000", "155847.781000", "155847.781000", "155847.781000", "155847.781000", "155847.781000", "155847.796000", "155847.796000", "155847.796000", "155847.796000", "155847.796000", "155847.796000", "155847.796000", "155847.812000", "155847.812000", "155847.812000", "155847.812000", "155847.812000", "155847.812000", "155847.812000", "155847.828000", "155847.828000", "155847.828000", "155847.828000", "155847.828000", "155847.828000", "155847.828000", "155907.781000", "155907.781000", "155907.781000", "155907.781000", "155907.781000", "155907.796000", "155907.796000", "155907.796000", "155907.796000", "155907.796000", "155907.796000", "155907.796000", "155907.812000", "155907.812000", "155907.812000", "155907.812000", "155907.812000", "155907.812000", "155907.812000", "155907.828000", "155907.828000", "155907.828000", "155907.828000", "155907.828000", "155907.828000", "155927.781000", "155927.781000", "155927.781000", "155927.781000", "155927.781000", "155927.796000", "155927.796000", "155927.796000", "155927.796000", "155927.796000", "155927.796000", "155927.812000", "155927.812000", "155927.812000", "155927.812000", "155927.812000", "155927.812000", "155927.812000", "155927.828000", "155927.828000", "155927.828000", "155927.828000", "155927.828000", "155927.828000", "155927.828000", "155927.843000", "155946.500000", "155946.500000", "155946.500000", "155946.500000", "155946.500000", "155946.500000", "155946.515000", "155946.515000", "155946.515000", "155946.515000", "155946.515000", "155946.515000", "155946.531000", "155946.531000", "155946.531000", "155946.531000", "155946.531000", "155946.546000", "155946.546000", "155946.546000", "155946.546000", "155946.546000", "155946.546000", "155946.546000"],
      "DataSetTrailingPadding": [
        "\u0000\u0000\u0000\u0000\u0000\u0000\u0000\u0000\u0000\u0000\u0000\u0000\u0000\u0000\u0000\u0000\u0000\u0000\u0000\u0000\u0000\u0000\u0000\u0000\u0000\u0000\u0000\u0000\u0000\u0000\u0000\u0000\u0000\u0000\u0000\u0000\u0000\u0000\u0000\u0000\u0000\u0000\u0000\u0000\u0000\u0000\u0000\u0000\u0000\u0000\u0000\u0000\u0000\u0000\u0000\u0000\u0000\u0000\u0000\u0000\u0000\u0000\u0000\u0000\u0000\u0000\u0000\u0000\u0000\u0000\u0000\u0000\u0000\u0000\u0000\u0000\u0000\u0000\u0000\u0000\u0000\u0000\u0000\u0000\u0000\u0000\u0000\u0000\u0000\u0000\u0000\u0000\u0000\u0000\u0000\u0000\u0000\u0000\u0000\u0000\u0000\u0000\u0000\u0000\u0000\u0000\u0000\u0000\u0000\u0000\u0000\u0000\u0000\u0000\u0000\u0000\u0000\u0000\u0000\u0000\u0000\u0000\u0000\u0000\u0000\u0000\u0000\u0000\u0000\u0000\u0000\u0000\u0000\u0000\u0000\u0000\u0000\u0000\u0000\u0000\u0000\u0000\u0000\u0000\u0000\u0000\u0000\u0000\u0000\u0000\u0000\u0000\u0000\u0000\u0000\u0000\u0000\u0000\u0000\u0000\u0000\u0000\u0000\u0000\u0000\u0000\u0000\u0000\u0000\u0000\u0000\u0000\u0000\u0000\u0000\u0000\u0000\u0000\u0000\u0000\u0000\u0000\u0000\u0000\u0000\u0000\u0000\u0000\u0000\u0000\u0000\u0000\u0000\u0000\u0000\u0000\u0000\u0000\u0000\u0000\u0000\u0000\u0000\u0000\u0000\u0000\u0000\u0000\u0000\u0000\u0000\u0000\u0000\u0000\u0000\u0000\u0000\u0000\u0000\u0000\u0000\u0000\u0000\u0000\u0000\u0000\u0000\u0000\u0000\u0000\u0000\u0000\u0000\u0000\u0000\u0000\u0000\u0000\u0000\u0000\u0000\u0000\u0000\u0000\u0000\u0000\u0000\u0000",
