{
  "AcquisitionMatrixPE": 104,
  "AcquisitionNumber": 1,
  "AcquisitionTime": "16:08:32.707500",
  "BandwidthPerPixelPhaseEncode": 13.935,
  "BaseResolution": 104,
  "CoilString": "C:HEA;HEP",
  "ConversionSoftware": "dcm2niix",
  "ConversionSoftwareVersion": "v1.0.20210317",
  "DerivedVendorReportedEchoSpacing": 0.000690017,
  "DeviceSerialNumber": "35450",
  "DwellTime": 2.5e-06,
  "EchoTime": 0.0348,
  "EffectiveEchoSpacing": 0.000690017,
  "FlipAngle": 55,
  "ImageComments": "Unaliased MB8/PE3 (remote)",
  "ImageOrientationPatientDICOM": [1, 7.18335e-05, 0.000934519, 6.82108e-08, 0.997053, -0.0767133],
  "ImageType": [
    "ORIGINAL",
    "PRIMARY",
    "M",
    "MB",
    "ND",
    "MOSAIC"
],
  "ImagingFrequency": 123.234,
  "InPlanePhaseEncodingDirectionDICOM": "COL",
  "InstitutionAddress": "Univeristy Ave. 197,Newark,North East,US,07102-1814",
  "InstitutionName": "RUBIC",
  "InstitutionalDepartmentName": "Department",
  "MRAcquisitionType": "2D",
  "MagneticFieldStrength": 3,
  "Manufacturer": "Siemens",
  "ManufacturersModelName": "TrioTim",
  "Modality": "MR",
  "MultibandAccelerationFactor": 8,
  "PartialFourier": 0.875,
  "PatientPosition": "HFS",
  "PercentPhaseFOV": 100,
  "PercentSampling": 100,
  "PhaseEncodingDirection": "j-",
  "PhaseEncodingSteps": 91,
  "PhaseResolution": 1,
  "PixelBandwidth": 1923,
  "ProcedureStepDescription": "Cole^Michael",
  "ProtocolName": "cmrr_mbep2d_bold_2mm_MB8_Task_8x",
  "PulseSequenceDetails": "%CustomerSeq%\\cmrr_mbep2d_bold",
  "ReceiveCoilName": "32Ch_Head",
  "ReconMatrixPE": 104,
  "RepetitionTime": 0.785,
  "SAR": 0.118053,
  "ScanOptions": "PFP\\FS",
  "ScanningSequence": "EP",
  "SequenceName": "epfid2d1_104",
  "SequenceVariant": "SK\\SS",
  "SeriesDescription": "cmrr_mbep2d_bold_2mm_MB8_Task_8x",
  "SeriesNumber": 21,
  "ShimSetting": [2111, -388, -7180, 379, 51, -657, 192, 120],
  "SliceThickness": 2,
  "SliceTiming": [0, 0.4375, 0.0875, 0.525, 0.175, 0.6125, 0.2625, 0.7, 0.35, 0, 0.4375, 0.0875, 0.525, 0.175, 0.6125, 0.2625, 0.7, 0.35, 0, 0.4375, 0.0875, 0.525, 0.175, 0.6125, 0.2625, 0.7, 0.35, 0, 0.4375, 0.0875, 0.525, 0.175, 0.6125, 0.2625, 0.7, 0.35, 0, 0.4375, 0.0875, 0.525, 0.175, 0.6125, 0.2625, 0.7, 0.35, 0, 0.4375, 0.0875, 0.525, 0.175, 0.6125, 0.2625, 0.7, 0.35, 0, 0.4375, 0.0875, 0.525, 0.175, 0.6125, 0.2625, 0.7, 0.35, 0, 0.4375, 0.0875, 0.525, 0.175, 0.6125, 0.2625, 0.7, 0.35],
  "SoftwareVersions": "syngo MR B19",
  "SpacingBetweenSlices": 2,
  "StationName": "MRC35450",
  "TaskName": "cpro",
  "TotalReadoutTime": 0.0710717,
  "TxRefAmp": 318.909,
  "dcmmeta_affine": [
    [-1.9999991655349731, 1.3642160467952635e-07, 0.0018745504785329103, 103.94432830810547],
    [-0.00014366701361723244, 1.994106411933899, -0.15342660248279572, -76.12290954589844],
    [0.0018690370488911867, 0.15342667698860168, 1.9941054582595825, -89.35294342041016],
    [0.0, 0.0, 0.0, 1.0]
],
  "dcmmeta_reorient_transform": [
    [0.0, -1.0, 0.0, 103.0],
    [1.0, 0.0, 0.0, 0.0],
    [0.0, 0.0, 1.0, 0.0],
    [0.0, 0.0, 0.0, 1.0]
],
  "dcmmeta_shape": [104, 104, 72, 581],
  "dcmmeta_slice_dim": 2,
  "dcmmeta_version": 0.6,
  "global": {
    "const": {
      "AcquisitionMatrix": [104, 0, 0, 104],
      "AngioFlag": "N",
      "BitsAllocated": 16,
      "BitsStored": 12,
      "Columns": 936,
      "EchoNumbers": 1,
      "EchoTime": 34.8,
      "EchoTrainLength": 1,
      "FlipAngle": 55.0,
      "HighBit": 11,
      "ImageOrientationPatient": [0.99999956075742, 7.183350443e-05, 0.00093451855231, 6.8210802e-08, 0.99705319021007, -0.0767133358153],
      "ImagePositionPatient": [-935.94403566119, -958.87806440258, -10.502019168305],
      "ImageType": [
        "ORIGINAL",
        "PRIMARY",
        "M",
        "MB",
        "ND",
        "MOSAIC"
],
      "ImagedNucleus": "1H",
      "ImagingFrequency": 123.234465,
      "InPlanePhaseEncodingDirection": "COL",
      "MRAcquisitionType": "2D",
      "MagneticFieldStrength": 3.0,
      "Manufacturer": "SIEMENS",
      "ManufacturerModelName": "TrioTim",
      "Modality": "MR",
      "NumberOfAverages": 1.0,
      "NumberOfPhaseEncodingSteps": 91,
      "PercentPhaseFieldOfView": 100.0,
      "PercentSampling": 100.0,
      "PerformedProcedureStepStartTime": "144451.421000",
      "PhotometricInterpretation": "MONOCHROME2",
      "PixelBandwidth": 1923.0,
      "PixelRepresentation": 0,
      "PixelSpacing": [2.0, 2.0],
      "ProtocolName": "cmrr_mbep2d_bold_2mm_MB8_Task_8x",
      "RepetitionTime": 785.0,
      "Rows": 936,
      "SAR": 0.11805344708941,
      "SamplesPerPixel": 1,
      "ScanOptions": [
        "PFP",
        "FS"
],
      "ScanningSequence": "EP",
      "SequenceName": "epfid2d1_104",
      "SequenceVariant": [
        "SK",
        "SS"
],
      "SeriesDescription": "cmrr_mbep2d_bold_2mm_MB8_Task_8x",
      "SeriesNumber": 21,
      "SeriesTime": "160906.687000",
      "SliceLocation": -83.152532608467,
      "SliceThickness": 2.0,
      "SmallestImagePixelValue": 0,
      "SoftwareVersions": "syngo MR B19",
      "SpacingBetweenSlices": 1.999999928451,
      "SpecificCharacterSet": "ISO_IR 100",
      "StudyID": "1",
      "StudyTime": "144451.343000",
      "TransmitCoilName": "Body",
      "VariableFlipAngleFlag": "N",
      "WindowCenterWidthExplanation": "Algo1",
      "dBdt": 0.0},
    "slices": {}
  },
  "time": {
    "samples": {
      "AcquisitionNumber": [1, 2, 3, 4, 5, 6, 7, 8, 9, 10, 11, 12, 13, 14, 15, 16, 17, 18, 19, 20, 21, 22, 23, 24, 25, 26, 27, 28, 29, 30, 31, 32, 33, 34, 35, 36, 37, 38, 39, 40, 41, 42, 43, 44, 45, 46, 47, 48, 49, 50, 51, 52, 53, 54, 55, 56, 57, 58, 59, 60, 61, 62, 63, 64, 65, 66, 67, 68, 69, 70, 71, 72, 73, 74, 75, 76, 77, 78, 79, 80, 81, 82, 83, 84, 85, 86, 87, 88, 89, 90, 91, 92, 93, 94, 95, 96, 97, 98, 99, 100, 101, 102, 103, 104, 105, 106, 107, 108, 109, 110, 111, 112, 113, 114, 115, 116, 117, 118, 119, 120, 121, 122, 123, 124, 125, 126, 127, 128, 129, 130, 131, 132, 133, 134, 135, 136, 137, 138, 139, 140, 141, 142, 143, 144, 145, 146, 147, 148, 149, 150, 151, 152, 153, 154, 155, 156, 157, 158, 159, 160, 161, 162, 163, 164, 165, 166, 167, 168, 169, 170, 171, 172, 173, 174, 175, 176, 177, 178, 179, 180, 181, 182, 183, 184, 185, 186, 187, 188, 189, 190, 191, 192, 193, 194, 195, 196, 197, 198, 199, 200, 201, 202, 203, 204, 205, 206, 207, 208, 209, 210, 211, 212, 213, 214, 215, 216, 217, 218, 219, 220, 221, 222, 223, 224, 225, 226, 227, 228, 229, 230, 231, 232, 233, 234, 235, 236, 237, 238, 239, 240, 241, 242, 243, 244, 245, 246, 247, 248, 249, 250, 251, 252, 253, 254, 255, 256, 257, 258, 259, 260, 261, 262, 263, 264, 265, 266, 267, 268, 269, 270, 271, 272, 273, 274, 275, 276, 277, 278, 279, 280, 281, 282, 283, 284, 285, 286, 287, 288, 289, 290, 291, 292, 293, 294, 295, 296, 297, 298, 299, 300, 301, 302, 303, 304, 305, 306, 307, 308, 309, 310, 311, 312, 313, 314, 315, 316, 317, 318, 319, 320, 321, 322, 323, 324, 325, 326, 327, 328, 329, 330, 331, 332, 333, 334, 335, 336, 337, 338, 339, 340, 341, 342, 343, 344, 345, 346, 347, 348, 349, 350, 351, 352, 353, 354, 355, 356, 357, 358, 359, 360, 361, 362, 363, 364, 365, 366, 367, 368, 369, 370, 371, 372, 373, 374, 375, 376, 377, 378, 379, 380, 381, 382, 383, 384, 385, 386, 387, 388, 389, 390, 391, 392, 393, 394, 395, 396, 397, 398, 399, 400, 401, 402, 403, 404, 405, 406, 407, 408, 409, 410, 411, 412, 413, 414, 415, 416, 417, 418, 419, 420, 421, 422, 423, 424, 425, 426, 427, 428, 429, 430, 431, 432, 433, 434, 435, 436, 437, 438, 439, 440, 441, 442, 443, 444, 445, 446, 447, 448, 449, 450, 451, 452, 453, 454, 455, 456, 457, 458, 459, 460, 461, 462, 463, 464, 465, 466, 467, 468, 469, 470, 471, 472, 473, 474, 475, 476, 477, 478, 479, 480, 481, 482, 483, 484, 485, 486, 487, 488, 489, 490, 491, 492, 493, 494, 495, 496, 497, 498, 499, 500, 501, 502, 503, 504, 505, 506, 507, 508, 509, 510, 511, 512, 513, 514, 515, 516, 517, 518, 519, 520, 521, 522, 523, 524, 525, 526, 527, 528, 529, 530, 531, 532, 533, 534, 535, 536, 537, 538, 539, 540, 541, 542, 543, 544, 545, 546, 547, 548, 549, 550, 551, 552, 553, 554, 555, 556, 557, 558, 559, 560, 561, 562, 563, 564, 565, 566, 567, 568, 569, 570, 571, 572, 573, 574, 575, 576, 577, 578, 579, 580, 581],
      "AcquisitionTime": ["160832.707500", "160833.495000", "160834.282500", "160835.072500", "160835.860000", "160836.647500", "160837.435000", "160838.225000", "160839.012500", "160839.800000", "160840.587500", "160841.377500", "160842.165000", "160842.952500", "160843.740000", "160844.530000", "160845.317500", "160846.105000", "160846.895000", "160847.682500", "160848.470000", "160849.257500", "160850.047500", "160850.835000", "160851.622500", "160852.410000", "160853.200000", "160853.987500", "160854.775000", "160855.562500", "160856.352500", "160857.140000", "160857.927500", "160858.715000", "160859.505000", "160900.292500", "160901.080000", "160901.870000", "160902.657500", "160903.445000", "160904.232500", "160905.022500", "160905.810000", "160906.597500", "160907.385000", "160908.175000", "160908.962500", "160909.750000", "160910.537500", "160911.327500", "160912.115000", "160912.902500", "160913.690000", "160914.480000", "160915.267500", "160916.055000", "160916.842500", "160917.632500", "160918.420000", "160919.207500", "160919.997500", "160920.785000", "160921.572500", "160922.360000", "160923.150000", "160923.937500", "160924.725000", "160925.512500", "160926.302500", "160927.090000", "160927.877500", "160928.665000", "160929.455000", "160930.242500", "160931.030000", "160931.817500", "160932.607500", "160933.395000", "160934.182500", "160934.970000", "160935.760000", "160936.547500", "160937.335000", "160938.125000", "160938.912500", "160939.700000", "160940.487500", "160941.277500", "160942.065000", "160942.852500", "160943.640000", "160944.430000", "160945.217500", "160946.005000", "160946.792500", "160947.582500", "160948.370000", "160949.157500", "160949.945000", "160950.735000", "160951.522500", "160952.310000", "160953.097500", "160953.887500", "160954.675000", "160955.462500", "160956.252500", "160957.040000", "160957.827500", "160958.615000", "160959.405000", "161000.192500", "161000.980000", "161001.767500", "161002.557500", "161003.345000", "161004.132500", "161004.920000", "161005.710000", "161006.497500", "161007.285000", "161008.072500", "161008.862500", "161009.650000", "161010.437500", "161011.225000", "161012.015000", "161012.802500", "161013.590000", "161014.380000", "161015.167500", "161015.955000", "161016.742500", "161017.532500", "161018.320000", "161019.107500", "161019.895000", "161020.685000", "161021.472500", "161022.260000", "161023.047500", "161023.837500", "161024.625000", "161025.412500", "161026.200000", "161026.990000", "161027.777500", "161028.565000", "161029.352500", "161030.142500", "161030.930000", "161031.717500", "161032.507500", "161033.295000", "161034.082500", "161034.870000", "161035.660000", "161036.447500", "161037.235000", "161038.022500", "161038.812500", "161039.600000", "161040.387500", "161041.175000", "161041.965000", "161042.752500", "161043.540000", "161044.327500", "161045.117500", "161045.905000", "161046.692500", "161047.480000", "161048.270000", "161049.057500", "161049.845000", "161050.635000", "161051.422500", "161052.210000", "161052.997500", "161053.787500", "161054.575000", "161055.362500", "161056.150000", "161056.940000", "161057.727500", "161058.515000", "161059.302500", "161100.092500", "161100.880000", "161101.667500", "161102.455000", "161103.245000", "161104.032500", "161104.820000", "161105.607500", "161106.397500", "161107.185000", "161107.972500", "161108.762500", "161109.550000", "161110.337500", "161111.125000", "161111.915000", "161112.702500", "161113.490000", "161114.277500", "161115.067500", "161115.855000", "161116.642500", "161117.430000", "161118.220000", "161119.007500", "161119.795000", "161120.582500", "161121.372500", "161122.160000", "161122.947500", "161123.735000", "161124.525000", "161125.312500", "161126.100000", "161126.890000", "161127.677500", "161128.465000", "161129.252500", "161130.042500", "161130.830000", "161131.617500", "161132.405000", "161133.195000", "161133.982500", "161134.770000", "161135.557500", "161136.347500", "161137.135000", "161137.922500", "161138.710000", "161139.500000", "161140.287500", "161141.075000", "161141.862500", "161142.652500", "161143.440000", "161144.227500", "161145.017500", "161145.805000", "161146.592500", "161147.380000", "161148.170000", "161148.957500", "161149.745000", "161150.532500", "161151.322500", "161152.110000", "161152.897500", "161153.685000", "161154.475000", "161155.262500", "161156.050000", "161156.837500", "161157.627500", "161158.415000", "161159.202500", "161159.990000", "161200.780000", "161201.567500", "161202.355000", "161203.145000", "161203.932500", "161204.720000", "161205.507500", "161206.297500", "161207.085000", "161207.872500", "161208.660000", "161209.450000", "161210.237500", "161211.025000", "161211.812500", "161212.602500", "161213.390000", "161214.177500", "161214.965000", "161215.755000", "161216.542500", "161217.330000", "161218.120000", "161218.907500", "161219.695000", "161220.482500", "161221.272500", "161222.060000", "161222.847500", "161223.635000", "161224.425000", "161225.212500", "161226.000000", "161226.787500", "161227.577500", "161228.365000", "161229.152500", "161229.940000", "161230.730000", "161231.517500", "161232.305000", "161233.092500", "161233.882500", "161234.670000", "161235.457500", "161236.247500", "161237.035000", "161237.822500", "161238.610000", "161239.400000", "161240.187500", "161240.975000", "161241.762500", "161242.552500", "161243.340000", "161244.127500", "161244.915000", "161245.705000", "161246.492500", "161247.280000", "161248.067500", "161248.857500", "161249.645000", "161250.432500", "161251.220000", "161252.010000", "161252.797500", "161253.585000", "161254.375000", "161255.162500", "161255.950000", "161256.737500", "161257.527500", "161258.315000", "161259.102500", "161259.890000", "161300.680000", "161301.467500", "161302.255000", "161303.042500", "161303.832500", "161304.620000", "161305.407500", "161306.195000", "161306.985000", "161307.772500", "161308.560000", "161309.347500", "161310.137500", "161310.925000", "161311.712500", "161312.502500", "161313.290000", "161314.077500", "161314.865000", "161315.655000", "161316.442500", "161317.230000", "161318.017500", "161318.807500", "161319.595000", "161320.382500", "161321.170000", "161321.960000", "161322.747500", "161323.535000", "161324.322500", "161325.112500", "161325.900000", "161326.687500", "161327.475000", "161328.265000", "161329.052500", "161329.840000", "161330.630000", "161331.417500", "161332.205000", "161332.992500", "161333.782500", "161334.570000", "161335.357500", "161336.145000", "161336.935000", "161337.722500", "161338.510000", "161339.297500", "161340.087500", "161340.875000", "161341.662500", "161342.450000", "161343.240000", "161344.027500", "161344.815000", "161345.602500", "161346.392500", "161347.180000", "161347.967500", "161348.757500", "161349.545000", "161350.332500", "161351.120000", "161351.910000", "161352.697500", "161353.485000", "161354.272500", "161355.062500", "161355.850000", "161356.637500", "161357.425000", "161358.215000", "161359.002500", "161359.790000", "161400.577500", "161401.367500", "161402.155000", "161402.942500", "161403.730000", "161404.520000", "161405.307500", "161406.095000", "161406.885000", "161407.672500", "161408.460000", "161409.247500", "161410.037500", "161410.825000", "161411.612500", "161412.400000", "161413.190000", "161413.977500", "161414.765000", "161415.552500", "161416.342500", "161417.130000", "161417.917500", "161418.705000", "161419.495000", "161420.282500", "161421.070000", "161421.857500", "161422.647500", "161423.435000", "161424.222500", "161425.012500", "161425.800000", "161426.587500", "161427.375000", "161428.165000", "161428.952500", "161429.740000", "161430.527500", "161431.317500", "161432.105000", "161432.892500", "161433.680000", "161434.470000", "161435.257500", "161436.045000", "161436.832500", "161437.622500", "161438.410000", "161439.197500", "161439.985000", "161440.775000", "161441.562500", "161442.350000", "161443.140000", "161443.927500", "161444.715000", "161445.502500", "161446.292500", "161447.080000", "161447.867500", "161448.655000", "161449.445000", "161450.232500", "161451.020000", "161451.807500", "161452.597500", "161453.385000", "161454.172500", "161454.960000", "161455.750000", "161456.537500", "161457.325000", "161458.112500", "161458.902500", "161459.690000", "161500.477500", "161501.267500", "161502.055000", "161502.842500", "161503.630000", "161504.420000", "161505.207500", "161505.995000", "161506.782500", "161507.572500", "161508.360000", "161509.147500", "161509.935000", "161510.725000", "161511.512500", "161512.300000", "161513.087500", "161513.877500", "161514.665000", "161515.452500", "161516.240000", "161517.030000", "161517.817500", "161518.605000", "161519.395000", "161520.182500", "161520.970000", "161521.757500", "161522.547500", "161523.335000", "161524.122500", "161524.910000", "161525.700000", "161526.487500", "161527.275000", "161528.062500", "161528.852500", "161529.640000", "161530.427500", "161531.215000", "161532.005000", "161532.792500", "161533.580000", "161534.370000", "161535.157500", "161535.945000", "161536.732500", "161537.522500", "161538.310000", "161539.097500", "161539.885000", "161540.675000", "161541.462500", "161542.250000", "161543.037500", "161543.827500", "161544.615000", "161545.402500", "161546.190000", "161546.980000", "161547.767500", "161548.555000", "161549.342500", "161550.132500", "161550.920000", "161551.707500", "161552.497500", "161553.285000", "161554.072500", "161554.860000", "161555.650000", "161556.437500", "161557.225000", "161558.012500", "161558.802500", "161559.590000", "161600.377500", "161601.165000", "161601.955000", "161602.742500", "161603.530000", "161604.317500", "161605.107500", "161605.895000", "161606.682500", "161607.470000", "161608.260000", "161609.047500", "161609.835000"],
      "ContentTime": ["160906.687000", "160906.687000", "160906.687000", "160906.703000", "160906.703000", "160906.703000", "160906.703000", "160906.703000", "160906.703000", "160906.703000", "160906.718000", "160906.718000", "160906.718000", "160906.718000", "160906.718000", "160906.718000", "160906.718000", "160906.734000", "160906.734000", "160906.734000", "160906.734000", "160906.734000", "160906.734000", "160906.734000", "160906.750000", "160906.750000", "160906.750000", "160906.750000", "160906.750000", "160906.750000", "160906.750000", "160906.765000", "160906.765000", "160906.765000", "160906.765000", "160906.765000", "160906.765000", "160906.765000", "160906.781000", "160906.781000", "160926.640000", "160926.640000", "160926.640000", "160926.640000", "160926.640000", "160926.656000", "160926.656000", "160926.656000", "160926.656000", "160926.656000", "160926.656000", "160926.656000", "160926.671000", "160926.671000", "160926.671000", "160926.671000", "160926.671000", "160926.671000", "160926.687000", "160926.687000", "160926.687000", "160926.687000", "160926.687000", "160926.687000", "160926.703000", "160926.703000", "160946.640000", "160946.640000", "160946.640000", "160946.640000", "160946.656000", "160946.656000", "160946.656000", "160946.656000", "160946.656000", "160946.656000", "160946.656000", "160946.671000", "160946.671000", "160946.671000", "160946.671000", "160946.671000", "160946.671000", "160946.687000", "160946.687000", "160946.687000", "160946.687000", "160946.687000", "160946.687000", "160946.703000", "160946.703000", "161006.640000", "161006.640000", "161006.640000", "161006.640000", "161006.640000", "161006.656000", "161006.656000", "161006.656000", "161006.656000", "161006.656000", "161006.656000", "161006.656000", "161006.671000", "161006.671000", "161006.671000", "161006.671000", "161006.671000", "161006.671000", "161006.671000", "161006.687000", "161006.687000", "161006.687000", "161006.687000", "161006.687000", "161006.687000", "161006.687000", "161026.640000", "161026.640000", "161026.640000", "161026.640000", "161026.656000", "161026.656000", "161026.656000", "161026.656000", "161026.656000", "161026.656000", "161026.656000", "161026.671000", "161026.671000", "161026.671000", "161026.671000", "161026.671000", "161026.671000", "161026.671000", "161026.687000", "161026.687000", "161026.687000", "161026.687000", "161026.687000", "161026.687000", "161026.687000", "161046.640000", "161046.640000", "161046.640000", "161046.640000", "161046.640000", "161046.656000", "161046.656000", "161046.656000", "161046.656000", "161046.656000", "161046.656000", "161046.656000", "161046.671000", "161046.671000", "161046.671000", "161046.671000", "161046.671000", "161046.671000", "161046.671000", "161046.687000", "161046.687000", "161046.687000", "161046.687000", "161046.687000", "161046.687000", "161046.703000", "161106.640000", "161106.640000", "161106.640000", "161106.640000", "161106.640000", "161106.656000", "161106.656000", "161106.656000", "161106.656000", "161106.656000", "161106.656000", "161106.656000", "161106.671000", "161106.671000", "161106.671000", "161106.671000", "161106.671000", "161106.671000", "161106.671000", "161106.687000", "161106.687000", "161106.687000", "161106.687000", "161106.687000", "161106.687000", "161126.640000", "161126.640000", "161126.640000", "161126.640000", "161126.640000", "161126.656000", "161126.656000", "161126.656000", "161126.656000", "161126.656000", "161126.656000", "161126.656000", "161126.671000", "161126.671000", "161126.671000", "161126.671000", "161126.671000", "161126.671000", "161126.671000", "161126.687000", "161126.687000", "161126.687000", "161126.687000", "161126.687000", "161126.687000", "161126.703000", "161146.640000", "161146.640000", "161146.640000", "161146.640000", "161146.640000", "161146.656000", "161146.656000", "161146.656000", "161146.656000", "161146.656000", "161146.656000", "161146.656000", "161146.671000", "161146.671000", "161146.671000", "161146.671000", "161146.671000", "161146.671000", "161146.671000", "161146.687000", "161146.687000", "161146.687000", "161146.687000", "161146.687000", "161146.687000", "161206.640000", "161206.640000", "161206.640000", "161206.640000", "161206.640000", "161206.656000", "161206.656000", "161206.656000", "161206.656000", "161206.656000", "161206.656000", "161206.656000", "161206.671000", "161206.671000", "161206.671000", "161206.671000", "161206.671000", "161206.671000", "161206.671000", "161206.687000", "161206.687000", "161206.687000", "161206.687000", "161206.687000", "161206.687000", "161206.687000", "161226.640000", "161226.640000", "161226.640000", "161226.640000", "161226.640000", "161226.656000", "161226.656000", "161226.656000", "161226.656000", "161226.656000", "161226.656000", "161226.656000", "161226.671000", "161226.671000", "161226.671000", "161226.671000", "161226.671000", "161226.671000", "161226.687000", "161226.687000", "161226.687000", "161226.687000", "161226.687000", "161226.687000", "161226.687000", "161246.640000", "161246.640000", "161246.640000", "161246.640000", "161246.640000", "161246.656000", "161246.656000", "161246.656000", "161246.656000", "161246.656000", "161246.656000", "161246.656000", "161246.671000", "161246.671000", "161246.671000", "161246.671000", "161246.671000", "161246.671000", "161246.671000", "161246.687000", "161246.687000", "161246.687000", "161246.687000", "161246.687000", "161246.687000", "161246.703000", "161306.640000", "161306.640000", "161306.640000", "161306.640000", "161306.640000", "161306.656000", "161306.656000", "161306.656000", "161306.656000", "161306.656000", "161306.656000", "161306.656000", "161306.671000", "161306.671000", "161306.671000", "161306.671000", "161306.671000", "161306.671000", "161306.671000", "161306.687000", "161306.687000", "161306.687000", "161306.687000", "161306.687000", "161306.687000", "161326.640000", "161326.640000", "161326.640000", "161326.640000", "161326.640000", "161326.656000", "161326.656000", "161326.656000", "161326.656000", "161326.656000", "161326.656000", "161326.656000", "161326.671000", "161326.671000", "161326.671000", "161326.671000", "161326.671000", "161326.671000", "161326.671000", "161326.687000", "161326.687000", "161326.687000", "161326.687000", "161326.687000", "161326.687000", "161326.687000", "161346.640000", "161346.640000", "161346.640000", "161346.640000", "161346.640000", "161346.656000", "161346.656000", "161346.656000", "161346.656000", "161346.656000", "161346.656000", "161346.656000", "161346.671000", "161346.671000", "161346.671000", "161346.671000", "161346.671000", "161346.671000", "161346.671000", "161346.687000", "161346.687000", "161346.687000", "161346.687000", "161346.687000", "161346.687000", "161406.640000", "161406.640000", "161406.640000", "161406.640000", "161406.640000", "161406.656000", "161406.656000", "161406.656000", "161406.656000", "161406.656000", "161406.656000", "161406.656000", "161406.671000", "161406.671000", "161406.671000", "161406.671000", "161406.671000", "161406.671000", "161406.671000", "161406.687000", "161406.687000", "161406.687000", "161406.687000", "161406.687000", "161406.687000", "161406.687000", "161426.640000", "161426.640000", "161426.640000", "161426.640000", "161426.640000", "161426.656000", "161426.656000", "161426.656000", "161426.656000", "161426.656000", "161426.656000", "161426.656000", "161426.671000", "161426.671000", "161426.671000", "161426.671000", "161426.671000", "161426.671000", "161426.671000", "161426.687000", "161426.687000", "161426.687000", "161426.687000", "161426.687000", "161426.687000", "161446.640000", "161446.640000", "161446.640000", "161446.640000", "161446.640000", "161446.656000", "161446.656000", "161446.656000", "161446.656000", "161446.656000", "161446.656000", "161446.656000", "161446.671000", "161446.671000", "161446.671000", "161446.671000", "161446.671000", "161446.671000", "161446.671000", "161446.687000", "161446.687000", "161446.687000", "161446.687000", "161446.687000", "161446.687000", "161446.687000", "161506.640000", "161506.640000", "161506.640000", "161506.640000", "161506.640000", "161506.656000", "161506.656000", "161506.656000", "161506.656000", "161506.656000", "161506.656000", "161506.656000", "161506.671000", "161506.671000", "161506.671000", "161506.671000", "161506.671000", "161506.671000", "161506.671000", "161506.687000", "161506.687000", "161506.687000", "161506.687000", "161506.687000", "161506.687000", "161526.640000", "161526.640000", "161526.640000", "161526.640000", "161526.640000", "161526.656000", "161526.656000", "161526.656000", "161526.656000", "161526.656000", "161526.656000", "161526.656000", "161526.671000", "161526.671000", "161526.671000", "161526.671000", "161526.671000", "161526.671000", "161526.687000", "161526.687000", "161526.687000", "161526.687000", "161526.687000", "161526.687000", "161526.687000", "161526.703000", "161546.640000", "161546.640000", "161546.640000", "161546.640000", "161546.640000", "161546.656000", "161546.656000", "161546.656000", "161546.656000", "161546.656000", "161546.656000", "161546.656000", "161546.671000", "161546.671000", "161546.671000", "161546.671000", "161546.671000", "161546.671000", "161546.671000", "161546.687000", "161546.687000", "161546.687000", "161546.687000", "161546.687000", "161546.687000", "161606.640000", "161606.640000", "161606.640000", "161606.640000", "161606.640000", "161606.656000", "161606.656000", "161606.656000", "161606.656000", "161606.656000", "161606.656000", "161606.656000", "161606.671000", "161606.671000", "161606.671000", "161606.671000", "161606.671000", "161606.671000", "161606.671000", "161606.687000", "161606.687000", "161606.687000", "161606.687000", "161606.703000", "161606.703000", "161606.703000", "161610.593000", "161610.593000", "161610.609000", "161610.609000", "161610.609000"],
      "DataSetTrailingPadding": [
        "\u0000\u0000\u0000\u0000\u0000\u0000\u0000\u0000\u0000\u0000\u0000\u0000\u0000\u0000\u0000\u0000\u0000\u0000\u0000\u0000\u0000\u0000\u0000\u0000\u0000\u0000\u0000\u0000\u0000\u0000\u0000\u0000\u0000\u0000\u0000\u0000\u0000\u0000\u0000\u0000\u0000\u0000\u0000\u0000\u0000\u0000\u0000\u0000\u0000\u0000\u0000\u0000\u0000\u0000\u0000\u0000\u0000\u0000\u0000\u0000\u0000\u0000\u0000\u0000\u0000\u0000\u0000\u0000\u0000\u0000\u0000\u0000\u0000\u0000\u0000\u0000\u0000\u0000\u0000\u0000\u0000\u0000\u0000\u0000\u0000\u0000\u0000\u0000\u0000\u0000\u0000\u0000\u0000\u0000\u0000\u0000\u0000\u0000\u0000\u0000\u0000\u0000\u0000\u0000\u0000\u0000\u0000\u0000\u0000\u0000\u0000\u0000\u0000\u0000\u0000\u0000\u0000\u0000\u0000\u0000\u0000\u0000\u0000\u0000\u0000\u0000\u0000\u0000\u0000\u0000\u0000\u0000\u0000\u0000\u0000\u0000\u0000\u0000\u0000\u0000\u0000\u0000\u0000\u0000\u0000\u0000\u0000\u0000\u0000\u0000\u0000\u0000\u0000\u0000\u0000\u0000\u0000\u0000\u0000\u0000\u0000\u0000\u0000\u0000\u0000\u0000\u0000\u0000\u0000\u0000\u0000\u0000\u0000\u0000\u0000\u0000\u0000\u0000\u0000\u0000\u0000\u0000\u0000\u0000\u0000\u0000\u0000\u0000\u0000\u0000\u0000\u0000\u0000\u0000\u0000\u0000\u0000\u0000\u0000\u0000\u0000\u0000\u0000\u0000\u0000\u0000\u0000\u0000\u0000\u0000\u0000\u0000\u0000\u0000\u0000\u0000\u0000\u0000\u0000\u0000\u0000\u0000\u0000\u0000\u0000\u0000\u0000\u0000\u0000\u0000\u0000\u0000\u0000\u0000\u0000\u0000\u0000\u0000\u0000\u0000\u0000\u0000\u0000\u0000\u0000\u0000\u0000\u0000",
