{
  "AcquisitionMatrixPE": 104,
  "AcquisitionNumber": 1,
  "AcquisitionTime": "16:25:3.672500",
  "BandwidthPerPixelPhaseEncode": 13.935,
  "BaseResolution": 104,
  "CoilString": "C:HEA;HEP",
  "ConversionSoftware": "dcm2niix",
  "ConversionSoftwareVersion": "v1.0.20210317",
  "DerivedVendorReportedEchoSpacing": 0.000690017,
  "DeviceSerialNumber": "35450",
  "DwellTime": 2.5e-06,
  "EchoTime": 0.0348,
  "EffectiveEchoSpacing": 0.000690017,
  "FlipAngle": 55,
  "ImageComments": "Unaliased MB8/PE3 (remote)",
  "ImageOrientationPatientDICOM": [1, 7.18335e-05, 0.000934519, 6.82108e-08, 0.997053, -0.0767133],
  "ImageType": [
    "ORIGINAL",
    "PRIMARY",
    "M",
    "MB",
    "ND",
    "MOSAIC"
],
  "ImagingFrequency": 123.234,
  "InPlanePhaseEncodingDirectionDICOM": "COL",
  "InstitutionAddress": "Univeristy Ave. 197,Newark,North East,US,07102-1814",
  "InstitutionName": "RUBIC",
  "InstitutionalDepartmentName": "Department",
  "MRAcquisitionType": "2D",
  "MagneticFieldStrength": 3,
  "Manufacturer": "Siemens",
  "ManufacturersModelName": "TrioTim",
  "Modality": "MR",
  "MultibandAccelerationFactor": 8,
  "PartialFourier": 0.875,
  "PatientPosition": "HFS",
  "PercentPhaseFOV": 100,
  "PercentSampling": 100,
  "PhaseEncodingDirection": "j-",
  "PhaseEncodingSteps": 91,
  "PhaseResolution": 1,
  "PixelBandwidth": 1923,
  "ProcedureStepDescription": "Cole^Michael",
  "ProtocolName": "cmrr_mbep2d_bold_2mm_MB8_Task_8x",
  "PulseSequenceDetails": "%CustomerSeq%\\cmrr_mbep2d_bold",
  "ReceiveCoilName": "32Ch_Head",
  "ReconMatrixPE": 104,
  "RepetitionTime": 0.785,
  "SAR": 0.118053,
  "ScanOptions": "PFP\\FS",
  "ScanningSequence": "EP",
  "SequenceName": "epfid2d1_104",
  "SequenceVariant": "SK\\SS",
  "SeriesDescription": "cmrr_mbep2d_bold_2mm_MB8_Task_8x",
  "SeriesNumber": 25,
  "ShimSetting": [2111, -388, -7180, 379, 51, -657, 192, 120],
  "SliceThickness": 2,
  "SliceTiming": [0, 0.4375, 0.0875, 0.525, 0.175, 0.6125, 0.2625, 0.7, 0.35, 0, 0.4375, 0.0875, 0.525, 0.175, 0.6125, 0.2625, 0.7, 0.35, 0, 0.4375, 0.0875, 0.525, 0.175, 0.6125, 0.2625, 0.7, 0.35, 0, 0.4375, 0.0875, 0.525, 0.175, 0.6125, 0.2625, 0.7, 0.35, 0, 0.4375, 0.0875, 0.525, 0.175, 0.6125, 0.2625, 0.7, 0.35, 0, 0.4375, 0.0875, 0.525, 0.175, 0.6125, 0.2625, 0.7, 0.35, 0, 0.4375, 0.0875, 0.525, 0.175, 0.6125, 0.2625, 0.7, 0.35, 0, 0.4375, 0.0875, 0.525, 0.175, 0.6125, 0.2625, 0.7, 0.35],
  "SoftwareVersions": "syngo MR B19",
  "SpacingBetweenSlices": 2,
  "StationName": "MRC35450",
  "TaskName": "cpro",
  "TotalReadoutTime": 0.0710717,
  "TxRefAmp": 318.909,
  "dcmmeta_affine": [
    [-1.9999991655349731, 1.3642160467952635e-07, 0.0018745504785329103, 103.94432830810547],
    [-0.00014366701361723244, 1.994106411933899, -0.15342660248279572, -76.12290954589844],
    [0.0018690370488911867, 0.15342667698860168, 1.9941054582595825, -89.35294342041016],
    [0.0, 0.0, 0.0, 1.0]
],
  "dcmmeta_reorient_transform": [
    [0.0, -1.0, 0.0, 103.0],
    [1.0, 0.0, 0.0, 0.0],
    [0.0, 0.0, 1.0, 0.0],
    [0.0, 0.0, 0.0, 1.0]
],
  "dcmmeta_shape": [104, 104, 72, 581],
  "dcmmeta_slice_dim": 2,
  "dcmmeta_version": 0.6,
  "global": {
    "const": {
      "AcquisitionMatrix": [104, 0, 0, 104],
      "AngioFlag": "N",
      "BitsAllocated": 16,
      "BitsStored": 12,
      "Columns": 936,
      "EchoNumbers": 1,
      "EchoTime": 34.8,
      "EchoTrainLength": 1,
      "FlipAngle": 55.0,
      "HighBit": 11,
      "ImageOrientationPatient": [0.99999956075742, 7.183350443e-05, 0.00093451855231, 6.8210802e-08, 0.99705319021007, -0.0767133358153],
      "ImagePositionPatient": [-935.94403566119, -958.87806440258, -10.502019168305],
      "ImageType": [
        "ORIGINAL",
        "PRIMARY",
        "M",
        "MB",
        "ND",
        "MOSAIC"
],
      "ImagedNucleus": "1H",
      "ImagingFrequency": 123.234465,
      "InPlanePhaseEncodingDirection": "COL",
      "MRAcquisitionType": "2D",
      "MagneticFieldStrength": 3.0,
      "Manufacturer": "SIEMENS",
      "ManufacturerModelName": "TrioTim",
      "Modality": "MR",
      "NumberOfAverages": 1.0,
      "NumberOfPhaseEncodingSteps": 91,
      "PercentPhaseFieldOfView": 100.0,
      "PercentSampling": 100.0,
      "PerformedProcedureStepStartTime": "144451.421000",
      "PhotometricInterpretation": "MONOCHROME2",
      "PixelBandwidth": 1923.0,
      "PixelRepresentation": 0,
      "PixelSpacing": [2.0, 2.0],
      "ProtocolName": "cmrr_mbep2d_bold_2mm_MB8_Task_8x",
      "RepetitionTime": 785.0,
      "Rows": 936,
      "SAR": 0.11805344708941,
      "SamplesPerPixel": 1,
      "ScanOptions": [
        "PFP",
        "FS"
],
      "ScanningSequence": "EP",
      "SequenceName": "epfid2d1_104",
      "SequenceVariant": [
        "SK",
        "SS"
],
      "SeriesDescription": "cmrr_mbep2d_bold_2mm_MB8_Task_8x",
      "SeriesNumber": 25,
      "SeriesTime": "162524.671000",
      "SliceLocation": -83.152532608467,
      "SliceThickness": 2.0,
      "SmallestImagePixelValue": 0,
      "SoftwareVersions": "syngo MR B19",
      "SpacingBetweenSlices": 1.999999928451,
      "SpecificCharacterSet": "ISO_IR 100",
      "StudyID": "1",
      "StudyTime": "144451.343000",
      "TransmitCoilName": "Body",
      "VariableFlipAngleFlag": "N",
      "WindowCenterWidthExplanation": "Algo1",
      "dBdt": 0.0},
    "slices": {}
  },
  "time": {
    "samples": {
      "AcquisitionNumber": [1, 2, 3, 4, 5, 6, 7, 8, 9, 10, 11, 12, 13, 14, 15, 16, 17, 18, 19, 20, 21, 22, 23, 24, 25, 26, 27, 28, 29, 30, 31, 32, 33, 34, 35, 36, 37, 38, 39, 40, 41, 42, 43, 44, 45, 46, 47, 48, 49, 50, 51, 52, 53, 54, 55, 56, 57, 58, 59, 60, 61, 62, 63, 64, 65, 66, 67, 68, 69, 70, 71, 72, 73, 74, 75, 76, 77, 78, 79, 80, 81, 82, 83, 84, 85, 86, 87, 88, 89, 90, 91, 92, 93, 94, 95, 96, 97, 98, 99, 100, 101, 102, 103, 104, 105, 106, 107, 108, 109, 110, 111, 112, 113, 114, 115, 116, 117, 118, 119, 120, 121, 122, 123, 124, 125, 126, 127, 128, 129, 130, 131, 132, 133, 134, 135, 136, 137, 138, 139, 140, 141, 142, 143, 144, 145, 146, 147, 148, 149, 150, 151, 152, 153, 154, 155, 156, 157, 158, 159, 160, 161, 162, 163, 164, 165, 166, 167, 168, 169, 170, 171, 172, 173, 174, 175, 176, 177, 178, 179, 180, 181, 182, 183, 184, 185, 186, 187, 188, 189, 190, 191, 192, 193, 194, 195, 196, 197, 198, 199, 200, 201, 202, 203, 204, 205, 206, 207, 208, 209, 210, 211, 212, 213, 214, 215, 216, 217, 218, 219, 220, 221, 222, 223, 224, 225, 226, 227, 228, 229, 230, 231, 232, 233, 234, 235, 236, 237, 238, 239, 240, 241, 242, 243, 244, 245, 246, 247, 248, 249, 250, 251, 252, 253, 254, 255, 256, 257, 258, 259, 260, 261, 262, 263, 264, 265, 266, 267, 268, 269, 270, 271, 272, 273, 274, 275, 276, 277, 278, 279, 280, 281, 282, 283, 284, 285, 286, 287, 288, 289, 290, 291, 292, 293, 294, 295, 296, 297, 298, 299, 300, 301, 302, 303, 304, 305, 306, 307, 308, 309, 310, 311, 312, 313, 314, 315, 316, 317, 318, 319, 320, 321, 322, 323, 324, 325, 326, 327, 328, 329, 330, 331, 332, 333, 334, 335, 336, 337, 338, 339, 340, 341, 342, 343, 344, 345, 346, 347, 348, 349, 350, 351, 352, 353, 354, 355, 356, 357, 358, 359, 360, 361, 362, 363, 364, 365, 366, 367, 368, 369, 370, 371, 372, 373, 374, 375, 376, 377, 378, 379, 380, 381, 382, 383, 384, 385, 386, 387, 388, 389, 390, 391, 392, 393, 394, 395, 396, 397, 398, 399, 400, 401, 402, 403, 404, 405, 406, 407, 408, 409, 410, 411, 412, 413, 414, 415, 416, 417, 418, 419, 420, 421, 422, 423, 424, 425, 426, 427, 428, 429, 430, 431, 432, 433, 434, 435, 436, 437, 438, 439, 440, 441, 442, 443, 444, 445, 446, 447, 448, 449, 450, 451, 452, 453, 454, 455, 456, 457, 458, 459, 460, 461, 462, 463, 464, 465, 466, 467, 468, 469, 470, 471, 472, 473, 474, 475, 476, 477, 478, 479, 480, 481, 482, 483, 484, 485, 486, 487, 488, 489, 490, 491, 492, 493, 494, 495, 496, 497, 498, 499, 500, 501, 502, 503, 504, 505, 506, 507, 508, 509, 510, 511, 512, 513, 514, 515, 516, 517, 518, 519, 520, 521, 522, 523, 524, 525, 526, 527, 528, 529, 530, 531, 532, 533, 534, 535, 536, 537, 538, 539, 540, 541, 542, 543, 544, 545, 546, 547, 548, 549, 550, 551, 552, 553, 554, 555, 556, 557, 558, 559, 560, 561, 562, 563, 564, 565, 566, 567, 568, 569, 570, 571, 572, 573, 574, 575, 576, 577, 578, 579, 580, 581],
      "AcquisitionTime": ["162503.672500", "162504.460000", "162505.247500", "162506.035000", "162506.825000", "162507.612500", "162508.400000", "162509.187500", "162509.977500", "162510.765000", "162511.552500", "162512.340000", "162513.130000", "162513.917500", "162514.705000", "162515.495000", "162516.282500", "162517.070000", "162517.857500", "162518.647500", "162519.435000", "162520.222500", "162521.010000", "162521.800000", "162522.587500", "162523.375000", "162524.162500", "162524.952500", "162525.740000", "162526.527500", "162527.315000", "162528.105000", "162528.892500", "162529.680000", "162530.467500", "162531.257500", "162532.045000", "162532.832500", "162533.622500", "162534.410000", "162535.197500", "162535.985000", "162536.775000", "162537.562500", "162538.350000", "162539.137500", "162539.927500", "162540.715000", "162541.502500", "162542.290000", "162543.080000", "162543.867500", "162544.655000", "162545.442500", "162546.232500", "162547.020000", "162547.807500", "162548.595000", "162549.385000", "162550.172500", "162550.960000", "162551.750000", "162552.537500", "162553.325000", "162554.112500", "162554.902500", "162555.690000", "162556.477500", "162557.265000", "162558.055000", "162558.842500", "162559.630000", "162600.417500", "162601.207500", "162601.995000", "162602.782500", "162603.570000", "162604.360000", "162605.147500", "162605.935000", "162606.722500", "162607.512500", "162608.300000", "162609.087500", "162609.877500", "162610.665000", "162611.452500", "162612.240000", "162613.030000", "162613.817500", "162614.605000", "162615.392500", "162616.182500", "162616.970000", "162617.757500", "162618.545000", "162619.335000", "162620.122500", "162620.910000", "162621.697500", "162622.487500", "162623.275000", "162624.062500", "162624.850000", "162625.640000", "162626.427500", "162627.215000", "162628.005000", "162628.792500", "162629.580000", "162630.367500", "162631.157500", "162631.945000", "162632.732500", "162633.520000", "162634.310000", "162635.097500", "162635.885000", "162636.672500", "162637.462500", "162638.250000", "162639.037500", "162639.825000", "162640.615000", "162641.402500", "162642.190000", "162642.977500", "162643.767500", "162644.555000", "162645.342500", "162646.132500", "162646.920000", "162647.707500", "162648.495000", "162649.285000", "162650.072500", "162650.860000", "162651.647500", "162652.437500", "162653.225000", "162654.012500", "162654.800000", "162655.590000", "162656.377500", "162657.165000", "162657.952500", "162658.742500", "162659.530000", "162700.317500", "162701.105000", "162701.895000", "162702.682500", "162703.470000", "162704.260000", "162705.047500", "162705.835000", "162706.622500", "162707.412500", "162708.200000", "162708.987500", "162709.775000", "162710.565000", "162711.352500", "162712.140000", "162712.927500", "162713.717500", "162714.505000", "162715.292500", "162716.080000", "162716.870000", "162717.657500", "162718.445000", "162719.232500", "162720.022500", "162720.810000", "162721.597500", "162722.387500", "162723.175000", "162723.962500", "162724.750000", "162725.540000", "162726.327500", "162727.115000", "162727.902500", "162728.692500", "162729.480000", "162730.267500", "162731.055000", "162731.845000", "162732.632500", "162733.420000", "162734.207500", "162734.997500", "162735.785000", "162736.572500", "162737.362500", "162738.150000", "162738.937500", "162739.725000", "162740.515000", "162741.302500", "162742.090000", "162742.877500", "162743.667500", "162744.455000", "162745.242500", "162746.030000", "162746.820000", "162747.607500", "162748.395000", "162749.182500", "162749.972500", "162750.760000", "162751.547500", "162752.335000", "162753.125000", "162753.912500", "162754.700000", "162755.490000", "162756.277500", "162757.065000", "162757.852500", "162758.642500", "162759.430000", "162800.217500", "162801.005000", "162801.795000", "162802.582500", "162803.370000", "162804.157500", "162804.947500", "162805.735000", "162806.522500", "162807.310000", "162808.100000", "162808.887500", "162809.675000", "162810.462500", "162811.252500", "162812.040000", "162812.827500", "162813.617500", "162814.405000", "162815.192500", "162815.980000", "162816.770000", "162817.557500", "162818.345000", "162819.132500", "162819.922500", "162820.710000", "162821.497500", "162822.285000", "162823.075000", "162823.862500", "162824.650000", "162825.437500", "162826.227500", "162827.015000", "162827.802500", "162828.590000", "162829.380000", "162830.167500", "162830.955000", "162831.745000", "162832.532500", "162833.320000", "162834.107500", "162834.897500", "162835.685000", "162836.472500", "162837.260000", "162838.050000", "162838.837500", "162839.625000", "162840.412500", "162841.202500", "162841.990000", "162842.777500", "162843.565000", "162844.355000", "162845.142500", "162845.930000", "162846.717500", "162847.507500", "162848.295000", "162849.082500", "162849.872500", "162850.660000", "162851.447500", "162852.235000", "162853.025000", "162853.812500", "162854.600000", "162855.387500", "162856.177500", "162856.965000", "162857.752500", "162858.540000", "162859.330000", "162900.117500", "162900.905000", "162901.692500", "162902.482500", "162903.270000", "162904.057500", "162904.845000", "162905.635000", "162906.422500", "162907.210000", "162908.000000", "162908.787500", "162909.575000", "162910.362500", "162911.152500", "162911.940000", "162912.727500", "162913.515000", "162914.305000", "162915.092500", "162915.880000", "162916.667500", "162917.457500", "162918.245000", "162919.032500", "162919.820000", "162920.610000", "162921.397500", "162922.185000", "162922.972500", "162923.762500", "162924.550000", "162925.337500", "162926.127500", "162926.915000", "162927.702500", "162928.490000", "162929.280000", "162930.067500", "162930.855000", "162931.642500", "162932.432500", "162933.220000", "162934.007500", "162934.795000", "162935.585000", "162936.372500", "162937.160000", "162937.947500", "162938.737500", "162939.525000", "162940.312500", "162941.100000", "162941.890000", "162942.677500", "162943.465000", "162944.255000", "162945.042500", "162945.830000", "162946.617500", "162947.407500", "162948.195000", "162948.982500", "162949.770000", "162950.560000", "162951.347500", "162952.135000", "162952.922500", "162953.712500", "162954.500000", "162955.287500", "162956.075000", "162956.865000", "162957.652500", "162958.440000", "162959.227500", "163000.017500", "163000.805000", "163001.592500", "163002.382500", "163003.170000", "163003.957500", "163004.745000", "163005.535000", "163006.322500", "163007.110000", "163007.897500", "163008.687500", "163009.475000", "163010.262500", "163011.050000", "163011.840000", "163012.627500", "163013.415000", "163014.202500", "163014.992500", "163015.780000", "163016.567500", "163017.355000", "163018.145000", "163018.932500", "163019.720000", "163020.510000", "163021.297500", "163022.085000", "163022.872500", "163023.662500", "163024.450000", "163025.237500", "163026.025000", "163026.815000", "163027.602500", "163028.390000", "163029.177500", "163029.967500", "163030.755000", "163031.542500", "163032.330000", "163033.120000", "163033.907500", "163034.695000", "163035.482500", "163036.272500", "163037.060000", "163037.847500", "163038.637500", "163039.425000", "163040.212500", "163041.000000", "163041.790000", "163042.577500", "163043.365000", "163044.152500", "163044.942500", "163045.730000", "163046.517500", "163047.305000", "163048.095000", "163048.882500", "163049.670000", "163050.457500", "163051.247500", "163052.035000", "163052.822500", "163053.612500", "163054.400000", "163055.187500", "163055.975000", "163056.765000", "163057.552500", "163058.340000", "163059.127500", "163059.917500", "163100.705000", "163101.492500", "163102.280000", "163103.070000", "163103.857500", "163104.645000", "163105.432500", "163106.222500", "163107.010000", "163107.797500", "163108.585000", "163109.375000", "163110.162500", "163110.950000", "163111.740000", "163112.527500", "163113.315000", "163114.102500", "163114.892500", "163115.680000", "163116.467500", "163117.255000", "163118.045000", "163118.832500", "163119.620000", "163120.407500", "163121.197500", "163121.985000", "163122.772500", "163123.560000", "163124.350000", "163125.137500", "163125.925000", "163126.712500", "163127.502500", "163128.290000", "163129.077500", "163129.867500", "163130.655000", "163131.442500", "163132.230000", "163133.020000", "163133.807500", "163134.595000", "163135.382500", "163136.172500", "163136.960000", "163137.747500", "163138.535000", "163139.325000", "163140.112500", "163140.900000", "163141.687500", "163142.477500", "163143.265000", "163144.052500", "163144.840000", "163145.630000", "163146.417500", "163147.205000", "163147.995000", "163148.782500", "163149.570000", "163150.357500", "163151.147500", "163151.935000", "163152.722500", "163153.510000", "163154.300000", "163155.087500", "163155.875000", "163156.662500", "163157.452500", "163158.240000", "163159.027500", "163159.815000", "163200.605000", "163201.392500", "163202.180000", "163202.967500", "163203.757500", "163204.545000", "163205.332500", "163206.122500", "163206.910000", "163207.697500", "163208.485000", "163209.275000", "163210.062500", "163210.850000", "163211.637500", "163212.427500", "163213.215000", "163214.002500", "163214.790000", "163215.580000", "163216.367500", "163217.155000", "163217.942500", "163218.732500", "163219.520000", "163220.307500", "163221.095000", "163221.885000", "163222.672500", "163223.460000", "163224.250000", "163225.037500", "163225.825000", "163226.612500", "163227.402500", "163228.190000", "163228.977500", "163229.765000", "163230.555000", "163231.342500", "163232.130000", "163232.917500", "163233.707500", "163234.495000", "163235.282500", "163236.070000", "163236.860000", "163237.647500", "163238.435000", "163239.222500", "163240.012500", "163240.800000"],
      "ContentTime": ["162524.671000", "162524.671000", "162524.687000", "162524.687000", "162524.687000", "162524.687000", "162524.687000", "162524.687000", "162524.687000", "162524.703000", "162524.703000", "162524.703000", "162524.703000", "162524.703000", "162524.703000", "162524.703000", "162524.718000", "162524.718000", "162524.718000", "162524.718000", "162524.718000", "162524.718000", "162524.718000", "162524.734000", "162544.656000", "162544.656000", "162544.656000", "162544.656000", "162544.656000", "162544.671000", "162544.671000", "162544.671000", "162544.671000", "162544.671000", "162544.671000", "162544.671000", "162544.687000", "162544.687000", "162544.687000", "162544.687000", "162544.687000", "162544.687000", "162544.687000", "162544.703000", "162544.703000", "162544.703000", "162544.703000", "162544.703000", "162544.703000", "162544.703000", "162604.656000", "162604.656000", "162604.656000", "162604.656000", "162604.656000", "162604.671000", "162604.671000", "162604.671000", "162604.671000", "162604.671000", "162604.671000", "162604.671000", "162604.687000", "162604.687000", "162604.687000", "162604.687000", "162604.687000", "162604.687000", "162604.687000", "162604.703000", "162604.703000", "162604.703000", "162604.703000", "162604.703000", "162604.703000", "162624.656000", "162624.656000", "162624.656000", "162624.656000", "162624.656000", "162624.671000", "162624.671000", "162624.671000", "162624.671000", "162624.671000", "162624.671000", "162624.671000", "162624.687000", "162624.687000", "162624.687000", "162624.687000", "162624.687000", "162624.687000", "162624.687000", "162624.703000", "162624.703000", "162624.703000", "162624.703000", "162624.703000", "162624.703000", "162644.656000", "162644.656000", "162644.656000", "162644.656000", "162644.656000", "162644.671000", "162644.671000", "162644.671000", "162644.671000", "162644.671000", "162644.671000", "162644.671000", "162644.687000", "162644.687000", "162644.687000", "162644.687000", "162644.687000", "162644.687000", "162644.687000", "162644.703000", "162644.703000", "162644.703000", "162644.703000", "162644.703000", "162644.703000", "162644.703000", "162704.656000", "162704.656000", "162704.656000", "162704.656000", "162704.656000", "162704.671000", "162704.671000", "162704.671000", "162704.671000", "162704.671000", "162704.671000", "162704.671000", "162704.687000", "162704.687000", "162704.687000", "162704.687000", "162704.687000", "162704.687000", "162704.687000", "162704.703000", "162704.703000", "162704.703000", "162704.703000", "162704.703000", "162704.703000", "162724.656000", "162724.656000", "162724.656000", "162724.656000", "162724.656000", "162724.671000", "162724.671000", "162724.671000", "162724.671000", "162724.671000", "162724.671000", "162724.671000", "162724.687000", "162724.687000", "162724.687000", "162724.687000", "162724.687000", "162724.687000", "162724.687000", "162724.703000", "162724.703000", "162724.703000", "162724.703000", "162724.703000", "162724.703000", "162724.703000", "162744.656000", "162744.656000", "162744.656000", "162744.656000", "162744.656000", "162744.671000", "162744.671000", "162744.671000", "162744.671000", "162744.671000", "162744.671000", "162744.671000", "162744.687000", "162744.687000", "162744.687000", "162744.687000", "162744.687000", "162744.687000", "162744.687000", "162744.703000", "162744.703000", "162744.703000", "162744.703000", "162744.703000", "162744.703000", "162804.656000", "162804.656000", "162804.656000", "162804.656000", "162804.656000", "162804.671000", "162804.671000", "162804.671000", "162804.671000", "162804.671000", "162804.671000", "162804.671000", "162804.687000", "162804.687000", "162804.687000", "162804.687000", "162804.687000", "162804.687000", "162804.687000", "162804.703000", "162804.703000", "162804.703000", "162804.703000", "162804.703000", "162804.703000", "162804.703000", "162824.656000", "162824.656000", "162824.656000", "162824.656000", "162824.656000", "162824.671000", "162824.671000", "162824.671000", "162824.671000", "162824.671000", "162824.671000", "162824.671000", "162824.687000", "162824.687000", "162824.687000", "162824.687000", "162824.687000", "162824.687000", "162824.687000", "162824.703000", "162824.703000", "162824.703000", "162824.703000", "162824.703000", "162824.703000", "162844.656000", "162844.656000", "162844.656000", "162844.656000", "162844.656000", "162844.671000", "162844.671000", "162844.671000", "162844.671000", "162844.671000", "162844.671000", "162844.671000", "162844.687000", "162844.687000", "162844.687000", "162844.687000", "162844.687000", "162844.687000", "162844.687000", "162844.703000", "162844.703000", "162844.703000", "162844.703000", "162844.703000", "162844.703000", "162844.703000", "162904.656000", "162904.656000", "162904.656000", "162904.656000", "162904.656000", "162904.671000", "162904.671000", "162904.671000", "162904.671000", "162904.671000", "162904.671000", "162904.671000", "162904.687000", "162904.687000", "162904.687000", "162904.687000", "162904.687000", "162904.687000", "162904.687000", "162904.703000", "162904.703000", "162904.703000", "162904.703000", "162904.703000", "162904.703000", "162924.656000", "162924.656000", "162924.656000", "162924.656000", "162924.656000", "162924.671000", "162924.671000", "162924.671000", "162924.671000", "162924.671000", "162924.671000", "162924.671000", "162924.687000", "162924.687000", "162924.687000", "162924.687000", "162924.687000", "162924.687000", "162924.703000", "162924.703000", "162924.703000", "162924.703000", "162924.703000", "162924.703000", "162924.703000", "162924.718000", "162944.656000", "162944.656000", "162944.656000", "162944.656000", "162944.656000", "162944.671000", "162944.671000", "162944.671000", "162944.671000", "162944.671000", "162944.671000", "162944.671000", "162944.687000", "162944.687000", "162944.687000", "162944.687000", "162944.687000", "162944.687000", "162944.687000", "162944.703000", "162944.703000", "162944.703000", "162944.703000", "162944.703000", "162944.703000", "163004.656000", "163004.656000", "163004.656000", "163004.656000", "163004.656000", "163004.671000", "163004.671000", "163004.671000", "163004.671000", "163004.671000", "163004.671000", "163004.671000", "163004.687000", "163004.687000", "163004.687000", "163004.687000", "163004.687000", "163004.687000", "163004.687000", "163004.703000", "163004.703000", "163004.703000", "163004.703000", "163004.703000", "163004.703000", "163004.703000", "163024.656000", "163024.656000", "163024.656000", "163024.656000", "163024.656000", "163024.671000", "163024.671000", "163024.671000", "163024.671000", "163024.671000", "163024.671000", "163024.671000", "163024.687000", "163024.687000", "163024.687000", "163024.687000", "163024.687000", "163024.687000", "163024.687000", "163024.703000", "163024.703000", "163024.703000", "163024.703000", "163024.703000", "163024.703000", "163044.656000", "163044.656000", "163044.656000", "163044.656000", "163044.656000", "163044.671000", "163044.671000", "163044.671000", "163044.671000", "163044.671000", "163044.671000", "163044.671000", "163044.687000", "163044.687000", "163044.687000", "163044.687000", "163044.687000", "163044.687000", "163044.687000", "163044.703000", "163044.703000", "163044.703000", "163044.703000", "163044.703000", "163044.703000", "163044.718000", "163104.656000", "163104.656000", "163104.656000", "163104.656000", "163104.656000", "163104.671000", "163104.671000", "163104.671000", "163104.671000", "163104.671000", "163104.671000", "163104.671000", "163104.687000", "163104.687000", "163104.687000", "163104.687000", "163104.687000", "163104.687000", "163104.687000", "163104.703000", "163104.703000", "163104.703000", "163104.703000", "163104.703000", "163104.703000", "163124.656000", "163124.656000", "163124.656000", "163124.656000", "163124.656000", "163124.671000", "163124.671000", "163124.671000", "163124.671000", "163124.671000", "163124.671000", "163124.671000", "163124.687000", "163124.687000", "163124.687000", "163124.687000", "163124.687000", "163124.687000", "163124.687000", "163124.703000", "163124.703000", "163124.703000", "163124.703000", "163124.703000", "163124.703000", "163124.703000", "163144.656000", "163144.656000", "163144.656000", "163144.656000", "163144.656000", "163144.671000", "163144.671000", "163144.671000", "163144.671000", "163144.671000", "163144.671000", "163144.671000", "163144.687000", "163144.687000", "163144.687000", "163144.687000", "163144.687000", "163144.687000", "163144.687000", "163144.703000", "163144.703000", "163144.703000", "163144.703000", "163144.703000", "163144.703000", "163204.656000", "163204.656000", "163204.656000", "163204.656000", "163204.656000", "163204.671000", "163204.671000", "163204.671000", "163204.671000", "163204.671000", "163204.671000", "163204.671000", "163204.687000", "163204.687000", "163204.687000", "163204.687000", "163204.687000", "163204.687000", "163204.687000", "163204.703000", "163204.703000", "163204.703000", "163204.703000", "163204.703000", "163204.703000", "163204.703000", "163224.656000", "163224.656000", "163224.656000", "163224.656000", "163224.656000", "163224.671000", "163224.671000", "163224.671000", "163224.671000", "163224.671000", "163224.671000", "163224.671000", "163224.687000", "163224.687000", "163224.687000", "163224.687000", "163224.687000", "163224.687000", "163224.687000", "163224.703000", "163224.703000", "163224.703000", "163224.703000", "163224.703000", "163224.703000", "163241.531000", "163241.531000", "163241.531000", "163241.531000", "163241.531000", "163241.531000", "163241.531000", "163241.546000", "163241.546000", "163241.546000", "163241.546000", "163241.546000", "163241.546000", "163241.546000", "163241.562000", "163241.562000", "163241.562000", "163241.562000", "163241.562000", "163241.562000", "163241.562000", "163241.578000"],
      "DataSetTrailingPadding": [
        "\u0000\u0000\u0000\u0000\u0000\u0000\u0000\u0000\u0000\u0000\u0000\u0000\u0000\u0000\u0000\u0000\u0000\u0000\u0000\u0000\u0000\u0000\u0000\u0000\u0000\u0000\u0000\u0000\u0000\u0000\u0000\u0000\u0000\u0000\u0000\u0000\u0000\u0000\u0000\u0000\u0000\u0000\u0000\u0000\u0000\u0000\u0000\u0000\u0000\u0000\u0000\u0000\u0000\u0000\u0000\u0000\u0000\u0000\u0000\u0000\u0000\u0000\u0000\u0000\u0000\u0000\u0000\u0000\u0000\u0000\u0000\u0000\u0000\u0000\u0000\u0000\u0000\u0000\u0000\u0000\u0000\u0000\u0000\u0000\u0000\u0000\u0000\u0000\u0000\u0000\u0000\u0000\u0000\u0000\u0000\u0000\u0000\u0000\u0000\u0000\u0000\u0000\u0000\u0000\u0000\u0000\u0000\u0000\u0000\u0000\u0000\u0000\u0000\u0000\u0000\u0000\u0000\u0000\u0000\u0000\u0000\u0000\u0000\u0000\u0000\u0000\u0000\u0000\u0000\u0000\u0000\u0000\u0000\u0000\u0000\u0000\u0000\u0000\u0000\u0000\u0000\u0000\u0000\u0000\u0000\u0000\u0000\u0000\u0000\u0000\u0000\u0000\u0000\u0000\u0000\u0000\u0000\u0000\u0000\u0000\u0000\u0000\u0000\u0000\u0000\u0000\u0000\u0000\u0000\u0000\u0000\u0000\u0000\u0000\u0000\u0000\u0000\u0000\u0000\u0000\u0000\u0000\u0000\u0000\u0000\u0000\u0000\u0000\u0000\u0000\u0000\u0000\u0000\u0000\u0000\u0000\u0000\u0000\u0000\u0000\u0000\u0000\u0000\u0000\u0000\u0000\u0000\u0000\u0000\u0000\u0000\u0000\u0000\u0000\u0000\u0000\u0000\u0000\u0000\u0000\u0000\u0000\u0000\u0000\u0000\u0000\u0000\u0000\u0000\u0000\u0000\u0000\u0000\u0000\u0000\u0000\u0000\u0000\u0000\u0000\u0000\u0000\u0000\u0000\u0000\u0000\u0000\u0000\u0000\u0000",
