{
  "AcquisitionMatrixPE": 104,
  "AcquisitionNumber": 1,
  "AcquisitionTime": "16:33:37.722500",
  "BandwidthPerPixelPhaseEncode": 13.935,
  "BaseResolution": 104,
  "CoilString": "C:HEA;HEP",
  "ConversionSoftware": "dcm2niix",
  "ConversionSoftwareVersion": "v1.0.20210317",
  "DerivedVendorReportedEchoSpacing": 0.000690017,
  "DeviceSerialNumber": "35450",
  "DwellTime": 2.5e-06,
  "EchoTime": 0.0348,
  "EffectiveEchoSpacing": 0.000690017,
  "FlipAngle": 55,
  "ImageComments": "Unaliased MB8/PE3 (remote)",
  "ImageOrientationPatientDICOM": [1, 7.18335e-05, 0.000934519, 6.82108e-08, 0.997053, -0.0767133],
  "ImageType": [
    "ORIGINAL",
    "PRIMARY",
    "M",
    "MB",
    "ND",
    "MOSAIC"
],
  "ImagingFrequency": 123.234,
  "InPlanePhaseEncodingDirectionDICOM": "COL",
  "InstitutionAddress": "Univeristy Ave. 197,Newark,North East,US,07102-1814",
  "InstitutionName": "RUBIC",
  "InstitutionalDepartmentName": "Department",
  "MRAcquisitionType": "2D",
  "MagneticFieldStrength": 3,
  "Manufacturer": "Siemens",
  "ManufacturersModelName": "TrioTim",
  "Modality": "MR",
  "MultibandAccelerationFactor": 8,
  "PartialFourier": 0.875,
  "PatientPosition": "HFS",
  "PercentPhaseFOV": 100,
  "PercentSampling": 100,
  "PhaseEncodingDirection": "j-",
  "PhaseEncodingSteps": 91,
  "PhaseResolution": 1,
  "PixelBandwidth": 1923,
  "ProcedureStepDescription": "Cole^Michael",
  "ProtocolName": "cmrr_mbep2d_bold_2mm_MB8_Task_8x",
  "PulseSequenceDetails": "%CustomerSeq%\\cmrr_mbep2d_bold",
  "ReceiveCoilName": "32Ch_Head",
  "ReconMatrixPE": 104,
  "RepetitionTime": 0.785,
  "SAR": 0.118053,
  "ScanOptions": "PFP\\FS",
  "ScanningSequence": "EP",
  "SequenceName": "epfid2d1_104",
  "SequenceVariant": "SK\\SS",
  "SeriesDescription": "cmrr_mbep2d_bold_2mm_MB8_Task_8x",
  "SeriesNumber": 27,
  "ShimSetting": [2111, -388, -7180, 379, 51, -657, 192, 120],
  "SliceThickness": 2,
  "SliceTiming": [0, 0.4375, 0.0875, 0.5275, 0.175, 0.615, 0.2625, 0.7025, 0.35, 0, 0.4375, 0.0875, 0.5275, 0.175, 0.615, 0.2625, 0.7025, 0.35, 0, 0.4375, 0.0875, 0.5275, 0.175, 0.615, 0.2625, 0.7025, 0.35, 0, 0.4375, 0.0875, 0.5275, 0.175, 0.615, 0.2625, 0.7025, 0.35, 0, 0.4375, 0.0875, 0.5275, 0.175, 0.615, 0.2625, 0.7025, 0.35, 0, 0.4375, 0.0875, 0.5275, 0.175, 0.615, 0.2625, 0.7025, 0.35, 0, 0.4375, 0.0875, 0.5275, 0.175, 0.615, 0.2625, 0.7025, 0.35, 0, 0.4375, 0.0875, 0.5275, 0.175, 0.615, 0.2625, 0.7025, 0.35],
  "SoftwareVersions": "syngo MR B19",
  "SpacingBetweenSlices": 2,
  "StationName": "MRC35450",
  "TaskName": "cpro",
  "TotalReadoutTime": 0.0710717,
  "TxRefAmp": 318.909,
  "dcmmeta_affine": [
    [-1.9999991655349731, 1.3642160467952635e-07, 0.0018745504785329103, 103.94432830810547],
    [-0.00014366701361723244, 1.994106411933899, -0.15342660248279572, -76.12290954589844],
    [0.0018690370488911867, 0.15342667698860168, 1.9941054582595825, -89.35294342041016],
    [0.0, 0.0, 0.0, 1.0]
],
  "dcmmeta_reorient_transform": [
    [0.0, -1.0, 0.0, 103.0],
    [1.0, 0.0, 0.0, 0.0],
    [0.0, 0.0, 1.0, 0.0],
    [0.0, 0.0, 0.0, 1.0]
],
  "dcmmeta_shape": [104, 104, 72, 581],
  "dcmmeta_slice_dim": 2,
  "dcmmeta_version": 0.6,
  "global": {
    "const": {
      "AcquisitionMatrix": [104, 0, 0, 104],
      "AngioFlag": "N",
      "BitsAllocated": 16,
      "BitsStored": 12,
      "Columns": 936,
      "EchoNumbers": 1,
      "EchoTime": 34.8,
      "EchoTrainLength": 1,
      "FlipAngle": 55.0,
      "HighBit": 11,
      "ImageOrientationPatient": [0.99999956075742, 7.183350443e-05, 0.00093451855231, 6.8210802e-08, 0.99705319021007, -0.0767133358153],
      "ImagePositionPatient": [-935.94403566119, -958.87806440258, -10.502019168305],
      "ImageType": [
        "ORIGINAL",
        "PRIMARY",
        "M",
        "MB",
        "ND",
        "MOSAIC"
],
      "ImagedNucleus": "1H",
      "ImagingFrequency": 123.234465,
      "InPlanePhaseEncodingDirection": "COL",
      "MRAcquisitionType": "2D",
      "MagneticFieldStrength": 3.0,
      "Manufacturer": "SIEMENS",
      "ManufacturerModelName": "TrioTim",
      "Modality": "MR",
      "NumberOfAverages": 1.0,
      "NumberOfPhaseEncodingSteps": 91,
      "PercentPhaseFieldOfView": 100.0,
      "PercentSampling": 100.0,
      "PerformedProcedureStepStartTime": "144451.421000",
      "PhotometricInterpretation": "MONOCHROME2",
      "PixelBandwidth": 1923.0,
      "PixelRepresentation": 0,
      "PixelSpacing": [2.0, 2.0],
      "ProtocolName": "cmrr_mbep2d_bold_2mm_MB8_Task_8x",
      "RepetitionTime": 785.0,
      "Rows": 936,
      "SAR": 0.11805344708941,
      "SamplesPerPixel": 1,
      "ScanOptions": [
        "PFP",
        "FS"
],
      "ScanningSequence": "EP",
      "SequenceName": "epfid2d1_104",
      "SequenceVariant": [
        "SK",
        "SS"
],
      "SeriesDescription": "cmrr_mbep2d_bold_2mm_MB8_Task_8x",
      "SeriesNumber": 27,
      "SeriesTime": "163407.218000",
      "SliceLocation": -83.152532608467,
      "SliceThickness": 2.0,
      "SmallestImagePixelValue": 0,
      "SoftwareVersions": "syngo MR B19",
      "SpacingBetweenSlices": 1.999999928451,
      "SpecificCharacterSet": "ISO_IR 100",
      "StudyID": "1",
      "StudyTime": "144451.343000",
      "TransmitCoilName": "Body",
      "VariableFlipAngleFlag": "N",
      "WindowCenterWidthExplanation": "Algo1",
      "dBdt": 0.0},
    "slices": {}
  },
  "time": {
    "samples": {
      "AcquisitionNumber": [1, 2, 3, 4, 5, 6, 7, 8, 9, 10, 11, 12, 13, 14, 15, 16, 17, 18, 19, 20, 21, 22, 23, 24, 25, 26, 27, 28, 29, 30, 31, 32, 33, 34, 35, 36, 37, 38, 39, 40, 41, 42, 43, 44, 45, 46, 47, 48, 49, 50, 51, 52, 53, 54, 55, 56, 57, 58, 59, 60, 61, 62, 63, 64, 65, 66, 67, 68, 69, 70, 71, 72, 73, 74, 75, 76, 77, 78, 79, 80, 81, 82, 83, 84, 85, 86, 87, 88, 89, 90, 91, 92, 93, 94, 95, 96, 97, 98, 99, 100, 101, 102, 103, 104, 105, 106, 107, 108, 109, 110, 111, 112, 113, 114, 115, 116, 117, 118, 119, 120, 121, 122, 123, 124, 125, 126, 127, 128, 129, 130, 131, 132, 133, 134, 135, 136, 137, 138, 139, 140, 141, 142, 143, 144, 145, 146, 147, 148, 149, 150, 151, 152, 153, 154, 155, 156, 157, 158, 159, 160, 161, 162, 163, 164, 165, 166, 167, 168, 169, 170, 171, 172, 173, 174, 175, 176, 177, 178, 179, 180, 181, 182, 183, 184, 185, 186, 187, 188, 189, 190, 191, 192, 193, 194, 195, 196, 197, 198, 199, 200, 201, 202, 203, 204, 205, 206, 207, 208, 209, 210, 211, 212, 213, 214, 215, 216, 217, 218, 219, 220, 221, 222, 223, 224, 225, 226, 227, 228, 229, 230, 231, 232, 233, 234, 235, 236, 237, 238, 239, 240, 241, 242, 243, 244, 245, 246, 247, 248, 249, 250, 251, 252, 253, 254, 255, 256, 257, 258, 259, 260, 261, 262, 263, 264, 265, 266, 267, 268, 269, 270, 271, 272, 273, 274, 275, 276, 277, 278, 279, 280, 281, 282, 283, 284, 285, 286, 287, 288, 289, 290, 291, 292, 293, 294, 295, 296, 297, 298, 299, 300, 301, 302, 303, 304, 305, 306, 307, 308, 309, 310, 311, 312, 313, 314, 315, 316, 317, 318, 319, 320, 321, 322, 323, 324, 325, 326, 327, 328, 329, 330, 331, 332, 333, 334, 335, 336, 337, 338, 339, 340, 341, 342, 343, 344, 345, 346, 347, 348, 349, 350, 351, 352, 353, 354, 355, 356, 357, 358, 359, 360, 361, 362, 363, 364, 365, 366, 367, 368, 369, 370, 371, 372, 373, 374, 375, 376, 377, 378, 379, 380, 381, 382, 383, 384, 385, 386, 387, 388, 389, 390, 391, 392, 393, 394, 395, 396, 397, 398, 399, 400, 401, 402, 403, 404, 405, 406, 407, 408, 409, 410, 411, 412, 413, 414, 415, 416, 417, 418, 419, 420, 421, 422, 423, 424, 425, 426, 427, 428, 429, 430, 431, 432, 433, 434, 435, 436, 437, 438, 439, 440, 441, 442, 443, 444, 445, 446, 447, 448, 449, 450, 451, 452, 453, 454, 455, 456, 457, 458, 459, 460, 461, 462, 463, 464, 465, 466, 467, 468, 469, 470, 471, 472, 473, 474, 475, 476, 477, 478, 479, 480, 481, 482, 483, 484, 485, 486, 487, 488, 489, 490, 491, 492, 493, 494, 495, 496, 497, 498, 499, 500, 501, 502, 503, 504, 505, 506, 507, 508, 509, 510, 511, 512, 513, 514, 515, 516, 517, 518, 519, 520, 521, 522, 523, 524, 525, 526, 527, 528, 529, 530, 531, 532, 533, 534, 535, 536, 537, 538, 539, 540, 541, 542, 543, 544, 545, 546, 547, 548, 549, 550, 551, 552, 553, 554, 555, 556, 557, 558, 559, 560, 561, 562, 563, 564, 565, 566, 567, 568, 569, 570, 571, 572, 573, 574, 575, 576, 577, 578, 579, 580, 581],
      "AcquisitionTime": ["163337.722500", "163338.512500", "163339.300000", "163340.087500", "163340.875000", "163341.665000", "163342.452500", "163343.240000", "163344.030000", "163344.817500", "163345.605000", "163346.392500", "163347.182500", "163347.970000", "163348.757500", "163349.545000", "163350.335000", "163351.122500", "163351.910000", "163352.697500", "163353.487500", "163354.275000", "163355.062500", "163355.850000", "163356.640000", "163357.427500", "163358.215000", "163359.002500", "163359.792500", "163400.580000", "163401.367500", "163402.157500", "163402.945000", "163403.732500", "163404.520000", "163405.310000", "163406.097500", "163406.885000", "163407.672500", "163408.462500", "163409.250000", "163410.037500", "163410.825000", "163411.615000", "163412.402500", "163413.190000", "163413.977500", "163414.767500", "163415.555000", "163416.342500", "163417.130000", "163417.920000", "163418.707500", "163419.495000", "163420.285000", "163421.072500", "163421.860000", "163422.647500", "163423.437500", "163424.225000", "163425.012500", "163425.800000", "163426.590000", "163427.377500", "163428.165000", "163428.952500", "163429.742500", "163430.530000", "163431.317500", "163432.105000", "163432.895000", "163433.682500", "163434.470000", "163435.257500", "163436.047500", "163436.835000", "163437.622500", "163438.412500", "163439.200000", "163439.987500", "163440.775000", "163441.565000", "163442.352500", "163443.140000", "163443.927500", "163444.717500", "163445.505000", "163446.292500", "163447.080000", "163447.870000", "163448.657500", "163449.445000", "163450.232500", "163451.022500", "163451.810000", "163452.597500", "163453.385000", "163454.175000", "163454.962500", "163455.750000", "163456.540000", "163457.327500", "163458.115000", "163458.902500", "163459.692500", "163500.480000", "163501.267500", "163502.055000", "163502.845000", "163503.632500", "163504.420000", "163505.207500", "163505.997500", "163506.785000", "163507.572500", "163508.360000", "163509.150000", "163509.937500", "163510.725000", "163511.515000", "163512.302500", "163513.090000", "163513.877500", "163514.667500", "163515.455000", "163516.242500", "163517.030000", "163517.820000", "163518.607500", "163519.395000", "163520.182500", "163520.972500", "163521.760000", "163522.547500", "163523.335000", "163524.125000", "163524.912500", "163525.700000", "163526.487500", "163527.277500", "163528.065000", "163528.852500", "163529.642500", "163530.430000", "163531.217500", "163532.005000", "163532.795000", "163533.582500", "163534.370000", "163535.157500", "163535.947500", "163536.735000", "163537.522500", "163538.310000", "163539.100000", "163539.887500", "163540.675000", "163541.462500", "163542.252500", "163543.040000", "163543.827500", "163544.615000", "163545.405000", "163546.192500", "163546.980000", "163547.770000", "163548.557500", "163549.345000", "163550.132500", "163550.922500", "163551.710000", "163552.497500", "163553.285000", "163554.075000", "163554.862500", "163555.650000", "163556.437500", "163557.227500", "163558.015000", "163558.802500", "163559.590000", "163600.380000", "163601.167500", "163601.955000", "163602.742500", "163603.532500", "163604.320000", "163605.107500", "163605.897500", "163606.685000", "163607.472500", "163608.260000", "163609.050000", "163609.837500", "163610.625000", "163611.412500", "163612.202500", "163612.990000", "163613.777500", "163614.565000", "163615.355000", "163616.142500", "163616.930000", "163617.717500", "163618.507500", "163619.295000", "163620.082500", "163620.870000", "163621.660000", "163622.447500", "163623.235000", "163624.025000", "163624.812500", "163625.600000", "163626.387500", "163627.177500", "163627.965000", "163628.752500", "163629.540000", "163630.330000", "163631.117500", "163631.905000", "163632.692500", "163633.482500", "163634.270000", "163635.057500", "163635.845000", "163636.635000", "163637.422500", "163638.210000", "163638.997500", "163639.787500", "163640.575000", "163641.362500", "163642.152500", "163642.940000", "163643.727500", "163644.515000", "163645.305000", "163646.092500", "163646.880000", "163647.667500", "163648.457500", "163649.245000", "163650.032500", "163650.820000", "163651.610000", "163652.397500", "163653.185000", "163653.972500", "163654.762500", "163655.550000", "163656.337500", "163657.125000", "163657.915000", "163658.702500", "163659.490000", "163700.280000", "163701.067500", "163701.855000", "163702.642500", "163703.432500", "163704.220000", "163705.007500", "163705.795000", "163706.585000", "163707.372500", "163708.160000", "163708.947500", "163709.737500", "163710.525000", "163711.312500", "163712.100000", "163712.890000", "163713.677500", "163714.465000", "163715.252500", "163716.042500", "163716.830000", "163717.617500", "163718.407500", "163719.195000", "163719.982500", "163720.770000", "163721.560000", "163722.347500", "163723.135000", "163723.922500", "163724.712500", "163725.500000", "163726.287500", "163727.075000", "163727.865000", "163728.652500", "163729.440000", "163730.227500", "163731.017500", "163731.805000", "163732.592500", "163733.380000", "163734.170000", "163734.957500", "163735.745000", "163736.535000", "163737.322500", "163738.110000", "163738.897500", "163739.687500", "163740.475000", "163741.262500", "163742.050000", "163742.840000", "163743.627500", "163744.415000", "163745.202500", "163745.992500", "163746.780000", "163747.567500", "163748.355000", "163749.145000", "163749.932500", "163750.720000", "163751.507500", "163752.297500", "163753.085000", "163753.872500", "163754.662500", "163755.450000", "163756.237500", "163757.025000", "163757.815000", "163758.602500", "163759.390000", "163800.177500", "163800.967500", "163801.755000", "163802.542500", "163803.330000", "163804.120000", "163804.907500", "163805.695000", "163806.482500", "163807.272500", "163808.060000", "163808.847500", "163809.635000", "163810.425000", "163811.212500", "163812.000000", "163812.790000", "163813.577500", "163814.365000", "163815.152500", "163815.942500", "163816.730000", "163817.517500", "163818.305000", "163819.095000", "163819.882500", "163820.670000", "163821.457500", "163822.247500", "163823.035000", "163823.822500", "163824.610000", "163825.400000", "163826.187500", "163826.975000", "163827.765000", "163828.552500", "163829.340000", "163830.127500", "163830.917500", "163831.705000", "163832.492500", "163833.280000", "163834.070000", "163834.857500", "163835.645000", "163836.432500", "163837.222500", "163838.010000", "163838.797500", "163839.585000", "163840.375000", "163841.162500", "163841.950000", "163842.737500", "163843.527500", "163844.315000", "163845.102500", "163845.892500", "163846.680000", "163847.467500", "163848.255000", "163849.045000", "163849.832500", "163850.620000", "163851.407500", "163852.197500", "163852.985000", "163853.772500", "163854.560000", "163855.350000", "163856.137500", "163856.925000", "163857.712500", "163858.502500", "163859.290000", "163900.077500", "163900.865000", "163901.655000", "163902.442500", "163903.230000", "163904.020000", "163904.807500", "163905.595000", "163906.382500", "163907.172500", "163907.960000", "163908.747500", "163909.535000", "163910.325000", "163911.112500", "163911.900000", "163912.687500", "163913.477500", "163914.265000", "163915.052500", "163915.840000", "163916.630000", "163917.417500", "163918.205000", "163918.992500", "163919.782500", "163920.570000", "163921.357500", "163922.147500", "163922.935000", "163923.722500", "163924.510000", "163925.300000", "163926.087500", "163926.875000", "163927.662500", "163928.452500", "163929.240000", "163930.027500", "163930.815000", "163931.605000", "163932.392500", "163933.180000", "163933.967500", "163934.757500", "163935.545000", "163936.332500", "163937.120000", "163937.910000", "163938.697500", "163939.485000", "163940.275000", "163941.062500", "163941.850000", "163942.637500", "163943.427500", "163944.215000", "163945.002500", "163945.790000", "163946.580000", "163947.367500", "163948.155000", "163948.942500", "163949.732500", "163950.520000", "163951.307500", "163952.095000", "163952.885000", "163953.672500", "163954.460000", "163955.247500", "163956.037500", "163956.825000", "163957.612500", "163958.402500", "163959.190000", "163959.977500", "164000.765000", "164001.555000", "164002.342500", "164003.130000", "164003.917500", "164004.707500", "164005.495000", "164006.282500", "164007.070000", "164007.860000", "164008.647500", "164009.435000", "164010.222500", "164011.012500", "164011.800000", "164012.587500", "164013.375000", "164014.165000", "164014.952500", "164015.740000", "164016.530000", "164017.317500", "164018.105000", "164018.892500", "164019.682500", "164020.470000", "164021.257500", "164022.045000", "164022.835000", "164023.622500", "164024.410000", "164025.197500", "164025.987500", "164026.775000", "164027.562500", "164028.350000", "164029.140000", "164029.927500", "164030.715000", "164031.502500", "164032.292500", "164033.080000", "164033.867500", "164034.657500", "164035.445000", "164036.232500", "164037.020000", "164037.810000", "164038.597500", "164039.385000", "164040.172500", "164040.962500", "164041.750000", "164042.537500", "164043.325000", "164044.115000", "164044.902500", "164045.690000", "164046.477500", "164047.267500", "164048.055000", "164048.842500", "164049.630000", "164050.420000", "164051.207500", "164051.995000", "164052.785000", "164053.572500", "164054.360000", "164055.147500", "164055.937500", "164056.725000", "164057.512500", "164058.300000", "164059.090000", "164059.877500", "164100.665000", "164101.452500", "164102.242500", "164103.030000", "164103.817500", "164104.605000", "164105.395000", "164106.182500", "164106.970000", "164107.757500", "164108.547500", "164109.335000", "164110.122500", "164110.912500", "164111.700000", "164112.487500", "164113.275000", "164114.065000", "164114.852500"],
      "ContentTime": ["163407.218000", "163407.234000", "163407.234000", "163407.234000", "163407.234000", "163407.234000", "163407.234000", "163407.234000", "163407.250000", "163407.250000", "163407.250000", "163407.250000", "163407.250000", "163407.250000", "163407.250000", "163407.265000", "163407.265000", "163407.265000", "163407.265000", "163407.265000", "163407.265000", "163407.265000", "163407.281000", "163407.281000", "163407.281000", "163407.281000", "163407.281000", "163407.281000", "163407.281000", "163407.296000", "163407.296000", "163407.296000", "163407.296000", "163426.640000", "163426.640000", "163426.640000", "163426.640000", "163426.640000", "163426.656000", "163426.656000", "163426.656000", "163426.656000", "163426.656000", "163426.656000", "163426.656000", "163426.671000", "163426.671000", "163426.671000", "163426.671000", "163426.671000", "163426.671000", "163426.671000", "163426.687000", "163426.687000", "163426.687000", "163426.687000", "163426.687000", "163426.687000", "163426.687000", "163446.640000", "163446.656000", "163446.656000", "163446.656000", "163446.656000", "163446.656000", "163446.671000", "163446.671000", "163446.671000", "163446.671000", "163446.671000", "163446.671000", "163446.671000", "163446.687000", "163446.687000", "163446.687000", "163446.687000", "163446.687000", "163446.687000", "163446.687000", "163446.718000", "163446.718000", "163446.718000", "163446.718000", "163446.718000", "163506.640000", "163506.640000", "163506.640000", "163506.640000", "163506.640000", "163506.656000", "163506.656000", "163506.656000", "163506.656000", "163506.656000", "163506.656000", "163506.656000", "163506.671000", "163506.671000", "163506.671000", "163506.671000", "163506.671000", "163506.671000", "163506.671000", "163506.687000", "163506.687000", "163506.687000", "163506.687000", "163506.687000", "163506.687000", "163506.687000", "163526.640000", "163526.640000", "163526.640000", "163526.640000", "163526.640000", "163526.656000", "163526.656000", "163526.656000", "163526.656000", "163526.656000", "163526.656000", "163526.656000", "163526.671000", "163526.671000", "163526.671000", "163526.671000", "163526.671000", "163526.671000", "163526.671000", "163526.687000", "163526.687000", "163526.687000", "163526.687000", "163526.687000", "163526.687000", "163546.640000", "163546.640000", "163546.640000", "163546.640000", "163546.640000", "163546.656000", "163546.656000", "163546.656000", "163546.656000", "163546.656000", "163546.656000", "163546.656000", "163546.671000", "163546.671000", "163546.671000", "163546.671000", "163546.671000", "163546.671000", "163546.687000", "163546.687000", "163546.687000", "163546.687000", "163546.687000", "163546.687000", "163546.687000", "163546.703000", "163606.640000", "163606.656000", "163606.656000", "163606.656000", "163606.671000", "163606.671000", "163606.671000", "163606.671000", "163606.671000", "163606.671000", "163606.687000", "163606.687000", "163606.687000", "163606.687000", "163606.687000", "163606.687000", "163606.687000", "163606.703000", "163606.703000", "163606.703000", "163606.703000", "163606.703000", "163606.703000", "163606.703000", "163606.718000", "163626.640000", "163626.640000", "163626.640000", "163626.640000", "163626.640000", "163626.656000", "163626.656000", "163626.656000", "163626.656000", "163626.656000", "163626.656000", "163626.671000", "163626.671000", "163626.671000", "163626.671000", "163626.671000", "163626.671000", "163626.671000", "163626.687000", "163626.687000", "163626.687000", "163626.687000", "163626.687000", "163626.687000", "163626.687000", "163626.703000", "163646.640000", "163646.640000", "163646.640000", "163646.640000", "163646.640000", "163646.656000", "163646.656000", "163646.656000", "163646.656000", "163646.656000", "163646.656000", "163646.656000", "163646.671000", "163646.671000", "163646.671000", "163646.671000", "163646.671000", "163646.671000", "163646.671000", "163646.687000", "163646.687000", "163646.687000", "163646.687000", "163646.687000", "163646.687000", "163706.640000", "163706.640000", "163706.640000", "163706.640000", "163706.640000", "163706.656000", "163706.656000", "163706.656000", "163706.656000", "163706.656000", "163706.656000", "163706.656000", "163706.671000", "163706.671000", "163706.671000", "163706.671000", "163706.671000", "163706.671000", "163706.671000", "163706.687000", "163706.687000", "163706.687000", "163706.687000", "163706.687000", "163706.687000", "163706.687000", "163726.640000", "163726.640000", "163726.640000", "163726.640000", "163726.640000", "163726.656000", "163726.656000", "163726.656000", "163726.656000", "163726.656000", "163726.656000", "163726.656000", "163726.671000", "163726.671000", "163726.671000", "163726.671000", "163726.671000", "163726.671000", "163726.671000", "163726.687000", "163726.687000", "163726.687000", "163726.687000", "163726.687000", "163726.687000", "163746.640000", "163746.640000", "163746.640000", "163746.640000", "163746.640000", "163746.656000", "163746.656000", "163746.656000", "163746.656000", "163746.656000", "163746.656000", "163746.656000", "163746.671000", "163746.671000", "163746.671000", "163746.671000", "163746.671000", "163746.671000", "163746.671000", "163746.687000", "163746.687000", "163746.687000", "163746.687000", "163746.687000", "163746.687000", "163746.687000", "163806.640000", "163806.640000", "163806.640000", "163806.640000", "163806.640000", "163806.656000", "163806.656000", "163806.656000", "163806.656000", "163806.656000", "163806.656000", "163806.656000", "163806.671000", "163806.671000", "163806.671000", "163806.671000", "163806.671000", "163806.671000", "163806.671000", "163806.687000", "163806.687000", "163806.687000", "163806.687000", "163806.687000", "163806.687000", "163826.640000", "163826.640000", "163826.640000", "163826.640000", "163826.640000", "163826.656000", "163826.656000", "163826.656000", "163826.656000", "163826.656000", "163826.656000", "163826.656000", "163826.671000", "163826.671000", "163826.671000", "163826.671000", "163826.671000", "163826.671000", "163826.671000", "163826.687000", "163826.687000", "163826.687000", "163826.687000", "163826.687000", "163826.687000", "163826.687000", "163846.640000", "163846.640000", "163846.640000", "163846.640000", "163846.640000", "163846.656000", "163846.656000", "163846.656000", "163846.656000", "163846.656000", "163846.656000", "163846.671000", "163846.671000", "163846.671000", "163846.671000", "163846.671000", "163846.671000", "163846.671000", "163846.687000", "163846.687000", "163846.687000", "163846.687000", "163846.687000", "163846.687000", "163846.687000", "163906.640000", "163906.640000", "163906.640000", "163906.640000", "163906.640000", "163906.656000", "163906.656000", "163906.656000", "163906.656000", "163906.656000", "163906.656000", "163906.656000", "163906.671000", "163906.671000", "163906.671000", "163906.671000", "163906.671000", "163906.671000", "163906.671000", "163906.687000", "163906.687000", "163906.687000", "163906.687000", "163906.687000", "163906.687000", "163906.687000", "163926.640000", "163926.640000", "163926.640000", "163926.640000", "163926.640000", "163926.656000", "163926.656000", "163926.656000", "163926.656000", "163926.656000", "163926.656000", "163926.656000", "163926.671000", "163926.671000", "163926.671000", "163926.671000", "163926.671000", "163926.671000", "163926.671000", "163926.687000", "163926.687000", "163926.687000", "163926.687000", "163926.687000", "163926.687000", "163946.640000", "163946.640000", "163946.640000", "163946.640000", "163946.640000", "163946.656000", "163946.656000", "163946.656000", "163946.656000", "163946.656000", "163946.656000", "163946.671000", "163946.671000", "163946.671000", "163946.671000", "163946.671000", "163946.671000", "163946.671000", "163946.687000", "163946.687000", "163946.687000", "163946.687000", "163946.687000", "163946.687000", "163946.687000", "163946.703000", "164006.640000", "164006.640000", "164006.640000", "164006.640000", "164006.640000", "164006.656000", "164006.656000", "164006.656000", "164006.656000", "164006.656000", "164006.656000", "164006.656000", "164006.671000", "164006.671000", "164006.671000", "164006.671000", "164006.671000", "164006.671000", "164006.687000", "164006.687000", "164006.687000", "164006.687000", "164006.687000", "164006.687000", "164006.687000", "164026.640000", "164026.640000", "164026.640000", "164026.640000", "164026.640000", "164026.656000", "164026.656000", "164026.656000", "164026.656000", "164026.656000", "164026.656000", "164026.656000", "164026.671000", "164026.671000", "164026.671000", "164026.671000", "164026.671000", "164026.671000", "164026.671000", "164026.687000", "164026.687000", "164026.687000", "164026.687000", "164026.687000", "164026.687000", "164026.687000", "164046.640000", "164046.640000", "164046.640000", "164046.640000", "164046.640000", "164046.656000", "164046.656000", "164046.656000", "164046.656000", "164046.656000", "164046.656000", "164046.671000", "164046.671000", "164046.671000", "164046.671000", "164046.671000", "164046.671000", "164046.671000", "164046.687000", "164046.687000", "164046.687000", "164046.687000", "164046.687000", "164046.687000", "164046.687000", "164106.640000", "164106.640000", "164106.640000", "164106.640000", "164106.640000", "164106.656000", "164106.656000", "164106.656000", "164106.656000", "164106.656000", "164106.656000", "164106.656000", "164106.671000", "164106.671000", "164106.671000", "164106.671000", "164106.671000", "164106.671000", "164106.671000", "164106.687000", "164106.687000", "164106.687000", "164106.687000", "164106.687000", "164106.687000", "164106.703000", "164116.093000", "164116.093000", "164116.109000", "164116.109000", "164116.109000", "164116.109000", "164116.109000", "164116.109000", "164116.109000", "164116.125000", "164116.125000", "164116.125000"],
      "DataSetTrailingPadding": [
        "\u0000\u0000\u0000\u0000\u0000\u0000\u0000\u0000\u0000\u0000\u0000\u0000\u0000\u0000\u0000\u0000\u0000\u0000\u0000\u0000\u0000\u0000\u0000\u0000\u0000\u0000\u0000\u0000\u0000\u0000\u0000\u0000\u0000\u0000\u0000\u0000\u0000\u0000\u0000\u0000\u0000\u0000\u0000\u0000\u0000\u0000\u0000\u0000\u0000\u0000\u0000\u0000\u0000\u0000\u0000\u0000\u0000\u0000\u0000\u0000\u0000\u0000\u0000\u0000\u0000\u0000\u0000\u0000\u0000\u0000\u0000\u0000\u0000\u0000\u0000\u0000\u0000\u0000\u0000\u0000\u0000\u0000\u0000\u0000\u0000\u0000\u0000\u0000\u0000\u0000\u0000\u0000\u0000\u0000\u0000\u0000\u0000\u0000\u0000\u0000\u0000\u0000\u0000\u0000\u0000\u0000\u0000\u0000\u0000\u0000\u0000\u0000\u0000\u0000\u0000\u0000\u0000\u0000\u0000\u0000\u0000\u0000\u0000\u0000\u0000\u0000\u0000\u0000\u0000\u0000\u0000\u0000\u0000\u0000\u0000\u0000\u0000\u0000\u0000\u0000\u0000\u0000\u0000\u0000\u0000\u0000\u0000\u0000\u0000\u0000\u0000\u0000\u0000\u0000\u0000\u0000\u0000\u0000\u0000\u0000\u0000\u0000\u0000\u0000\u0000\u0000\u0000\u0000\u0000\u0000\u0000\u0000\u0000\u0000\u0000\u0000\u0000\u0000\u0000\u0000\u0000\u0000\u0000\u0000\u0000\u0000\u0000\u0000\u0000\u0000\u0000\u0000\u0000\u0000\u0000\u0000\u0000\u0000\u0000\u0000\u0000\u0000\u0000\u0000\u0000\u0000\u0000\u0000\u0000\u0000\u0000\u0000\u0000\u0000\u0000\u0000\u0000\u0000\u0000\u0000\u0000\u0000\u0000\u0000\u0000\u0000\u0000\u0000\u0000\u0000\u0000\u0000\u0000\u0000\u0000\u0000\u0000\u0000\u0000\u0000\u0000\u0000\u0000\u0000\u0000\u0000\u0000\u0000",
