{
  "AcquisitionMatrixPE": 104,
  "AcquisitionNumber": 1,
  "AcquisitionTime": "16:34:47.692500",
  "BandwidthPerPixelPhaseEncode": 13.935,
  "BaseResolution": 104,
  "CoilString": "C:HEA;HEP",
  "ConversionSoftware": "dcm2niix",
  "ConversionSoftwareVersion": "v1.0.20210317",
  "DerivedVendorReportedEchoSpacing": 0.000690017,
  "DeviceSerialNumber": "35450",
  "DwellTime": 2.5e-06,
  "EchoTime": 0.0348,
  "EffectiveEchoSpacing": 0.000690017,
  "FlipAngle": 55,
  "ImageComments": "Unaliased MB8/PE3 (remote)",
  "ImageOrientationPatientDICOM": [0.999875, 0.00238777, 0.015606, -4.03403e-08, 0.988497, -0.151241],
  "ImageType": [
    "ORIGINAL",
    "PRIMARY",
    "M",
    "MB",
    "ND",
    "MOSAIC"
],
  "ImagingFrequency": 123.235,
  "InPlanePhaseEncodingDirectionDICOM": "COL",
  "InstitutionAddress": "Univeristy Ave. 197,Newark,North East,US,07102-1814",
  "InstitutionName": "RUBIC",
  "InstitutionalDepartmentName": "Department",
  "MRAcquisitionType": "2D",
  "MagneticFieldStrength": 3,
  "Manufacturer": "Siemens",
  "ManufacturersModelName": "TrioTim",
  "Modality": "MR",
  "MultibandAccelerationFactor": 8,
  "PartialFourier": 0.875,
  "PatientPosition": "HFS",
  "PercentPhaseFOV": 100,
  "PercentSampling": 100,
  "PhaseEncodingDirection": "j-",
  "PhaseEncodingSteps": 91,
  "PhaseResolution": 1,
  "PixelBandwidth": 1923,
  "ProcedureStepDescription": "Cole^Michael",
  "ProtocolName": "cmrr_mbep2d_bold_2mm_MB8_Task_8x",
  "PulseSequenceDetails": "%CustomerSeq%\\cmrr_mbep2d_bold",
  "ReceiveCoilName": "32Ch_Head",
  "ReconMatrixPE": 104,
  "RepetitionTime": 0.785,
  "SAR": 0.122333,
  "ScanOptions": "PFP\\FS",
  "ScanningSequence": "EP",
  "SequenceName": "epfid2d1_104",
  "SequenceVariant": "SK\\SS",
  "SeriesDescription": "cmrr_mbep2d_bold_2mm_MB8_Task_8x",
  "SeriesNumber": 27,
  "ShimSetting": [2121, -415, -7230, 493, 41, -82, 288, -71],
  "SliceThickness": 2,
  "SliceTiming": [0, 0.4375, 0.0875, 0.525, 0.175, 0.6125, 0.2625, 0.7, 0.35, 0, 0.4375, 0.0875, 0.525, 0.175, 0.6125, 0.2625, 0.7, 0.35, 0, 0.4375, 0.0875, 0.525, 0.175, 0.6125, 0.2625, 0.7, 0.35, 0, 0.4375, 0.0875, 0.525, 0.175, 0.6125, 0.2625, 0.7, 0.35, 0, 0.4375, 0.0875, 0.525, 0.175, 0.6125, 0.2625, 0.7, 0.35, 0, 0.4375, 0.0875, 0.525, 0.175, 0.6125, 0.2625, 0.7, 0.35, 0, 0.4375, 0.0875, 0.525, 0.175, 0.6125, 0.2625, 0.7, 0.35, 0, 0.4375, 0.0875, 0.525, 0.175, 0.6125, 0.2625, 0.7, 0.35],
  "SoftwareVersions": "syngo MR B19",
  "SpacingBetweenSlices": 2,
  "StationName": "MRC35450",
  "TaskName": "cpro",
  "TotalReadoutTime": 0.0710717,
  "TxRefAmp": 327.654,
  "dcmmeta_affine": [
    [-1.9997507333755493, -8.068052181897656e-08, 0.03157525882124901, 106.49131774902344],
    [-0.004775544628500938, 1.9769939184188843, -0.30244380235671997, -85.14537811279297],
    [0.031212031841278076, 0.302481472492218, 1.9767476320266724, -106.7633056640625],
    [0.0, 0.0, 0.0, 1.0]
],
  "dcmmeta_reorient_transform": [
    [0.0, -1.0, 0.0, 103.0],
    [1.0, 0.0, 0.0, 0.0],
    [0.0, 0.0, 1.0, 0.0],
    [0.0, 0.0, 0.0, 1.0]
],
  "dcmmeta_shape": [104, 104, 72, 581],
  "dcmmeta_slice_dim": 2,
  "dcmmeta_version": 0.6,
  "global": {
    "const": {
      "AcquisitionMatrix": [104, 0, 0, 104],
      "AngioFlag": "N",
      "BitsAllocated": 16,
      "BitsStored": 12,
      "Columns": 936,
      "EchoNumbers": 1,
      "EchoTime": 34.8,
      "EchoTrainLength": 1,
      "FlipAngle": 55.0,
      "HighBit": 11,
      "ImageOrientationPatient": [0.99987536763266, 0.00238777242792, 0.01560601628488, -4.034026e-08, 0.98849695932957, -0.1512407398692],
      "ImagePositionPatient": [-938.38758500551, -942.90108946242, 37.240379045961],
      "ImageType": [
        "ORIGINAL",
        "PRIMARY",
        "M",
        "MB",
        "ND",
        "MOSAIC"
],
      "ImagedNucleus": "1H",
      "ImagingFrequency": 123.234936,
      "InPlanePhaseEncodingDirection": "COL",
      "MRAcquisitionType": "2D",
      "MagneticFieldStrength": 3.0,
      "Manufacturer": "SIEMENS",
      "ManufacturerModelName": "TrioTim",
      "Modality": "MR",
      "NumberOfAverages": 1.0,
      "NumberOfPhaseEncodingSteps": 91,
      "PercentPhaseFieldOfView": 100.0,
      "PercentSampling": 100.0,
      "PerformedProcedureStepStartTime": "142703.562000",
      "PhotometricInterpretation": "MONOCHROME2",
      "PixelBandwidth": 1923.0,
      "PixelRepresentation": 0,
      "PixelSpacing": [2.0, 2.0],
      "ProtocolName": "cmrr_mbep2d_bold_2mm_MB8_Task_8x",
      "RepetitionTime": 785.0,
      "Rows": 936,
      "SAR": 0.12233345433063,
      "SamplesPerPixel": 1,
      "ScanOptions": [
        "PFP",
        "FS"
],
      "ScanningSequence": "EP",
      "SequenceName": "epfid2d1_104",
      "SequenceVariant": [
        "SK",
        "SS"
],
      "SeriesDescription": "cmrr_mbep2d_bold_2mm_MB8_Task_8x",
      "SeriesNumber": 27,
      "SeriesTime": "163516.234000",
      "SliceLocation": -90.964956887892,
      "SliceThickness": 2.0,
      "SmallestImagePixelValue": 0,
      "SoftwareVersions": "syngo MR B19",
      "SpacingBetweenSlices": 2.0000000690522,
      "SpecificCharacterSet": "ISO_IR 100",
      "StudyID": "1",
      "StudyTime": "142703.531000",
      "TransmitCoilName": "Body",
      "VariableFlipAngleFlag": "N",
      "WindowCenterWidthExplanation": "Algo1",
      "dBdt": 0.0},
    "slices": {}
  },
  "time": {
    "samples": {
      "AcquisitionNumber": [1, 2, 3, 4, 5, 6, 7, 8, 9, 10, 11, 12, 13, 14, 15, 16, 17, 18, 19, 20, 21, 22, 23, 24, 25, 26, 27, 28, 29, 30, 31, 32, 33, 34, 35, 36, 37, 38, 39, 40, 41, 42, 43, 44, 45, 46, 47, 48, 49, 50, 51, 52, 53, 54, 55, 56, 57, 58, 59, 60, 61, 62, 63, 64, 65, 66, 67, 68, 69, 70, 71, 72, 73, 74, 75, 76, 77, 78, 79, 80, 81, 82, 83, 84, 85, 86, 87, 88, 89, 90, 91, 92, 93, 94, 95, 96, 97, 98, 99, 100, 101, 102, 103, 104, 105, 106, 107, 108, 109, 110, 111, 112, 113, 114, 115, 116, 117, 118, 119, 120, 121, 122, 123, 124, 125, 126, 127, 128, 129, 130, 131, 132, 133, 134, 135, 136, 137, 138, 139, 140, 141, 142, 143, 144, 145, 146, 147, 148, 149, 150, 151, 152, 153, 154, 155, 156, 157, 158, 159, 160, 161, 162, 163, 164, 165, 166, 167, 168, 169, 170, 171, 172, 173, 174, 175, 176, 177, 178, 179, 180, 181, 182, 183, 184, 185, 186, 187, 188, 189, 190, 191, 192, 193, 194, 195, 196, 197, 198, 199, 200, 201, 202, 203, 204, 205, 206, 207, 208, 209, 210, 211, 212, 213, 214, 215, 216, 217, 218, 219, 220, 221, 222, 223, 224, 225, 226, 227, 228, 229, 230, 231, 232, 233, 234, 235, 236, 237, 238, 239, 240, 241, 242, 243, 244, 245, 246, 247, 248, 249, 250, 251, 252, 253, 254, 255, 256, 257, 258, 259, 260, 261, 262, 263, 264, 265, 266, 267, 268, 269, 270, 271, 272, 273, 274, 275, 276, 277, 278, 279, 280, 281, 282, 283, 284, 285, 286, 287, 288, 289, 290, 291, 292, 293, 294, 295, 296, 297, 298, 299, 300, 301, 302, 303, 304, 305, 306, 307, 308, 309, 310, 311, 312, 313, 314, 315, 316, 317, 318, 319, 320, 321, 322, 323, 324, 325, 326, 327, 328, 329, 330, 331, 332, 333, 334, 335, 336, 337, 338, 339, 340, 341, 342, 343, 344, 345, 346, 347, 348, 349, 350, 351, 352, 353, 354, 355, 356, 357, 358, 359, 360, 361, 362, 363, 364, 365, 366, 367, 368, 369, 370, 371, 372, 373, 374, 375, 376, 377, 378, 379, 380, 381, 382, 383, 384, 385, 386, 387, 388, 389, 390, 391, 392, 393, 394, 395, 396, 397, 398, 399, 400, 401, 402, 403, 404, 405, 406, 407, 408, 409, 410, 411, 412, 413, 414, 415, 416, 417, 418, 419, 420, 421, 422, 423, 424, 425, 426, 427, 428, 429, 430, 431, 432, 433, 434, 435, 436, 437, 438, 439, 440, 441, 442, 443, 444, 445, 446, 447, 448, 449, 450, 451, 452, 453, 454, 455, 456, 457, 458, 459, 460, 461, 462, 463, 464, 465, 466, 467, 468, 469, 470, 471, 472, 473, 474, 475, 476, 477, 478, 479, 480, 481, 482, 483, 484, 485, 486, 487, 488, 489, 490, 491, 492, 493, 494, 495, 496, 497, 498, 499, 500, 501, 502, 503, 504, 505, 506, 507, 508, 509, 510, 511, 512, 513, 514, 515, 516, 517, 518, 519, 520, 521, 522, 523, 524, 525, 526, 527, 528, 529, 530, 531, 532, 533, 534, 535, 536, 537, 538, 539, 540, 541, 542, 543, 544, 545, 546, 547, 548, 549, 550, 551, 552, 553, 554, 555, 556, 557, 558, 559, 560, 561, 562, 563, 564, 565, 566, 567, 568, 569, 570, 571, 572, 573, 574, 575, 576, 577, 578, 579, 580, 581],
      "AcquisitionTime": ["163447.692500", "163448.482500", "163449.270000", "163450.057500", "163450.845000", "163451.635000", "163452.422500", "163453.210000", "163453.997500", "163454.787500", "163455.575000", "163456.362500", "163457.150000", "163457.940000", "163458.727500", "163459.515000", "163500.302500", "163501.092500", "163501.880000", "163502.667500", "163503.455000", "163504.245000", "163505.032500", "163505.820000", "163506.610000", "163507.397500", "163508.185000", "163508.972500", "163509.762500", "163510.550000", "163511.337500", "163512.125000", "163512.915000", "163513.702500", "163514.490000", "163515.277500", "163516.067500", "163516.855000", "163517.642500", "163518.430000", "163519.220000", "163520.007500", "163520.795000", "163521.582500", "163522.372500", "163523.160000", "163523.947500", "163524.737500", "163525.525000", "163526.312500", "163527.100000", "163527.890000", "163528.677500", "163529.465000", "163530.252500", "163531.042500", "163531.830000", "163532.617500", "163533.405000", "163534.195000", "163534.982500", "163535.770000", "163536.557500", "163537.347500", "163538.135000", "163538.922500", "163539.710000", "163540.500000", "163541.287500", "163542.075000", "163542.865000", "163543.652500", "163544.440000", "163545.227500", "163546.017500", "163546.805000", "163547.592500", "163548.380000", "163549.170000", "163549.957500", "163550.745000", "163551.532500", "163552.322500", "163553.110000", "163553.897500", "163554.685000", "163555.475000", "163556.262500", "163557.050000", "163557.840000", "163558.627500", "163559.415000", "163600.202500", "163600.992500", "163601.780000", "163602.567500", "163603.355000", "163604.145000", "163604.932500", "163605.720000", "163606.507500", "163607.297500", "163608.085000", "163608.872500", "163609.660000", "163610.450000", "163611.237500", "163612.025000", "163612.812500", "163613.602500", "163614.390000", "163615.177500", "163615.967500", "163616.755000", "163617.542500", "163618.330000", "163619.120000", "163619.907500", "163620.695000", "163621.482500", "163622.272500", "163623.060000", "163623.847500", "163624.635000", "163625.425000", "163626.212500", "163627.000000", "163627.787500", "163628.577500", "163629.365000", "163630.152500", "163630.940000", "163631.730000", "163632.517500", "163633.305000", "163634.095000", "163634.882500", "163635.670000", "163636.457500", "163637.247500", "163638.035000", "163638.822500", "163639.610000", "163640.400000", "163641.187500", "163641.975000", "163642.762500", "163643.552500", "163644.340000", "163645.127500", "163645.915000", "163646.705000", "163647.492500", "163648.280000", "163649.067500", "163649.857500", "163650.645000", "163651.432500", "163652.222500", "163653.010000", "163653.797500", "163654.585000", "163655.375000", "163656.162500", "163656.950000", "163657.737500", "163658.527500", "163659.315000", "163700.102500", "163700.890000", "163701.680000", "163702.467500", "163703.255000", "163704.042500", "163704.832500", "163705.620000", "163706.407500", "163707.195000", "163707.985000", "163708.772500", "163709.560000", "163710.350000", "163711.137500", "163711.925000", "163712.712500", "163713.502500", "163714.290000", "163715.077500", "163715.865000", "163716.655000", "163717.442500", "163718.230000", "163719.017500", "163719.807500", "163720.595000", "163721.382500", "163722.170000", "163722.960000", "163723.747500", "163724.535000", "163725.322500", "163726.112500", "163726.900000", "163727.687500", "163728.477500", "163729.265000", "163730.052500", "163730.840000", "163731.630000", "163732.417500", "163733.205000", "163733.992500", "163734.782500", "163735.570000", "163736.357500", "163737.145000", "163737.935000", "163738.722500", "163739.510000", "163740.297500", "163741.087500", "163741.875000", "163742.662500", "163743.450000", "163744.240000", "163745.027500", "163745.815000", "163746.605000", "163747.392500", "163748.180000", "163748.967500", "163749.757500", "163750.545000", "163751.332500", "163752.120000", "163752.910000", "163753.697500", "163754.485000", "163755.272500", "163756.062500", "163756.850000", "163757.637500", "163758.425000", "163759.215000", "163800.002500", "163800.790000", "163801.577500", "163802.367500", "163803.155000", "163803.942500", "163804.732500", "163805.520000", "163806.307500", "163807.095000", "163807.885000", "163808.672500", "163809.460000", "163810.247500", "163811.037500", "163811.825000", "163812.612500", "163813.400000", "163814.190000", "163814.977500", "163815.765000", "163816.552500", "163817.342500", "163818.130000", "163818.917500", "163819.705000", "163820.495000", "163821.282500", "163822.070000", "163822.860000", "163823.647500", "163824.435000", "163825.222500", "163826.012500", "163826.800000", "163827.587500", "163828.375000", "163829.165000", "163829.952500", "163830.740000", "163831.527500", "163832.317500", "163833.105000", "163833.892500", "163834.680000", "163835.470000", "163836.257500", "163837.045000", "163837.832500", "163838.622500", "163839.410000", "163840.197500", "163840.987500", "163841.775000", "163842.562500", "163843.350000", "163844.140000", "163844.927500", "163845.715000", "163846.502500", "163847.292500", "163848.080000", "163848.867500", "163849.655000", "163850.445000", "163851.232500", "163852.020000", "163852.807500", "163853.597500", "163854.385000", "163855.172500", "163855.960000", "163856.750000", "163857.537500", "163858.325000", "163859.115000", "163859.902500", "163900.690000", "163901.477500", "163902.267500", "163903.055000", "163903.842500", "163904.630000", "163905.420000", "163906.207500", "163906.995000", "163907.782500", "163908.572500", "163909.360000", "163910.147500", "163910.935000", "163911.725000", "163912.512500", "163913.300000", "163914.090000", "163914.877500", "163915.665000", "163916.452500", "163917.242500", "163918.030000", "163918.817500", "163919.605000", "163920.395000", "163921.182500", "163921.970000", "163922.757500", "163923.547500", "163924.335000", "163925.122500", "163925.910000", "163926.700000", "163927.487500", "163928.275000", "163929.062500", "163929.852500", "163930.640000", "163931.427500", "163932.217500", "163933.005000", "163933.792500", "163934.580000", "163935.370000", "163936.157500", "163936.945000", "163937.732500", "163938.522500", "163939.310000", "163940.097500", "163940.885000", "163941.675000", "163942.462500", "163943.250000", "163944.037500", "163944.827500", "163945.615000", "163946.402500", "163947.190000", "163947.980000", "163948.767500", "163949.555000", "163950.345000", "163951.132500", "163951.920000", "163952.707500", "163953.497500", "163954.285000", "163955.072500", "163955.860000", "163956.650000", "163957.437500", "163958.225000", "163959.012500", "163959.802500", "164000.590000", "164001.377500", "164002.165000", "164002.955000", "164003.742500", "164004.530000", "164005.317500", "164006.107500", "164006.895000", "164007.682500", "164008.472500", "164009.260000", "164010.047500", "164010.835000", "164011.625000", "164012.412500", "164013.200000", "164013.987500", "164014.777500", "164015.565000", "164016.352500", "164017.140000", "164017.930000", "164018.717500", "164019.505000", "164020.292500", "164021.082500", "164021.870000", "164022.657500", "164023.445000", "164024.235000", "164025.022500", "164025.810000", "164026.600000", "164027.387500", "164028.175000", "164028.962500", "164029.752500", "164030.540000", "164031.327500", "164032.115000", "164032.905000", "164033.692500", "164034.480000", "164035.267500", "164036.057500", "164036.845000", "164037.632500", "164038.420000", "164039.210000", "164039.997500", "164040.785000", "164041.572500", "164042.362500", "164043.150000", "164043.937500", "164044.727500", "164045.515000", "164046.302500", "164047.090000", "164047.880000", "164048.667500", "164049.455000", "164050.242500", "164051.032500", "164051.820000", "164052.607500", "164053.395000", "164054.185000", "164054.972500", "164055.760000", "164056.547500", "164057.337500", "164058.125000", "164058.912500", "164059.700000", "164100.490000", "164101.277500", "164102.065000", "164102.855000", "164103.642500", "164104.430000", "164105.217500", "164106.007500", "164106.795000", "164107.582500", "164108.370000", "164109.160000", "164109.947500", "164110.735000", "164111.522500", "164112.312500", "164113.100000", "164113.887500", "164114.675000", "164115.465000", "164116.252500", "164117.040000", "164117.827500", "164118.617500", "164119.405000", "164120.192500", "164120.982500", "164121.770000", "164122.557500", "164123.345000", "164124.135000", "164124.922500", "164125.710000", "164126.497500", "164127.287500", "164128.075000", "164128.862500", "164129.650000", "164130.440000", "164131.227500", "164132.015000", "164132.802500", "164133.592500", "164134.380000", "164135.167500", "164135.955000", "164136.745000", "164137.532500", "164138.320000", "164139.110000", "164139.897500", "164140.685000", "164141.472500", "164142.262500", "164143.050000", "164143.837500", "164144.625000", "164145.415000", "164146.202500", "164146.990000", "164147.777500", "164148.567500", "164149.355000", "164150.142500", "164150.930000", "164151.720000", "164152.507500", "164153.295000", "164154.082500", "164154.872500", "164155.660000", "164156.447500", "164157.237500", "164158.025000", "164158.812500", "164159.600000", "164200.390000", "164201.177500", "164201.965000", "164202.752500", "164203.542500", "164204.330000", "164205.117500", "164205.905000", "164206.695000", "164207.482500", "164208.270000", "164209.057500", "164209.847500", "164210.635000", "164211.422500", "164212.210000", "164213.000000", "164213.787500", "164214.575000", "164215.365000", "164216.152500", "164216.940000", "164217.727500", "164218.517500", "164219.305000", "164220.092500", "164220.880000", "164221.670000", "164222.457500", "164223.245000", "164224.032500", "164224.822500"],
      "ContentTime": ["163516.234000", "163516.234000", "163516.234000", "163516.250000", "163516.250000", "163516.250000", "163516.250000", "163516.250000", "163516.265000", "163516.265000", "163516.265000", "163516.265000", "163516.265000", "163516.265000", "163516.265000", "163516.281000", "163516.281000", "163516.281000", "163516.281000", "163516.281000", "163516.281000", "163516.281000", "163516.296000", "163516.296000", "163516.296000", "163516.296000", "163516.296000", "163516.296000", "163516.296000", "163516.312000", "163516.312000", "163516.312000", "163536.203000", "163536.203000", "163536.203000", "163536.203000", "163536.203000", "163536.203000", "163536.203000", "163536.218000", "163536.218000", "163536.218000", "163536.218000", "163536.218000", "163536.218000", "163536.218000", "163536.234000", "163536.234000", "163536.234000", "163536.234000", "163536.234000", "163536.234000", "163536.234000", "163536.250000", "163536.250000", "163536.250000", "163536.250000", "163536.250000", "163556.203000", "163556.203000", "163556.203000", "163556.203000", "163556.203000", "163556.203000", "163556.203000", "163556.218000", "163556.218000", "163556.218000", "163556.218000", "163556.218000", "163556.218000", "163556.218000", "163556.234000", "163556.234000", "163556.234000", "163556.234000", "163556.234000", "163556.250000", "163556.250000", "163556.250000", "163556.250000", "163556.250000", "163556.265000", "163616.203000", "163616.203000", "163616.203000", "163616.203000", "163616.203000", "163616.203000", "163616.203000", "163616.218000", "163616.218000", "163616.218000", "163616.218000", "163616.218000", "163616.218000", "163616.218000", "163616.234000", "163616.234000", "163616.234000", "163616.234000", "163616.234000", "163616.234000", "163616.234000", "163616.250000", "163616.250000", "163616.250000", "163616.250000", "163616.265000", "163636.203000", "163636.203000", "163636.203000", "163636.203000", "163636.203000", "163636.203000", "163636.203000", "163636.218000", "163636.218000", "163636.218000", "163636.218000", "163636.218000", "163636.218000", "163636.218000", "163636.234000", "163636.234000", "163636.234000", "163636.234000", "163636.234000", "163636.234000", "163636.234000", "163636.250000", "163636.250000", "163636.250000", "163636.250000", "163656.203000", "163656.203000", "163656.203000", "163656.203000", "163656.203000", "163656.203000", "163656.203000", "163656.218000", "163656.218000", "163656.218000", "163656.218000", "163656.218000", "163656.218000", "163656.218000", "163656.234000", "163656.234000", "163656.234000", "163656.234000", "163656.234000", "163656.234000", "163656.234000", "163656.250000", "163656.250000", "163656.250000", "163656.250000", "163656.250000", "163716.203000", "163716.203000", "163716.203000", "163716.203000", "163716.203000", "163716.218000", "163716.218000", "163716.218000", "163716.218000", "163716.218000", "163716.218000", "163716.218000", "163716.234000", "163716.234000", "163716.234000", "163716.234000", "163716.234000", "163716.234000", "163716.250000", "163716.250000", "163716.250000", "163716.250000", "163716.250000", "163716.250000", "163716.250000", "163736.203000", "163736.203000", "163736.203000", "163736.203000", "163736.203000", "163736.203000", "163736.203000", "163736.218000", "163736.218000", "163736.218000", "163736.218000", "163736.218000", "163736.218000", "163736.218000", "163736.234000", "163736.234000", "163736.234000", "163736.234000", "163736.234000", "163736.234000", "163736.250000", "163736.250000", "163736.250000", "163736.250000", "163736.250000", "163736.250000", "163756.203000", "163756.203000", "163756.203000", "163756.203000", "163756.203000", "163756.203000", "163756.203000", "163756.218000", "163756.218000", "163756.218000", "163756.218000", "163756.218000", "163756.234000", "163756.234000", "163756.234000", "163756.234000", "163756.234000", "163756.234000", "163756.234000", "163756.250000", "163756.250000", "163756.250000", "163756.250000", "163756.250000", "163756.250000", "163816.203000", "163816.203000", "163816.203000", "163816.203000", "163816.203000", "163816.203000", "163816.203000", "163816.218000", "163816.218000", "163816.218000", "163816.218000", "163816.218000", "163816.218000", "163816.218000", "163816.234000", "163816.234000", "163816.234000", "163816.234000", "163816.234000", "163816.234000", "163816.234000", "163816.250000", "163816.250000", "163816.250000", "163816.250000", "163816.250000", "163836.203000", "163836.203000", "163836.203000", "163836.203000", "163836.203000", "163836.203000", "163836.203000", "163836.218000", "163836.218000", "163836.218000", "163836.218000", "163836.218000", "163836.218000", "163836.218000", "163836.234000", "163836.234000", "163836.234000", "163836.234000", "163836.234000", "163836.234000", "163836.250000", "163836.250000", "163836.250000", "163836.250000", "163836.250000", "163856.203000", "163856.203000", "163856.203000", "163856.203000", "163856.203000", "163856.203000", "163856.203000", "163856.218000", "163856.218000", "163856.218000", "163856.218000", "163856.218000", "163856.218000", "163856.218000", "163856.234000", "163856.234000", "163856.234000", "163856.234000", "163856.234000", "163856.234000", "163856.234000", "163856.250000", "163856.250000", "163856.250000", "163856.250000", "163856.250000", "163916.203000", "163916.203000", "163916.203000", "163916.203000", "163916.203000", "163916.203000", "163916.203000", "163916.218000", "163916.218000", "163916.218000", "163916.218000", "163916.218000", "163916.234000", "163916.234000", "163916.234000", "163916.234000", "163916.250000", "163916.250000", "163916.250000", "163916.250000", "163916.250000", "163916.250000", "163916.265000", "163916.265000", "163916.265000", "163936.203000", "163936.203000", "163936.203000", "163936.203000", "163936.203000", "163936.203000", "163936.203000", "163936.218000", "163936.218000", "163936.218000", "163936.218000", "163936.218000", "163936.218000", "163936.218000", "163936.234000", "163936.234000", "163936.234000", "163936.234000", "163936.234000", "163936.234000", "163936.234000", "163936.250000", "163936.250000", "163936.250000", "163936.250000", "163936.250000", "163956.203000", "163956.203000", "163956.203000", "163956.203000", "163956.203000", "163956.203000", "163956.203000", "163956.218000", "163956.218000", "163956.218000", "163956.218000", "163956.218000", "163956.218000", "163956.218000", "163956.234000", "163956.234000", "163956.234000", "163956.234000", "163956.234000", "163956.234000", "163956.234000", "163956.250000", "163956.250000", "163956.250000", "163956.250000", "164016.203000", "164016.203000", "164016.203000", "164016.203000", "164016.203000", "164016.203000", "164016.203000", "164016.218000", "164016.218000", "164016.218000", "164016.218000", "164016.218000", "164016.218000", "164016.218000", "164016.234000", "164016.234000", "164016.234000", "164016.234000", "164016.234000", "164016.234000", "164016.250000", "164016.250000", "164016.250000", "164016.250000", "164016.250000", "164016.250000", "164036.203000", "164036.203000", "164036.203000", "164036.203000", "164036.203000", "164036.203000", "164036.203000", "164036.218000", "164036.218000", "164036.218000", "164036.218000", "164036.218000", "164036.218000", "164036.218000", "164036.234000", "164036.234000", "164036.234000", "164036.234000", "164036.234000", "164036.234000", "164036.234000", "164036.250000", "164036.250000", "164036.250000", "164036.250000", "164056.203000", "164056.203000", "164056.203000", "164056.203000", "164056.203000", "164056.203000", "164056.203000", "164056.218000", "164056.218000", "164056.218000", "164056.218000", "164056.218000", "164056.218000", "164056.218000", "164056.234000", "164056.234000", "164056.234000", "164056.234000", "164056.234000", "164056.234000", "164056.234000", "164056.250000", "164056.250000", "164056.250000", "164056.250000", "164056.250000", "164116.203000", "164116.203000", "164116.203000", "164116.203000", "164116.203000", "164116.203000", "164116.203000", "164116.218000", "164116.218000", "164116.218000", "164116.218000", "164116.218000", "164116.218000", "164116.218000", "164116.234000", "164116.234000", "164116.234000", "164116.234000", "164116.234000", "164116.234000", "164116.234000", "164116.250000", "164116.250000", "164116.250000", "164116.250000", "164136.203000", "164136.203000", "164136.203000", "164136.203000", "164136.203000", "164136.203000", "164136.203000", "164136.218000", "164136.218000", "164136.218000", "164136.218000", "164136.218000", "164136.218000", "164136.218000", "164136.234000", "164136.234000", "164136.234000", "164136.250000", "164136.250000", "164136.250000", "164136.250000", "164136.250000", "164136.250000", "164136.250000", "164136.265000", "164136.265000", "164156.203000", "164156.203000", "164156.203000", "164156.203000", "164156.203000", "164156.203000", "164156.203000", "164156.218000", "164156.218000", "164156.218000", "164156.218000", "164156.218000", "164156.218000", "164156.218000", "164156.234000", "164156.234000", "164156.234000", "164156.234000", "164156.234000", "164156.234000", "164156.234000", "164156.250000", "164156.250000", "164156.250000", "164156.250000", "164216.203000", "164216.203000", "164216.203000", "164216.203000", "164216.203000", "164216.203000", "164216.203000", "164216.218000", "164216.218000", "164216.218000", "164216.218000", "164216.218000", "164216.218000", "164216.218000", "164216.234000", "164216.234000", "164216.234000", "164216.234000", "164216.234000", "164216.234000", "164216.250000", "164216.250000", "164216.250000", "164216.250000", "164216.250000", "164216.250000", "164226.296000", "164226.296000", "164226.296000", "164226.296000", "164226.296000", "164226.312000", "164226.312000", "164226.312000", "164226.312000", "164226.312000", "164226.312000", "164226.312000", "164226.328000"],
      "DataSetTrailingPadding": [
        "\u0000\u0000\u0000\u0000\u0000\u0000\u0000\u0000\u0000\u0000\u0000\u0000\u0000\u0000\u0000\u0000\u0000\u0000\u0000\u0000\u0000\u0000\u0000\u0000\u0000\u0000\u0000\u0000\u0000\u0000\u0000\u0000\u0000\u0000\u0000\u0000\u0000\u0000\u0000\u0000\u0000\u0000\u0000\u0000\u0000\u0000\u0000\u0000\u0000\u0000\u0000\u0000\u0000\u0000\u0000\u0000\u0000\u0000\u0000\u0000\u0000\u0000\u0000\u0000\u0000\u0000\u0000\u0000\u0000\u0000\u0000\u0000\u0000\u0000\u0000\u0000\u0000\u0000\u0000\u0000\u0000\u0000\u0000\u0000\u0000\u0000\u0000\u0000\u0000\u0000\u0000\u0000\u0000\u0000",
        "\u0000\u0000\u0000\u0000\u0000\u0000\u0000\u0000\u0000\u0000\u0000\u0000\u0000\u0000\u0000\u0000\u0000\u0000\u0000\u0000\u0000\u0000\u0000\u0000\u0000\u0000\u0000\u0000\u0000\u0000\u0000\u0000\u0000\u0000\u0000\u0000\u0000\u0000\u0000\u0000\u0000\u0000\u0000\u0000\u0000\u0000\u0000\u0000\u0000\u0000\u0000\u0000\u0000\u0000\u0000\u0000\u0000\u0000\u0000\u0000\u0000\u0000\u0000\u0000\u0000\u0000\u0000\u0000\u0000\u0000\u0000\u0000\u0000\u0000\u0000\u0000\u0000\u0000\u0000\u0000\u0000\u0000\u0000\u0000\u0000\u0000\u0000\u0000\u0000\u0000\u0000\u0000\u0000\u0000\u0000\u0000",
        "\u0000\u0000\u0000\u0000\u0000\u0000\u0000\u0000\u0000\u0000\u0000\u0000\u0000\u0000\u0000\u0000\u0000\u0000\u0000\u0000\u0000\u0000\u0000\u0000\u0000\u0000\u0000\u0000\u0000\u0000\u0000\u0000\u0000\u0000\u0000\u0000\u0000\u0000\u0000\u0000\u0000\u0000\u0000\u0000\u0000\u0000\u0000\u0000\u0000\u0000\u0000\u0000\u0000\u0000\u0000\u0000\u0000\u0000\u0000\u0000\u0000\u0000\u0000\u0000\u0000\u0000\u0000\u0000\u0000\u0000\u0000\u0000\u0000\u0000\u0000\u0000\u0000\u0000\u0000\u0000\u0000\u0000\u0000\u0000\u0000\u0000\u0000\u0000\u0000\u0000\u0000\u0000\u0000\u0000",
