{
  "AcquisitionMatrixPE": 104,
  "AcquisitionNumber": 1,
  "AcquisitionTime": "15:33:57.277500",
  "BandwidthPerPixelPhaseEncode": 13.935,
  "BaseResolution": 104,
  "CoilString": "C:HEA;HEP",
  "ConversionSoftware": "dcm2niix",
  "ConversionSoftwareVersion": "v1.0.20210317",
  "DerivedVendorReportedEchoSpacing": 0.000690017,
  "DeviceSerialNumber": "35450",
  "DwellTime": 2.5e-06,
  "EchoTime": 0.0348,
  "EffectiveEchoSpacing": 0.000690017,
  "FlipAngle": 55,
  "ImageComments": "Unaliased MB8/PE3 (remote)",
  "ImageOrientationPatientDICOM": [0.999875, 0.00238777, 0.015606, -4.03403e-08, 0.988497, -0.151241],
  "ImageType": [
    "ORIGINAL",
    "PRIMARY",
    "M",
    "MB",
    "ND",
    "MOSAIC"
],
  "ImagingFrequency": 123.235,
  "InPlanePhaseEncodingDirectionDICOM": "COL",
  "InstitutionAddress": "Univeristy Ave. 197,Newark,North East,US,07102-1814",
  "InstitutionName": "RUBIC",
  "InstitutionalDepartmentName": "Department",
  "MRAcquisitionType": "2D",
  "MagneticFieldStrength": 3,
  "Manufacturer": "Siemens",
  "ManufacturersModelName": "TrioTim",
  "Modality": "MR",
  "MultibandAccelerationFactor": 8,
  "PartialFourier": 0.875,
  "PatientPosition": "HFS",
  "PercentPhaseFOV": 100,
  "PercentSampling": 100,
  "PhaseEncodingDirection": "j-",
  "PhaseEncodingSteps": 91,
  "PhaseResolution": 1,
  "PixelBandwidth": 1923,
  "ProcedureStepDescription": "Cole^Michael",
  "ProtocolName": "cmrr_mbep2d_bold_2mm_MB8_Task_8x",
  "PulseSequenceDetails": "%CustomerSeq%\\cmrr_mbep2d_bold",
  "ReceiveCoilName": "32Ch_Head",
  "ReconMatrixPE": 104,
  "RepetitionTime": 0.785,
  "SAR": 0.136455,
  "ScanOptions": "PFP\\FS",
  "ScanningSequence": "EP",
  "SequenceName": "epfid2d1_104",
  "SequenceVariant": "SK\\SS",
  "SeriesDescription": "cmrr_mbep2d_bold_2mm_MB8_Task_8x",
  "SeriesNumber": 13,
  "ShimSetting": [2121, -415, -7230, 493, 41, -82, 288, -71],
  "SliceThickness": 2,
  "SliceTiming": [0, 0.4375, 0.0875, 0.525, 0.175, 0.6125, 0.2625, 0.7, 0.35, 0, 0.4375, 0.0875, 0.525, 0.175, 0.6125, 0.2625, 0.7, 0.35, 0, 0.4375, 0.0875, 0.525, 0.175, 0.6125, 0.2625, 0.7, 0.35, 0, 0.4375, 0.0875, 0.525, 0.175, 0.6125, 0.2625, 0.7, 0.35, 0, 0.4375, 0.0875, 0.525, 0.175, 0.6125, 0.2625, 0.7, 0.35, 0, 0.4375, 0.0875, 0.525, 0.175, 0.6125, 0.2625, 0.7, 0.35, 0, 0.4375, 0.0875, 0.525, 0.175, 0.6125, 0.2625, 0.7, 0.35, 0, 0.4375, 0.0875, 0.525, 0.175, 0.6125, 0.2625, 0.7, 0.35],
  "SoftwareVersions": "syngo MR B19",
  "SpacingBetweenSlices": 2,
  "StationName": "MRC35450",
  "TaskName": "cpro",
  "TotalReadoutTime": 0.0710717,
  "TxRefAmp": 327.654,
  "dcmmeta_affine": [
    [-1.9997507333755493, -8.068052181897656e-08, 0.03157525882124901, 106.49131774902344],
    [-0.004775544628500938, 1.9769939184188843, -0.30244380235671997, -85.14537811279297],
    [0.031212031841278076, 0.302481472492218, 1.9767476320266724, -106.7633056640625],
    [0.0, 0.0, 0.0, 1.0]
],
  "dcmmeta_reorient_transform": [
    [0.0, -1.0, 0.0, 103.0],
    [1.0, 0.0, 0.0, 0.0],
    [0.0, 0.0, 1.0, 0.0],
    [0.0, 0.0, 0.0, 1.0]
],
  "dcmmeta_shape": [104, 104, 72, 581],
  "dcmmeta_slice_dim": 2,
  "dcmmeta_version": 0.6,
  "global": {
    "const": {
      "AcquisitionMatrix": [104, 0, 0, 104],
      "AngioFlag": "N",
      "BitsAllocated": 16,
      "BitsStored": 12,
      "Columns": 936,
      "EchoNumbers": 1,
      "EchoTime": 34.8,
      "EchoTrainLength": 1,
      "FlipAngle": 55.0,
      "HighBit": 11,
      "ImageOrientationPatient": [0.99987536763266, 0.00238777242792, 0.01560601628488, -4.034026e-08, 0.98849695932957, -0.1512407398692],
      "ImagePositionPatient": [-938.38758500551, -942.90108946242, 37.240379045961],
      "ImageType": [
        "ORIGINAL",
        "PRIMARY",
        "M",
        "MB",
        "ND",
        "MOSAIC"
],
      "ImagedNucleus": "1H",
      "ImagingFrequency": 123.234936,
      "InPlanePhaseEncodingDirection": "COL",
      "MRAcquisitionType": "2D",
      "MagneticFieldStrength": 3.0,
      "Manufacturer": "SIEMENS",
      "ManufacturerModelName": "TrioTim",
      "Modality": "MR",
      "NumberOfAverages": 1.0,
      "NumberOfPhaseEncodingSteps": 91,
      "PercentPhaseFieldOfView": 100.0,
      "PercentSampling": 100.0,
      "PerformedProcedureStepStartTime": "142703.562000",
      "PhotometricInterpretation": "MONOCHROME2",
      "PixelBandwidth": 1923.0,
      "PixelRepresentation": 0,
      "PixelSpacing": [2.0, 2.0],
      "ProtocolName": "cmrr_mbep2d_bold_2mm_MB8_Task_8x",
      "RepetitionTime": 785.0,
      "Rows": 936,
      "SAR": 0.13645459297796,
      "SamplesPerPixel": 1,
      "ScanOptions": [
        "PFP",
        "FS"
],
      "ScanningSequence": "EP",
      "SequenceName": "epfid2d1_104",
      "SequenceVariant": [
        "SK",
        "SS"
],
      "SeriesDescription": "cmrr_mbep2d_bold_2mm_MB8_Task_8x",
      "SeriesNumber": 13,
      "SeriesTime": "153423.406000",
      "SliceLocation": -90.964956887892,
      "SliceThickness": 2.0,
      "SmallestImagePixelValue": 0,
      "SoftwareVersions": "syngo MR B19",
      "SpacingBetweenSlices": 2.0000000690522,
      "SpecificCharacterSet": "ISO_IR 100",
      "StudyID": "1",
      "StudyTime": "142703.531000",
      "TransmitCoilName": "Body",
      "VariableFlipAngleFlag": "N",
      "WindowCenterWidthExplanation": "Algo1",
      "dBdt": 0.0},
    "slices": {}
  },
  "time": {
    "samples": {
      "AcquisitionNumber": [1, 2, 3, 4, 5, 6, 7, 8, 9, 10, 11, 12, 13, 14, 15, 16, 17, 18, 19, 20, 21, 22, 23, 24, 25, 26, 27, 28, 29, 30, 31, 32, 33, 34, 35, 36, 37, 38, 39, 40, 41, 42, 43, 44, 45, 46, 47, 48, 49, 50, 51, 52, 53, 54, 55, 56, 57, 58, 59, 60, 61, 62, 63, 64, 65, 66, 67, 68, 69, 70, 71, 72, 73, 74, 75, 76, 77, 78, 79, 80, 81, 82, 83, 84, 85, 86, 87, 88, 89, 90, 91, 92, 93, 94, 95, 96, 97, 98, 99, 100, 101, 102, 103, 104, 105, 106, 107, 108, 109, 110, 111, 112, 113, 114, 115, 116, 117, 118, 119, 120, 121, 122, 123, 124, 125, 126, 127, 128, 129, 130, 131, 132, 133, 134, 135, 136, 137, 138, 139, 140, 141, 142, 143, 144, 145, 146, 147, 148, 149, 150, 151, 152, 153, 154, 155, 156, 157, 158, 159, 160, 161, 162, 163, 164, 165, 166, 167, 168, 169, 170, 171, 172, 173, 174, 175, 176, 177, 178, 179, 180, 181, 182, 183, 184, 185, 186, 187, 188, 189, 190, 191, 192, 193, 194, 195, 196, 197, 198, 199, 200, 201, 202, 203, 204, 205, 206, 207, 208, 209, 210, 211, 212, 213, 214, 215, 216, 217, 218, 219, 220, 221, 222, 223, 224, 225, 226, 227, 228, 229, 230, 231, 232, 233, 234, 235, 236, 237, 238, 239, 240, 241, 242, 243, 244, 245, 246, 247, 248, 249, 250, 251, 252, 253, 254, 255, 256, 257, 258, 259, 260, 261, 262, 263, 264, 265, 266, 267, 268, 269, 270, 271, 272, 273, 274, 275, 276, 277, 278, 279, 280, 281, 282, 283, 284, 285, 286, 287, 288, 289, 290, 291, 292, 293, 294, 295, 296, 297, 298, 299, 300, 301, 302, 303, 304, 305, 306, 307, 308, 309, 310, 311, 312, 313, 314, 315, 316, 317, 318, 319, 320, 321, 322, 323, 324, 325, 326, 327, 328, 329, 330, 331, 332, 333, 334, 335, 336, 337, 338, 339, 340, 341, 342, 343, 344, 345, 346, 347, 348, 349, 350, 351, 352, 353, 354, 355, 356, 357, 358, 359, 360, 361, 362, 363, 364, 365, 366, 367, 368, 369, 370, 371, 372, 373, 374, 375, 376, 377, 378, 379, 380, 381, 382, 383, 384, 385, 386, 387, 388, 389, 390, 391, 392, 393, 394, 395, 396, 397, 398, 399, 400, 401, 402, 403, 404, 405, 406, 407, 408, 409, 410, 411, 412, 413, 414, 415, 416, 417, 418, 419, 420, 421, 422, 423, 424, 425, 426, 427, 428, 429, 430, 431, 432, 433, 434, 435, 436, 437, 438, 439, 440, 441, 442, 443, 444, 445, 446, 447, 448, 449, 450, 451, 452, 453, 454, 455, 456, 457, 458, 459, 460, 461, 462, 463, 464, 465, 466, 467, 468, 469, 470, 471, 472, 473, 474, 475, 476, 477, 478, 479, 480, 481, 482, 483, 484, 485, 486, 487, 488, 489, 490, 491, 492, 493, 494, 495, 496, 497, 498, 499, 500, 501, 502, 503, 504, 505, 506, 507, 508, 509, 510, 511, 512, 513, 514, 515, 516, 517, 518, 519, 520, 521, 522, 523, 524, 525, 526, 527, 528, 529, 530, 531, 532, 533, 534, 535, 536, 537, 538, 539, 540, 541, 542, 543, 544, 545, 546, 547, 548, 549, 550, 551, 552, 553, 554, 555, 556, 557, 558, 559, 560, 561, 562, 563, 564, 565, 566, 567, 568, 569, 570, 571, 572, 573, 574, 575, 576, 577, 578, 579, 580, 581],
      "AcquisitionTime": ["153357.277500", "153358.065000", "153358.855000", "153359.642500", "153400.430000", "153401.217500", "153402.007500", "153402.795000", "153403.582500", "153404.370000", "153405.160000", "153405.947500", "153406.735000", "153407.522500", "153408.312500", "153409.100000", "153409.887500", "153410.675000", "153411.465000", "153412.252500", "153413.040000", "153413.830000", "153414.617500", "153415.405000", "153416.192500", "153416.982500", "153417.770000", "153418.557500", "153419.345000", "153420.135000", "153420.922500", "153421.710000", "153422.497500", "153423.287500", "153424.075000", "153424.862500", "153425.650000", "153426.440000", "153427.227500", "153428.015000", "153428.802500", "153429.592500", "153430.380000", "153431.167500", "153431.957500", "153432.745000", "153433.532500", "153434.320000", "153435.110000", "153435.897500", "153436.685000", "153437.472500", "153438.262500", "153439.050000", "153439.837500", "153440.625000", "153441.415000", "153442.202500", "153442.990000", "153443.777500", "153444.567500", "153445.355000", "153446.142500", "153446.930000", "153447.720000", "153448.507500", "153449.295000", "153450.085000", "153450.872500", "153451.660000", "153452.447500", "153453.237500", "153454.025000", "153454.812500", "153455.600000", "153456.390000", "153457.177500", "153457.965000", "153458.752500", "153459.542500", "153500.330000", "153501.117500", "153501.905000", "153502.695000", "153503.482500", "153504.270000", "153505.057500", "153505.847500", "153506.635000", "153507.422500", "153508.212500", "153509.000000", "153509.787500", "153510.575000", "153511.365000", "153512.152500", "153512.940000", "153513.727500", "153514.517500", "153515.305000", "153516.092500", "153516.880000", "153517.670000", "153518.457500", "153519.245000", "153520.032500", "153520.822500", "153521.610000", "153522.397500", "153523.185000", "153523.975000", "153524.762500", "153525.550000", "153526.340000", "153527.127500", "153527.915000", "153528.702500", "153529.492500", "153530.280000", "153531.067500", "153531.855000", "153532.645000", "153533.432500", "153534.220000", "153535.007500", "153535.797500", "153536.585000", "153537.372500", "153538.160000", "153538.950000", "153539.737500", "153540.525000", "153541.312500", "153542.102500", "153542.890000", "153543.677500", "153544.467500", "153545.255000", "153546.042500", "153546.830000", "153547.620000", "153548.407500", "153549.195000", "153549.982500", "153550.772500", "153551.560000", "153552.347500", "153553.135000", "153553.925000", "153554.712500", "153555.500000", "153556.287500", "153557.077500", "153557.865000", "153558.652500", "153559.440000", "153600.230000", "153601.017500", "153601.805000", "153602.595000", "153603.382500", "153604.170000", "153604.957500", "153605.747500", "153606.535000", "153607.322500", "153608.110000", "153608.900000", "153609.687500", "153610.475000", "153611.262500", "153612.052500", "153612.840000", "153613.627500", "153614.415000", "153615.205000", "153615.992500", "153616.780000", "153617.570000", "153618.357500", "153619.145000", "153619.932500", "153620.722500", "153621.510000", "153622.297500", "153623.085000", "153623.875000", "153624.662500", "153625.450000", "153626.237500", "153627.027500", "153627.815000", "153628.602500", "153629.390000", "153630.180000", "153630.967500", "153631.755000", "153632.542500", "153633.332500", "153634.120000", "153634.907500", "153635.697500", "153636.485000", "153637.272500", "153638.060000", "153638.850000", "153639.637500", "153640.425000", "153641.212500", "153642.002500", "153642.790000", "153643.577500", "153644.365000", "153645.155000", "153645.942500", "153646.730000", "153647.517500", "153648.307500", "153649.095000", "153649.882500", "153650.670000", "153651.460000", "153652.247500", "153653.035000", "153653.825000", "153654.612500", "153655.400000", "153656.187500", "153656.977500", "153657.765000", "153658.552500", "153659.340000", "153700.130000", "153700.917500", "153701.705000", "153702.492500", "153703.282500", "153704.070000", "153704.857500", "153705.645000", "153706.435000", "153707.222500", "153708.010000", "153708.797500", "153709.587500", "153710.375000", "153711.162500", "153711.952500", "153712.740000", "153713.527500", "153714.315000", "153715.105000", "153715.892500", "153716.680000", "153717.467500", "153718.257500", "153719.045000", "153719.832500", "153720.620000", "153721.410000", "153722.197500", "153722.985000", "153723.772500", "153724.562500", "153725.350000", "153726.137500", "153726.925000", "153727.715000", "153728.502500", "153729.290000", "153730.080000", "153730.867500", "153731.655000", "153732.442500", "153733.232500", "153734.020000", "153734.807500", "153735.595000", "153736.385000", "153737.172500", "153737.960000", "153738.747500", "153739.537500", "153740.325000", "153741.112500", "153741.900000", "153742.690000", "153743.477500", "153744.265000", "153745.052500", "153745.842500", "153746.630000", "153747.417500", "153748.207500", "153748.995000", "153749.782500", "153750.570000", "153751.360000", "153752.147500", "153752.935000", "153753.722500", "153754.512500", "153755.300000", "153756.087500", "153756.875000", "153757.665000", "153758.452500", "153759.240000", "153800.027500", "153800.817500", "153801.605000", "153802.392500", "153803.180000", "153803.970000", "153804.757500", "153805.545000", "153806.335000", "153807.122500", "153807.910000", "153808.697500", "153809.487500", "153810.275000", "153811.062500", "153811.850000", "153812.640000", "153813.427500", "153814.215000", "153815.002500", "153815.792500", "153816.580000", "153817.367500", "153818.155000", "153818.945000", "153819.732500", "153820.520000", "153821.307500", "153822.097500", "153822.885000", "153823.672500", "153824.462500", "153825.250000", "153826.037500", "153826.825000", "153827.615000", "153828.402500", "153829.190000", "153829.977500", "153830.767500", "153831.555000", "153832.342500", "153833.130000", "153833.920000", "153834.707500", "153835.495000", "153836.282500", "153837.072500", "153837.860000", "153838.647500", "153839.435000", "153840.225000", "153841.012500", "153841.800000", "153842.590000", "153843.377500", "153844.165000", "153844.952500", "153845.742500", "153846.530000", "153847.317500", "153848.105000", "153848.895000", "153849.682500", "153850.470000", "153851.257500", "153852.047500", "153852.835000", "153853.622500", "153854.410000", "153855.200000", "153855.987500", "153856.775000", "153857.562500", "153858.352500", "153859.140000", "153859.927500", "153900.717500", "153901.505000", "153902.292500", "153903.080000", "153903.870000", "153904.657500", "153905.445000", "153906.232500", "153907.022500", "153907.810000", "153908.597500", "153909.385000", "153910.175000", "153910.962500", "153911.750000", "153912.537500", "153913.327500", "153914.115000", "153914.902500", "153915.690000", "153916.480000", "153917.267500", "153918.055000", "153918.845000", "153919.632500", "153920.420000", "153921.207500", "153921.997500", "153922.785000", "153923.572500", "153924.360000", "153925.150000", "153925.937500", "153926.725000", "153927.512500", "153928.302500", "153929.090000", "153929.877500", "153930.665000", "153931.455000", "153932.242500", "153933.030000", "153933.820000", "153934.607500", "153935.395000", "153936.182500", "153936.972500", "153937.760000", "153938.547500", "153939.335000", "153940.125000", "153940.912500", "153941.700000", "153942.487500", "153943.277500", "153944.065000", "153944.852500", "153945.640000", "153946.430000", "153947.217500", "153948.005000", "153948.792500", "153949.582500", "153950.370000", "153951.157500", "153951.947500", "153952.735000", "153953.522500", "153954.310000", "153955.100000", "153955.887500", "153956.675000", "153957.462500", "153958.252500", "153959.040000", "153959.827500", "154000.615000", "154001.405000", "154002.192500", "154002.980000", "154003.767500", "154004.557500", "154005.345000", "154006.132500", "154006.920000", "154007.710000", "154008.497500", "154009.285000", "154010.075000", "154010.862500", "154011.650000", "154012.437500", "154013.227500", "154014.015000", "154014.802500", "154015.590000", "154016.380000", "154017.167500", "154017.955000", "154018.742500", "154019.532500", "154020.320000", "154021.107500", "154021.895000", "154022.685000", "154023.472500", "154024.260000", "154025.047500", "154025.837500", "154026.625000", "154027.412500", "154028.202500", "154028.990000", "154029.777500", "154030.565000", "154031.355000", "154032.142500", "154032.930000", "154033.717500", "154034.507500", "154035.295000", "154036.082500", "154036.870000", "154037.660000", "154038.447500", "154039.235000", "154040.022500", "154040.812500", "154041.600000", "154042.387500", "154043.175000", "154043.965000", "154044.752500", "154045.540000", "154046.330000", "154047.117500", "154047.905000", "154048.692500", "154049.482500", "154050.270000", "154051.057500", "154051.845000", "154052.635000", "154053.422500", "154054.210000", "154054.997500", "154055.787500", "154056.575000", "154057.362500", "154058.150000", "154058.940000", "154059.727500", "154100.515000", "154101.302500", "154102.092500", "154102.880000", "154103.667500", "154104.457500", "154105.245000", "154106.032500", "154106.820000", "154107.610000", "154108.397500", "154109.185000", "154109.972500", "154110.762500", "154111.550000", "154112.337500", "154113.125000", "154113.915000", "154114.702500", "154115.490000", "154116.277500", "154117.067500", "154117.855000", "154118.642500", "154119.430000", "154120.220000", "154121.007500", "154121.795000", "154122.585000", "154123.372500", "154124.160000", "154124.947500", "154125.737500", "154126.525000", "154127.312500", "154128.100000", "154128.890000", "154129.677500", "154130.465000", "154131.252500", "154132.042500", "154132.830000", "154133.617500", "154134.405000"],
      "ContentTime": ["153423.406000", "153423.406000", "153423.406000", "153423.421000", "153423.421000", "153423.421000", "153423.421000", "153423.421000", "153423.421000", "153423.437000", "153423.437000", "153423.437000", "153423.437000", "153423.437000", "153423.437000", "153423.453000", "153423.453000", "153423.453000", "153423.453000", "153423.453000", "153423.453000", "153423.468000", "153423.468000", "153423.468000", "153423.468000", "153423.468000", "153423.468000", "153423.484000", "153423.484000", "153423.484000", "153423.484000", "153443.390000", "153443.390000", "153443.390000", "153443.390000", "153443.390000", "153443.390000", "153443.390000", "153443.406000", "153443.406000", "153443.406000", "153443.406000", "153443.406000", "153443.406000", "153443.406000", "153443.421000", "153443.421000", "153443.421000", "153443.421000", "153443.421000", "153443.421000", "153443.421000", "153443.437000", "153443.437000", "153443.437000", "153443.437000", "153443.437000", "153503.390000", "153503.390000", "153503.390000", "153503.390000", "153503.390000", "153503.406000", "153503.406000", "153503.406000", "153503.406000", "153503.406000", "153503.406000", "153503.406000", "153503.421000", "153503.421000", "153503.421000", "153503.421000", "153503.421000", "153503.437000", "153503.437000", "153503.437000", "153503.437000", "153503.437000", "153503.437000", "153503.437000", "153503.453000", "153523.390000", "153523.390000", "153523.390000", "153523.390000", "153523.390000", "153523.390000", "153523.390000", "153523.406000", "153523.406000", "153523.406000", "153523.406000", "153523.406000", "153523.406000", "153523.406000", "153523.421000", "153523.421000", "153523.421000", "153523.421000", "153523.421000", "153523.421000", "153523.421000", "153523.437000", "153523.437000", "153523.437000", "153523.437000", "153523.437000", "153543.390000", "153543.390000", "153543.390000", "153543.390000", "153543.390000", "153543.390000", "153543.390000", "153543.406000", "153543.406000", "153543.406000", "153543.406000", "153543.406000", "153543.406000", "153543.406000", "153543.421000", "153543.421000", "153543.421000", "153543.421000", "153543.421000", "153543.421000", "153543.421000", "153543.437000", "153543.437000", "153543.437000", "153543.437000", "153603.390000", "153603.390000", "153603.390000", "153603.390000", "153603.390000", "153603.390000", "153603.390000", "153603.406000", "153603.406000", "153603.406000", "153603.406000", "153603.421000", "153603.421000", "153603.421000", "153603.421000", "153603.421000", "153603.421000", "153603.437000", "153603.437000", "153603.437000", "153603.437000", "153603.437000", "153603.437000", "153603.437000", "153603.453000", "153623.390000", "153623.390000", "153623.390000", "153623.390000", "153623.390000", "153623.390000", "153623.390000", "153623.406000", "153623.406000", "153623.406000", "153623.406000", "153623.406000", "153623.406000", "153623.406000", "153623.421000", "153623.421000", "153623.421000", "153623.421000", "153623.421000", "153623.421000", "153623.437000", "153623.437000", "153623.437000", "153623.437000", "153623.437000", "153623.437000", "153643.390000", "153643.390000", "153643.390000", "153643.390000", "153643.390000", "153643.390000", "153643.406000", "153643.406000", "153643.406000", "153643.406000", "153643.406000", "153643.406000", "153643.406000", "153643.421000", "153643.421000", "153643.421000", "153643.421000", "153643.421000", "153643.421000", "153643.421000", "153643.437000", "153643.437000", "153643.437000", "153643.437000", "153643.437000", "153703.390000", "153703.390000", "153703.390000", "153703.390000", "153703.390000", "153703.390000", "153703.390000", "153703.406000", "153703.406000", "153703.406000", "153703.406000", "153703.406000", "153703.406000", "153703.406000", "153703.421000", "153703.421000", "153703.421000", "153703.421000", "153703.421000", "153703.421000", "153703.421000", "153703.437000", "153703.437000", "153703.437000", "153703.437000", "153703.437000", "153723.390000", "153723.390000", "153723.390000", "153723.390000", "153723.390000", "153723.390000", "153723.406000", "153723.406000", "153723.406000", "153723.406000", "153723.406000", "153723.406000", "153723.421000", "153723.421000", "153723.421000", "153723.421000", "153723.437000", "153723.437000", "153723.437000", "153723.437000", "153723.437000", "153723.453000", "153723.453000", "153723.453000", "153723.453000", "153743.390000", "153743.390000", "153743.390000", "153743.390000", "153743.390000", "153743.390000", "153743.390000", "153743.406000", "153743.406000", "153743.406000", "153743.406000", "153743.406000", "153743.406000", "153743.406000", "153743.421000", "153743.421000", "153743.421000", "153743.421000", "153743.421000", "153743.421000", "153743.437000", "153743.437000", "153743.437000", "153743.437000", "153743.453000", "153743.453000", "153803.390000", "153803.390000", "153803.390000", "153803.390000", "153803.390000", "153803.390000", "153803.390000", "153803.406000", "153803.406000", "153803.406000", "153803.406000", "153803.406000", "153803.406000", "153803.406000", "153803.421000", "153803.421000", "153803.421000", "153803.421000", "153803.437000", "153803.437000", "153803.437000", "153803.437000", "153803.437000", "153803.437000", "153803.453000", "153823.390000", "153823.390000", "153823.390000", "153823.390000", "153823.390000", "153823.390000", "153823.390000", "153823.406000", "153823.406000", "153823.406000", "153823.406000", "153823.406000", "153823.406000", "153823.406000", "153823.421000", "153823.421000", "153823.421000", "153823.421000", "153823.421000", "153823.421000", "153823.421000", "153823.437000", "153823.437000", "153823.437000", "153823.437000", "153823.437000", "153843.390000", "153843.390000", "153843.390000", "153843.390000", "153843.390000", "153843.390000", "153843.390000", "153843.406000", "153843.406000", "153843.406000", "153843.406000", "153843.406000", "153843.406000", "153843.406000", "153843.421000", "153843.421000", "153843.421000", "153843.421000", "153843.421000", "153843.421000", "153843.421000", "153843.437000", "153843.437000", "153843.437000", "153843.437000", "153903.390000", "153903.390000", "153903.390000", "153903.390000", "153903.390000", "153903.390000", "153903.390000", "153903.406000", "153903.406000", "153903.406000", "153903.406000", "153903.406000", "153903.406000", "153903.406000", "153903.421000", "153903.421000", "153903.421000", "153903.421000", "153903.421000", "153903.421000", "153903.437000", "153903.437000", "153903.437000", "153903.437000", "153903.437000", "153903.437000", "153923.390000", "153923.390000", "153923.390000", "153923.390000", "153923.390000", "153923.406000", "153923.406000", "153923.406000", "153923.421000", "153923.421000", "153923.421000", "153923.421000", "153923.421000", "153923.421000", "153923.421000", "153923.437000", "153923.437000", "153923.437000", "153923.437000", "153923.437000", "153923.437000", "153923.437000", "153923.453000", "153923.453000", "153923.453000", "153943.390000", "153943.390000", "153943.390000", "153943.390000", "153943.390000", "153943.390000", "153943.406000", "153943.406000", "153943.406000", "153943.406000", "153943.406000", "153943.406000", "153943.421000", "153943.421000", "153943.421000", "153943.421000", "153943.421000", "153943.421000", "153943.421000", "153943.437000", "153943.437000", "153943.437000", "153943.437000", "153943.437000", "153943.437000", "153943.453000", "154003.390000", "154003.390000", "154003.390000", "154003.390000", "154003.390000", "154003.390000", "154003.406000", "154003.406000", "154003.406000", "154003.406000", "154003.406000", "154003.406000", "154003.421000", "154003.421000", "154003.421000", "154003.421000", "154003.421000", "154003.421000", "154003.421000", "154003.437000", "154003.437000", "154003.437000", "154003.437000", "154003.437000", "154003.437000", "154023.390000", "154023.390000", "154023.390000", "154023.390000", "154023.390000", "154023.390000", "154023.390000", "154023.406000", "154023.406000", "154023.406000", "154023.406000", "154023.406000", "154023.421000", "154023.421000", "154023.421000", "154023.421000", "154023.421000", "154023.421000", "154023.437000", "154023.437000", "154023.437000", "154023.437000", "154023.437000", "154023.437000", "154023.437000", "154023.453000", "154043.390000", "154043.390000", "154043.390000", "154043.390000", "154043.390000", "154043.390000", "154043.390000", "154043.406000", "154043.406000", "154043.406000", "154043.406000", "154043.406000", "154043.406000", "154043.406000", "154043.421000", "154043.421000", "154043.421000", "154043.421000", "154043.421000", "154043.421000", "154043.421000", "154043.437000", "154043.437000", "154043.437000", "154043.437000", "154103.390000", "154103.390000", "154103.390000", "154103.390000", "154103.390000", "154103.390000", "154103.406000", "154103.406000", "154103.406000", "154103.406000", "154103.406000", "154103.406000", "154103.421000", "154103.421000", "154103.421000", "154103.421000", "154103.421000", "154103.421000", "154103.421000", "154103.437000", "154103.437000", "154103.437000", "154103.437000", "154103.437000", "154103.437000", "154103.437000", "154123.390000", "154123.390000", "154123.390000", "154123.390000", "154123.390000", "154123.390000", "154123.390000", "154123.406000", "154123.406000", "154123.406000", "154123.406000", "154123.406000", "154123.406000", "154123.406000", "154123.421000", "154123.421000", "154123.421000", "154123.421000", "154123.421000", "154123.421000", "154123.437000", "154123.437000", "154123.437000", "154123.437000", "154123.437000", "154134.750000", "154134.750000", "154134.750000", "154134.765000", "154134.765000", "154134.765000", "154134.765000", "154134.765000", "154134.765000", "154134.765000", "154134.781000", "154134.781000", "154134.781000", "154134.781000", "154134.781000"],
      "DataSetTrailingPadding": [
        "\u0000\u0000\u0000\u0000\u0000\u0000\u0000\u0000\u0000\u0000\u0000\u0000\u0000\u0000\u0000\u0000\u0000\u0000\u0000\u0000\u0000\u0000\u0000\u0000\u0000\u0000\u0000\u0000\u0000\u0000\u0000\u0000\u0000\u0000\u0000\u0000\u0000\u0000\u0000\u0000\u0000\u0000\u0000\u0000\u0000\u0000\u0000\u0000\u0000\u0000\u0000\u0000\u0000\u0000\u0000\u0000\u0000\u0000\u0000\u0000\u0000\u0000\u0000\u0000\u0000\u0000\u0000\u0000\u0000\u0000\u0000\u0000\u0000\u0000\u0000\u0000\u0000\u0000\u0000\u0000\u0000\u0000\u0000\u0000\u0000\u0000\u0000\u0000\u0000\u0000\u0000\u0000\u0000\u0000",
        "\u0000\u0000\u0000\u0000\u0000\u0000\u0000\u0000\u0000\u0000\u0000\u0000\u0000\u0000\u0000\u0000\u0000\u0000\u0000\u0000\u0000\u0000\u0000\u0000\u0000\u0000\u0000\u0000\u0000\u0000\u0000\u0000\u0000\u0000\u0000\u0000\u0000\u0000\u0000\u0000\u0000\u0000\u0000\u0000\u0000\u0000\u0000\u0000\u0000\u0000\u0000\u0000\u0000\u0000\u0000\u0000\u0000\u0000\u0000\u0000\u0000\u0000\u0000\u0000\u0000\u0000\u0000\u0000\u0000\u0000\u0000\u0000\u0000\u0000\u0000\u0000\u0000\u0000\u0000\u0000\u0000\u0000\u0000\u0000\u0000\u0000\u0000\u0000\u0000\u0000\u0000\u0000\u0000\u0000",
        "\u0000\u0000\u0000\u0000\u0000\u0000\u0000\u0000\u0000\u0000\u0000\u0000\u0000\u0000\u0000\u0000\u0000\u0000\u0000\u0000\u0000\u0000\u0000\u0000\u0000\u0000\u0000\u0000\u0000\u0000\u0000\u0000\u0000\u0000\u0000\u0000\u0000\u0000\u0000\u0000\u0000\u0000\u0000\u0000\u0000\u0000\u0000\u0000\u0000\u0000\u0000\u0000\u0000\u0000\u0000\u0000\u0000\u0000\u0000\u0000\u0000\u0000\u0000\u0000\u0000\u0000\u0000\u0000\u0000\u0000\u0000\u0000\u0000\u0000\u0000\u0000\u0000\u0000\u0000\u0000\u0000\u0000\u0000\u0000\u0000\u0000\u0000\u0000\u0000\u0000\u0000\u0000\u0000\u0000",
