{
  "AcquisitionMatrixPE": 104,
  "AcquisitionNumber": 1,
  "AcquisitionTime": "15:18:14.605000",
  "BandwidthPerPixelPhaseEncode": 13.935,
  "BaseResolution": 104,
  "CoilString": "C:HEA;HEP",
  "ConversionSoftware": "dcm2niix",
  "ConversionSoftwareVersion": "v1.0.20210317",
  "DerivedVendorReportedEchoSpacing": 0.000690017,
  "DeviceSerialNumber": "35450",
  "DwellTime": 2.5e-06,
  "EchoTime": 0.0348,
  "EffectiveEchoSpacing": 0.000690017,
  "FlipAngle": 55,
  "ImageComments": "Unaliased MB8/PE3",
  "ImageOrientationPatientDICOM": [1, -7.09275e-07, 6.09109e-05, -3.49384e-08, 0.999925, 0.0122172],
  "ImageType": [
    "ORIGINAL",
    "PRIMARY",
    "M",
    "MB",
    "ND",
    "MOSAIC"
],
  "ImagingFrequency": 123.235,
  "InPlanePhaseEncodingDirectionDICOM": "COL",
  "InstitutionAddress": "Univeristy Ave. 197,Newark,North East,US,07102-1814",
  "InstitutionName": "RUBIC",
  "InstitutionalDepartmentName": "Department",
  "MRAcquisitionType": "2D",
  "MagneticFieldStrength": 3,
  "Manufacturer": "Siemens",
  "ManufacturersModelName": "TrioTim",
  "Modality": "MR",
  "MultibandAccelerationFactor": 8,
  "PartialFourier": 0.875,
  "PatientPosition": "HFS",
  "PercentPhaseFOV": 100,
  "PercentSampling": 100,
  "PhaseEncodingDirection": "j-",
  "PhaseEncodingSteps": 91,
  "PhaseResolution": 1,
  "PixelBandwidth": 1923,
  "ProcedureStepDescription": "Cole^Michael",
  "ProtocolName": "cmrr_mbep2d_bold_2mm_MB8_Task_8x",
  "PulseSequenceDetails": "%CustomerSeq%\\cmrr_mbep2d_bold",
  "ReceiveCoilName": "32Ch_Head",
  "ReconMatrixPE": 104,
  "RepetitionTime": 0.785,
  "SAR": 0.128079,
  "ScanOptions": "PFP\\FS",
  "ScanningSequence": "EP",
  "SequenceName": "epfid2d1_104",
  "SequenceVariant": "SK\\SS",
  "SeriesDescription": "cmrr_mbep2d_bold_2mm_MB8_Task_8x",
  "SeriesNumber": 19,
  "ShimSetting": [2099, -413, -7265, 647, -79, -106, 56, -46],
  "SliceThickness": 2,
  "SliceTiming": [0, 0.4375, 0.0875, 0.525, 0.175, 0.6125, 0.2625, 0.7, 0.35, 0, 0.4375, 0.0875, 0.525, 0.175, 0.6125, 0.2625, 0.7, 0.35, 0, 0.4375, 0.0875, 0.525, 0.175, 0.6125, 0.2625, 0.7, 0.35, 0, 0.4375, 0.0875, 0.525, 0.175, 0.6125, 0.2625, 0.7, 0.35, 0, 0.4375, 0.0875, 0.525, 0.175, 0.6125, 0.2625, 0.7, 0.35, 0, 0.4375, 0.0875, 0.525, 0.175, 0.6125, 0.2625, 0.7, 0.35, 0, 0.4375, 0.0875, 0.525, 0.175, 0.6125, 0.2625, 0.7, 0.35, 0, 0.4375, 0.0875, 0.525, 0.175, 0.6125, 0.2625, 0.7, 0.35],
  "SoftwareVersions": "syngo MR B19",
  "SpacingBetweenSlices": 2,
  "StationName": "MRC35450",
  "TaskName": "cpro",
  "TotalReadoutTime": 0.0710717,
  "TxRefAmp": 333.307,
  "dcmmeta_affine": [
    [-2.0, -6.987684031400931e-08, 0.00012182994396425784, 101.98607635498047],
    [1.418550823473197e-06, 1.9998507499694824, 0.024434426799416542, -90.06849670410156],
    [0.00012182170758023858, -0.024434426799416542, 1.9998506307601929, -83.30166625976562],
    [0.0, 0.0, 0.0, 1.0]
],
  "dcmmeta_reorient_transform": [
    [0.0, -1.0, 0.0, 103.0],
    [1.0, 0.0, 0.0, 0.0],
    [0.0, 0.0, 1.0, 0.0],
    [0.0, 0.0, 0.0, 1.0]
],
  "dcmmeta_shape": [104, 104, 72, 581],
  "dcmmeta_slice_dim": 2,
  "dcmmeta_version": 0.6,
  "global": {
    "const": {
      "AcquisitionMatrix": [104, 0, 0, 104],
      "AngioFlag": "N",
      "BitsAllocated": 16,
      "BitsStored": 12,
      "Columns": 936,
      "EchoNumbers": 1,
      "EchoTime": 34.8,
      "EchoTrainLength": 1,
      "FlipAngle": 55.0,
      "HighBit": 11,
      "ImageOrientationPatient": [0.99999999814468, -7.09275404e-07, 6.091085282e-05, -3.4938419e-08, 0.99992536706323, 0.01221721340805],
      "ImagePositionPatient": [-933.98603643241, -947.85344323616, -96.033812955638],
      "ImageType": [
        "ORIGINAL",
        "PRIMARY",
        "M",
        "MB",
        "ND",
        "MOSAIC"
],
      "ImagedNucleus": "1H",
      "ImagingFrequency": 123.234834,
      "InPlanePhaseEncodingDirection": "COL",
      "MRAcquisitionType": "2D",
      "MagneticFieldStrength": 3.0,
      "Manufacturer": "SIEMENS",
      "ManufacturerModelName": "TrioTim",
      "Modality": "MR",
      "NumberOfAverages": 1.0,
      "NumberOfPhaseEncodingSteps": 91,
      "PercentPhaseFieldOfView": 100.0,
      "PercentSampling": 100.0,
      "PerformedProcedureStepStartTime": "141440.062000",
      "PhotometricInterpretation": "MONOCHROME2",
      "PixelBandwidth": 1923.0,
      "PixelRepresentation": 0,
      "PixelSpacing": [2.0, 2.0],
      "ProtocolName": "cmrr_mbep2d_bold_2mm_MB8_Task_8x",
      "RepetitionTime": 785.0,
      "Rows": 936,
      "SAR": 0.1280794194856,
      "SamplesPerPixel": 1,
      "ScanOptions": [
        "PFP",
        "FS"
],
      "ScanningSequence": "EP",
      "SequenceName": "epfid2d1_104",
      "SequenceVariant": [
        "SK",
        "SS"
],
      "SeriesDescription": "cmrr_mbep2d_bold_2mm_MB8_Task_8x",
      "SeriesNumber": 19,
      "SeriesTime": "154636.484000",
      "SliceLocation": -84.389623982404,
      "SliceThickness": 2.0,
      "SmallestImagePixelValue": 0,
      "SoftwareVersions": "syngo MR B19",
      "SpacingBetweenSlices": 1.9999999590964,
      "SpecificCharacterSet": "ISO_IR 100",
      "StudyID": "1",
      "StudyTime": "141440.031000",
      "TransmitCoilName": "Body",
      "VariableFlipAngleFlag": "N",
      "WindowCenterWidthExplanation": "Algo1",
      "dBdt": 0.0},
    "slices": {}
  },
  "time": {
    "samples": {
      "AcquisitionNumber": [1, 2, 3, 4, 5, 6, 7, 8, 9, 10, 11, 12, 13, 14, 15, 16, 17, 18, 19, 20, 21, 22, 23, 24, 25, 26, 27, 28, 29, 30, 31, 32, 33, 34, 35, 36, 37, 38, 39, 40, 41, 42, 43, 44, 45, 46, 47, 48, 49, 50, 51, 52, 53, 54, 55, 56, 57, 58, 59, 60, 61, 62, 63, 64, 65, 66, 67, 68, 69, 70, 71, 72, 73, 74, 75, 76, 77, 78, 79, 80, 81, 82, 83, 84, 85, 86, 87, 88, 89, 90, 91, 92, 93, 94, 95, 96, 97, 98, 99, 100, 101, 102, 103, 104, 105, 106, 107, 108, 109, 110, 111, 112, 113, 114, 115, 116, 117, 118, 119, 120, 121, 122, 123, 124, 125, 126, 127, 128, 129, 130, 131, 132, 133, 134, 135, 136, 137, 138, 139, 140, 141, 142, 143, 144, 145, 146, 147, 148, 149, 150, 151, 152, 153, 154, 155, 156, 157, 158, 159, 160, 161, 162, 163, 164, 165, 166, 167, 168, 169, 170, 171, 172, 173, 174, 175, 176, 177, 178, 179, 180, 181, 182, 183, 184, 185, 186, 187, 188, 189, 190, 191, 192, 193, 194, 195, 196, 197, 198, 199, 200, 201, 202, 203, 204, 205, 206, 207, 208, 209, 210, 211, 212, 213, 214, 215, 216, 217, 218, 219, 220, 221, 222, 223, 224, 225, 226, 227, 228, 229, 230, 231, 232, 233, 234, 235, 236, 237, 238, 239, 240, 241, 242, 243, 244, 245, 246, 247, 248, 249, 250, 251, 252, 253, 254, 255, 256, 257, 258, 259, 260, 261, 262, 263, 264, 265, 266, 267, 268, 269, 270, 271, 272, 273, 274, 275, 276, 277, 278, 279, 280, 281, 282, 283, 284, 285, 286, 287, 288, 289, 290, 291, 292, 293, 294, 295, 296, 297, 298, 299, 300, 301, 302, 303, 304, 305, 306, 307, 308, 309, 310, 311, 312, 313, 314, 315, 316, 317, 318, 319, 320, 321, 322, 323, 324, 325, 326, 327, 328, 329, 330, 331, 332, 333, 334, 335, 336, 337, 338, 339, 340, 341, 342, 343, 344, 345, 346, 347, 348, 349, 350, 351, 352, 353, 354, 355, 356, 357, 358, 359, 360, 361, 362, 363, 364, 365, 366, 367, 368, 369, 370, 371, 372, 373, 374, 375, 376, 377, 378, 379, 380, 381, 382, 383, 384, 385, 386, 387, 388, 389, 390, 391, 392, 393, 394, 395, 396, 397, 398, 399, 400, 401, 402, 403, 404, 405, 406, 407, 408, 409, 410, 411, 412, 413, 414, 415, 416, 417, 418, 419, 420, 421, 422, 423, 424, 425, 426, 427, 428, 429, 430, 431, 432, 433, 434, 435, 436, 437, 438, 439, 440, 441, 442, 443, 444, 445, 446, 447, 448, 449, 450, 451, 452, 453, 454, 455, 456, 457, 458, 459, 460, 461, 462, 463, 464, 465, 466, 467, 468, 469, 470, 471, 472, 473, 474, 475, 476, 477, 478, 479, 480, 481, 482, 483, 484, 485, 486, 487, 488, 489, 490, 491, 492, 493, 494, 495, 496, 497, 498, 499, 500, 501, 502, 503, 504, 505, 506, 507, 508, 509, 510, 511, 512, 513, 514, 515, 516, 517, 518, 519, 520, 521, 522, 523, 524, 525, 526, 527, 528, 529, 530, 531, 532, 533, 534, 535, 536, 537, 538, 539, 540, 541, 542, 543, 544, 545, 546, 547, 548, 549, 550, 551, 552, 553, 554, 555, 556, 557, 558, 559, 560, 561, 562, 563, 564, 565, 566, 567, 568, 569, 570, 571, 572, 573, 574, 575, 576, 577, 578, 579, 580, 581],
      "AcquisitionTime": ["151814.605000", "151815.392500", "151816.182500", "151816.970000", "151817.757500", "151818.545000", "151819.335000", "151820.122500", "151820.910000", "151821.697500", "151822.487500", "151823.275000", "151824.062500", "151824.850000", "151825.640000", "151826.427500", "151827.215000", "151828.005000", "151828.792500", "151829.580000", "151830.367500", "151831.157500", "151831.945000", "151832.732500", "151833.520000", "151834.310000", "151835.097500", "151835.885000", "151836.672500", "151837.462500", "151838.250000", "151839.037500", "151839.825000", "151840.615000", "151841.402500", "151842.190000", "151842.977500", "151843.767500", "151844.555000", "151845.342500", "151846.132500", "151846.920000", "151847.707500", "151848.495000", "151849.285000", "151850.072500", "151850.860000", "151851.647500", "151852.437500", "151853.225000", "151854.012500", "151854.800000", "151855.590000", "151856.377500", "151857.165000", "151857.952500", "151858.742500", "151859.530000", "151900.317500", "151901.105000", "151901.895000", "151902.682500", "151903.470000", "151904.260000", "151905.047500", "151905.835000", "151906.622500", "151907.412500", "151908.200000", "151908.987500", "151909.775000", "151910.565000", "151911.352500", "151912.140000", "151912.927500", "151913.717500", "151914.505000", "151915.292500", "151916.080000", "151916.870000", "151917.657500", "151918.445000", "151919.232500", "151920.022500", "151920.810000", "151921.597500", "151922.387500", "151923.175000", "151923.962500", "151924.750000", "151925.540000", "151926.327500", "151927.115000", "151927.902500", "151928.692500", "151929.480000", "151930.267500", "151931.055000", "151931.845000", "151932.632500", "151933.420000", "151934.207500", "151934.997500", "151935.785000", "151936.572500", "151937.360000", "151938.150000", "151938.937500", "151939.725000", "151940.515000", "151941.302500", "151942.090000", "151942.877500", "151943.667500", "151944.455000", "151945.242500", "151946.030000", "151946.820000", "151947.607500", "151948.395000", "151949.182500", "151949.972500", "151950.760000", "151951.547500", "151952.335000", "151953.125000", "151953.912500", "151954.700000", "151955.487500", "151956.277500", "151957.065000", "151957.852500", "151958.642500", "151959.430000", "152000.217500", "152001.005000", "152001.795000", "152002.582500", "152003.370000", "152004.157500", "152004.947500", "152005.735000", "152006.522500", "152007.310000", "152008.100000", "152008.887500", "152009.675000", "152010.462500", "152011.252500", "152012.040000", "152012.827500", "152013.615000", "152014.405000", "152015.192500", "152015.980000", "152016.770000", "152017.557500", "152018.345000", "152019.132500", "152019.922500", "152020.710000", "152021.497500", "152022.285000", "152023.075000", "152023.862500", "152024.650000", "152025.437500", "152026.227500", "152027.015000", "152027.802500", "152028.590000", "152029.380000", "152030.167500", "152030.955000", "152031.745000", "152032.532500", "152033.320000", "152034.107500", "152034.897500", "152035.685000", "152036.472500", "152037.260000", "152038.050000", "152038.837500", "152039.625000", "152040.412500", "152041.202500", "152041.990000", "152042.777500", "152043.565000", "152044.355000", "152045.142500", "152045.930000", "152046.717500", "152047.507500", "152048.295000", "152049.082500", "152049.872500", "152050.660000", "152051.447500", "152052.235000", "152053.025000", "152053.812500", "152054.600000", "152055.387500", "152056.177500", "152056.965000", "152057.752500", "152058.540000", "152059.330000", "152100.117500", "152100.905000", "152101.692500", "152102.482500", "152103.270000", "152104.057500", "152104.845000", "152105.635000", "152106.422500", "152107.210000", "152108.000000", "152108.787500", "152109.575000", "152110.362500", "152111.152500", "152111.940000", "152112.727500", "152113.515000", "152114.305000", "152115.092500", "152115.880000", "152116.667500", "152117.457500", "152118.245000", "152119.032500", "152119.820000", "152120.610000", "152121.397500", "152122.185000", "152122.972500", "152123.762500", "152124.550000", "152125.337500", "152126.127500", "152126.915000", "152127.702500", "152128.490000", "152129.280000", "152130.067500", "152130.855000", "152131.642500", "152132.432500", "152133.220000", "152134.007500", "152134.795000", "152135.585000", "152136.372500", "152137.160000", "152137.947500", "152138.737500", "152139.525000", "152140.312500", "152141.100000", "152141.890000", "152142.677500", "152143.465000", "152144.255000", "152145.042500", "152145.830000", "152146.617500", "152147.407500", "152148.195000", "152148.982500", "152149.770000", "152150.560000", "152151.347500", "152152.135000", "152152.922500", "152153.712500", "152154.500000", "152155.287500", "152156.075000", "152156.865000", "152157.652500", "152158.440000", "152159.227500", "152200.017500", "152200.805000", "152201.592500", "152202.382500", "152203.170000", "152203.957500", "152204.745000", "152205.535000", "152206.322500", "152207.110000", "152207.897500", "152208.687500", "152209.475000", "152210.262500", "152211.050000", "152211.840000", "152212.627500", "152213.415000", "152214.202500", "152214.992500", "152215.780000", "152216.567500", "152217.355000", "152218.145000", "152218.932500", "152219.720000", "152220.510000", "152221.297500", "152222.085000", "152222.872500", "152223.662500", "152224.450000", "152225.237500", "152226.025000", "152226.815000", "152227.602500", "152228.390000", "152229.177500", "152229.967500", "152230.755000", "152231.542500", "152232.330000", "152233.120000", "152233.907500", "152234.695000", "152235.482500", "152236.272500", "152237.060000", "152237.847500", "152238.637500", "152239.425000", "152240.212500", "152241.000000", "152241.790000", "152242.577500", "152243.365000", "152244.152500", "152244.942500", "152245.730000", "152246.517500", "152247.305000", "152248.095000", "152248.882500", "152249.670000", "152250.457500", "152251.247500", "152252.035000", "152252.822500", "152253.610000", "152254.400000", "152255.187500", "152255.975000", "152256.765000", "152257.552500", "152258.340000", "152259.127500", "152259.917500", "152300.705000", "152301.492500", "152302.280000", "152303.070000", "152303.857500", "152304.645000", "152305.432500", "152306.222500", "152307.010000", "152307.797500", "152308.585000", "152309.375000", "152310.162500", "152310.950000", "152311.737500", "152312.527500", "152313.315000", "152314.102500", "152314.892500", "152315.680000", "152316.467500", "152317.255000", "152318.045000", "152318.832500", "152319.620000", "152320.407500", "152321.197500", "152321.985000", "152322.772500", "152323.560000", "152324.350000", "152325.137500", "152325.925000", "152326.712500", "152327.502500", "152328.290000", "152329.077500", "152329.865000", "152330.655000", "152331.442500", "152332.230000", "152333.020000", "152333.807500", "152334.595000", "152335.382500", "152336.172500", "152336.960000", "152337.747500", "152338.535000", "152339.325000", "152340.112500", "152340.900000", "152341.687500", "152342.477500", "152343.265000", "152344.052500", "152344.840000", "152345.630000", "152346.417500", "152347.205000", "152347.995000", "152348.782500", "152349.570000", "152350.357500", "152351.147500", "152351.935000", "152352.722500", "152353.510000", "152354.300000", "152355.087500", "152355.875000", "152356.662500", "152357.452500", "152358.240000", "152359.027500", "152359.815000", "152400.605000", "152401.392500", "152402.180000", "152402.967500", "152403.757500", "152404.545000", "152405.332500", "152406.122500", "152406.910000", "152407.697500", "152408.485000", "152409.275000", "152410.062500", "152410.850000", "152411.637500", "152412.427500", "152413.215000", "152414.002500", "152414.790000", "152415.580000", "152416.367500", "152417.155000", "152417.942500", "152418.732500", "152419.520000", "152420.307500", "152421.095000", "152421.885000", "152422.672500", "152423.460000", "152424.250000", "152425.037500", "152425.825000", "152426.612500", "152427.402500", "152428.190000", "152428.977500", "152429.765000", "152430.555000", "152431.342500", "152432.130000", "152432.917500", "152433.707500", "152434.495000", "152435.282500", "152436.070000", "152436.860000", "152437.647500", "152438.435000", "152439.222500", "152440.012500", "152440.800000", "152441.587500", "152442.377500", "152443.165000", "152443.952500", "152444.740000", "152445.530000", "152446.317500", "152447.105000", "152447.892500", "152448.682500", "152449.470000", "152450.257500", "152451.045000", "152451.835000", "152452.622500", "152453.410000", "152454.197500", "152454.987500", "152455.775000", "152456.562500", "152457.350000", "152458.140000", "152458.927500", "152459.715000", "152500.505000", "152501.292500", "152502.080000", "152502.867500", "152503.657500", "152504.445000", "152505.232500", "152506.020000", "152506.810000", "152507.597500", "152508.385000", "152509.172500", "152509.962500", "152510.750000", "152511.537500", "152512.325000", "152513.115000", "152513.902500", "152514.690000", "152515.477500", "152516.267500", "152517.055000", "152517.842500", "152518.632500", "152519.420000", "152520.207500", "152520.995000", "152521.785000", "152522.572500", "152523.360000", "152524.147500", "152524.937500", "152525.725000", "152526.512500", "152527.300000", "152528.090000", "152528.877500", "152529.665000", "152530.452500", "152531.242500", "152532.030000", "152532.817500", "152533.605000", "152534.395000", "152535.182500", "152535.970000", "152536.760000", "152537.547500", "152538.335000", "152539.122500", "152539.912500", "152540.700000", "152541.487500", "152542.275000", "152543.065000", "152543.852500", "152544.640000", "152545.427500", "152546.217500", "152547.005000", "152547.792500", "152548.580000", "152549.370000", "152550.157500", "152550.945000", "152551.732500"],
      "ContentTime": ["154636.500000", "154636.500000", "154636.500000", "154636.500000", "154636.515000", "154636.515000", "154736.468000", "154736.468000", "154736.484000", "154736.484000", "154736.484000", "154736.484000", "154736.484000", "154736.484000", "154736.484000", "154736.500000", "154736.500000", "154736.500000", "154736.500000", "154736.500000", "154736.500000", "154736.500000", "154736.515000", "154736.515000", "154736.515000", "154736.515000", "154736.515000", "154736.515000", "154736.515000", "154736.531000", "154736.531000", "154736.531000", "154736.531000", "154736.531000", "154836.468000", "154836.468000", "154836.484000", "154836.484000", "154836.484000", "154836.484000", "154836.484000", "154836.484000", "154836.500000", "154836.500000", "154836.500000", "154836.500000", "154836.500000", "154836.500000", "154836.500000", "154836.515000", "154836.515000", "154836.515000", "154836.515000", "154836.515000", "154836.515000", "154836.515000", "154836.531000", "154836.531000", "154836.531000", "154836.531000", "154836.531000", "154936.468000", "154936.468000", "154936.484000", "154936.484000", "154936.484000", "154936.484000", "154936.484000", "154936.484000", "154936.500000", "154936.500000", "154936.500000", "154936.500000", "154936.500000", "154936.515000", "154936.515000", "154936.515000", "154936.515000", "154936.515000", "154936.515000", "154936.515000", "154936.531000", "154936.531000", "154936.531000", "154936.531000", "154936.531000", "154936.531000", "154936.531000", "155036.468000", "155036.468000", "155036.484000", "155036.484000", "155036.484000", "155036.484000", "155036.484000", "155036.484000", "155036.484000", "155036.500000", "155036.500000", "155036.500000", "155036.500000", "155036.500000", "155036.500000", "155036.500000", "155036.515000", "155036.515000", "155036.515000", "155036.515000", "155036.515000", "155036.515000", "155036.515000", "155036.531000", "155036.531000", "155036.531000", "155036.531000", "155036.531000", "155136.468000", "155136.468000", "155136.484000", "155136.484000", "155136.484000", "155136.484000", "155136.484000", "155136.484000", "155136.484000", "155136.500000", "155136.500000", "155136.500000", "155136.500000", "155136.500000", "155136.500000", "155136.500000", "155136.515000", "155136.515000", "155136.515000", "155136.515000", "155136.515000", "155136.515000", "155136.515000", "155136.531000", "155136.531000", "155136.531000", "155136.531000", "155136.531000", "155236.468000", "155236.468000", "155236.484000", "155236.484000", "155236.484000", "155236.484000", "155236.484000", "155236.484000", "155236.484000", "155236.500000", "155236.500000", "155236.500000", "155236.500000", "155236.500000", "155236.500000", "155236.500000", "155236.515000", "155236.515000", "155236.515000", "155236.515000", "155236.515000", "155236.515000", "155236.515000", "155236.531000", "155236.531000", "155236.546000", "155236.546000", "155336.468000", "155336.468000", "155336.484000", "155336.484000", "155336.484000", "155336.484000", "155336.484000", "155336.484000", "155336.484000", "155336.500000", "155336.500000", "155336.500000", "155336.500000", "155336.500000", "155336.500000", "155336.500000", "155336.515000", "155336.515000", "155336.515000", "155336.515000", "155336.515000", "155336.515000", "155336.531000", "155336.531000", "155336.531000", "155336.531000", "155336.531000", "155336.546000", "155436.468000", "155436.468000", "155436.484000", "155436.484000", "155436.484000", "155436.484000", "155436.484000", "155436.484000", "155436.484000", "155436.500000", "155436.500000", "155436.500000", "155436.500000", "155436.500000", "155436.500000", "155436.500000", "155436.515000", "155436.515000", "155436.515000", "155436.515000", "155436.515000", "155436.531000", "155436.531000", "155436.531000", "155436.531000", "155436.531000", "155436.531000", "155536.468000", "155536.468000", "155536.484000", "155536.484000", "155536.484000", "155536.484000", "155536.484000", "155536.484000", "155536.500000", "155536.500000", "155536.500000", "155536.500000", "155536.500000", "155536.500000", "155536.500000", "155536.515000", "155536.515000", "155536.515000", "155536.515000", "155536.515000", "155536.515000", "155536.515000", "155536.531000", "155536.531000", "155536.531000", "155536.531000", "155536.531000", "155536.531000", "155556.468000", "155556.468000", "155556.484000", "155556.484000", "155556.484000", "155556.484000", "155556.484000", "155556.484000", "155556.484000", "155656.468000", "155656.468000", "155656.484000", "155656.484000", "155656.484000", "155656.484000", "155656.484000", "155656.484000", "155656.484000", "155656.500000", "155656.500000", "155656.500000", "155656.500000", "155656.500000", "155656.500000", "155656.500000", "155656.515000", "155656.515000", "155656.515000", "155656.515000", "155656.515000", "155656.515000", "155656.531000", "155656.531000", "155656.531000", "155656.531000", "155656.531000", "155756.468000", "155756.468000", "155756.484000", "155756.484000", "155756.484000", "155756.484000", "155756.484000", "155756.484000", "155756.484000", "155756.500000", "155756.500000", "155756.500000", "155756.500000", "155756.500000", "155756.500000", "155756.500000", "155756.515000", "155756.515000", "155756.515000", "155756.515000", "155756.515000", "155756.515000", "155756.515000", "155756.531000", "155756.531000", "155756.531000", "155756.531000", "155756.531000", "155856.468000", "155856.468000", "155856.484000", "155856.484000", "155856.484000", "155856.484000", "155856.484000", "155856.484000", "155856.484000", "155856.500000", "155856.500000", "155856.500000", "155856.500000", "155856.500000", "155856.500000", "155856.500000", "155856.515000", "155856.515000", "155856.515000", "155856.515000", "155856.515000", "155856.515000", "155856.515000", "155856.531000", "155856.531000", "155856.531000", "155856.531000", "155956.468000", "155956.468000", "155956.484000", "155956.484000", "155956.484000", "155956.484000", "155956.484000", "155956.484000", "155956.484000", "155956.500000", "155956.500000", "155956.500000", "155956.500000", "155956.500000", "155956.500000", "155956.500000", "155956.515000", "155956.515000", "155956.515000", "155956.515000", "155956.515000", "155956.515000", "155956.515000", "155956.531000", "155956.531000", "155956.531000", "155956.531000", "155956.531000", "160056.468000", "160056.468000", "160056.484000", "160056.484000", "160056.484000", "160056.484000", "160056.484000", "160056.484000", "160056.500000", "160056.500000", "160056.500000", "160056.500000", "160056.500000", "160056.500000", "160056.500000", "160056.515000", "160056.515000", "160056.515000", "160056.515000", "160056.515000", "160056.515000", "160056.531000", "160056.531000", "160056.531000", "160056.531000", "160056.531000", "160056.531000", "160156.468000", "160156.484000", "160156.484000", "160156.484000", "160156.484000", "160156.484000", "160156.484000", "160156.484000", "160156.500000", "160156.500000", "160156.500000", "160156.500000", "160156.500000", "160156.500000", "160156.500000", "160156.515000", "160156.515000", "160156.515000", "160156.515000", "160156.515000", "160156.515000", "160156.531000", "160156.531000", "160156.531000", "160156.531000", "160156.531000", "160156.531000", "160156.546000", "160256.468000", "160256.468000", "160256.484000", "160256.484000", "160256.484000", "160256.484000", "160256.484000", "160256.484000", "160256.484000", "160256.500000", "160256.500000", "160256.500000", "160256.500000", "160256.500000", "160256.500000", "160256.515000", "160256.515000", "160256.515000", "160256.515000", "160256.515000", "160256.515000", "160256.531000", "160256.531000", "160256.531000", "160256.531000", "160256.531000", "160256.531000", "160356.468000", "160356.468000", "160356.484000", "160356.484000", "160356.484000", "160356.484000", "160356.484000", "160356.484000", "160356.484000", "160356.500000", "160356.500000", "160356.500000", "160356.500000", "160356.500000", "160356.500000", "160356.500000", "160356.515000", "160356.515000", "160356.515000", "160356.515000", "160356.515000", "160356.515000", "160356.531000", "160356.531000", "160356.531000", "160356.531000", "160356.531000", "160356.531000", "160456.468000", "160456.468000", "160456.484000", "160456.484000", "160456.484000", "160456.484000", "160456.484000", "160456.484000", "160456.484000", "160456.500000", "160456.500000", "160456.500000", "160456.500000", "160456.500000", "160456.500000", "160456.515000", "160456.515000", "160456.515000", "160456.515000", "160456.515000", "160456.515000", "160456.515000", "160456.531000", "160456.531000", "160456.531000", "160456.531000", "160456.531000", "160556.468000", "160556.468000", "160556.484000", "160556.484000", "160556.484000", "160556.484000", "160556.484000", "160556.484000", "160556.484000", "160556.500000", "160556.500000", "160556.500000", "160556.500000", "160556.500000", "160556.500000", "160556.515000", "160556.515000", "160556.515000", "160556.515000", "160556.515000", "160556.515000", "160556.515000", "160556.531000", "160556.531000", "160556.531000", "160556.531000", "160556.531000", "160656.468000", "160656.468000", "160656.484000", "160656.484000", "160656.484000", "160656.484000", "160656.484000", "160656.484000", "160656.484000", "160656.500000", "160656.500000", "160656.500000", "160656.500000", "160656.500000", "160656.500000", "160656.515000", "160656.515000", "160656.515000", "160656.515000", "160656.515000", "160656.515000", "160656.515000", "160656.531000", "160656.531000", "160656.531000", "160656.531000", "160656.531000", "160656.531000", "160730.062000", "160730.062000", "160730.062000", "160730.062000", "160730.062000", "160730.062000", "160730.078000", "160730.078000", "160730.078000", "160730.078000", "160730.078000", "160730.078000", "160730.078000", "160730.093000", "160730.093000", "160730.093000"],
