{
  "AcquisitionMatrixPE": 104,
  "AcquisitionNumber": 1,
  "AcquisitionTime": "16:33:23.740000",
  "BandwidthPerPixelPhaseEncode": 13.935,
  "BaseResolution": 104,
  "CoilString": "C:HEA;HEP",
  "ConversionSoftware": "dcm2niix",
  "ConversionSoftwareVersion": "v1.0.20210317",
  "DerivedVendorReportedEchoSpacing": 0.000690017,
  "DeviceSerialNumber": "35450",
  "DwellTime": 2.5e-06,
  "EchoTime": 0.0348,
  "EffectiveEchoSpacing": 0.000690017,
  "FlipAngle": 55,
  "ImageComments": "Unaliased MB8/PE3 (remote)",
  "ImageOrientationPatientDICOM": [0.999874, 0.00174098, 0.0157718, -2.87278e-08, 0.993963, -0.109718],
  "ImageType": [
    "ORIGINAL",
    "PRIMARY",
    "M",
    "MB",
    "ND",
    "MOSAIC"
],
  "ImagingFrequency": 123.235,
  "InPlanePhaseEncodingDirectionDICOM": "COL",
  "InstitutionAddress": "Univeristy Ave. 197,Newark,North East,US,07102-1814",
  "InstitutionName": "RUBIC",
  "InstitutionalDepartmentName": "Department",
  "MRAcquisitionType": "2D",
  "MagneticFieldStrength": 3,
  "Manufacturer": "Siemens",
  "ManufacturersModelName": "TrioTim",
  "Modality": "MR",
  "MultibandAccelerationFactor": 8,
  "PartialFourier": 0.875,
  "PatientPosition": "HFS",
  "PercentPhaseFOV": 100,
  "PercentSampling": 100,
  "PhaseEncodingDirection": "j-",
  "PhaseEncodingSteps": 91,
  "PhaseResolution": 1,
  "PixelBandwidth": 1923,
  "ProcedureStepDescription": "Cole^Michael",
  "ProtocolName": "cmrr_mbep2d_bold_2mm_MB8_Task_8x",
  "PulseSequenceDetails": "%CustomerSeq%\\cmrr_mbep2d_bold",
  "ReceiveCoilName": "32Ch_Head",
  "ReconMatrixPE": 104,
  "RepetitionTime": 0.785,
  "SAR": 0.128784,
  "ScanOptions": "PFP\\FS",
  "ScanningSequence": "EP",
  "SequenceName": "epfid2d1_104",
  "SequenceVariant": "SK\\SS",
  "SeriesDescription": "cmrr_mbep2d_bold_2mm_MB8_Task_8x",
  "SeriesNumber": 25,
  "ShimSetting": [2093, -472, -7297, 678, -4, -438, -102, -40],
  "SliceThickness": 2,
  "SliceTiming": [0, 0.4375, 0.0875, 0.525, 0.175, 0.6125, 0.2625, 0.7, 0.35, 0, 0.4375, 0.0875, 0.525, 0.175, 0.6125, 0.2625, 0.7, 0.35, 0, 0.4375, 0.0875, 0.525, 0.175, 0.6125, 0.2625, 0.7, 0.35, 0, 0.4375, 0.0875, 0.525, 0.175, 0.6125, 0.2625, 0.7, 0.35, 0, 0.4375, 0.0875, 0.525, 0.175, 0.6125, 0.2625, 0.7, 0.35, 0, 0.4375, 0.0875, 0.525, 0.175, 0.6125, 0.2625, 0.7, 0.35, 0, 0.4375, 0.0875, 0.525, 0.175, 0.6125, 0.2625, 0.7, 0.35, 0, 0.4375, 0.0875, 0.525, 0.175, 0.6125, 0.2625, 0.7, 0.35],
  "SoftwareVersions": "syngo MR B19",
  "SpacingBetweenSlices": 2,
  "StationName": "MRC35450",
  "TaskName": "cpro",
  "TotalReadoutTime": 0.0710717,
  "TxRefAmp": 355.164,
  "dcmmeta_affine": [
    [-1.9997482299804688, -5.745553366409695e-08, 0.03173511102795601, 106.8963394165039],
    [-0.003481964347884059, 1.9879255294799805, -0.21940800547599792, -80.91150665283203],
    [0.031543511897325516, 0.21943563222885132, 1.9876753091812134, -100.34929656982422],
    [0.0, 0.0, 0.0, 1.0]
],
  "dcmmeta_reorient_transform": [
    [0.0, -1.0, 0.0, 103.0],
    [1.0, 0.0, 0.0, 0.0],
    [0.0, 0.0, 1.0, 0.0],
    [0.0, 0.0, 0.0, 1.0]
],
  "dcmmeta_shape": [104, 104, 72, 581],
  "dcmmeta_slice_dim": 2,
  "dcmmeta_version": 0.6,
  "global": {
    "const": {
      "AcquisitionMatrix": [104, 0, 0, 104],
      "AngioFlag": "N",
      "BitsAllocated": 16,
      "BitsStored": 12,
      "Columns": 936,
      "EchoNumbers": 1,
      "EchoTime": 34.8,
      "EchoTrainLength": 1,
      "FlipAngle": 55.0,
      "HighBit": 11,
      "ImageOrientationPatient": [0.9998741024139, 0.0017409821262, 0.01577175650466, -2.8727766e-08, 0.99396277621545, -0.1097178175962],
      "ImagePositionPatient": [-938.79156347407, -952.27035522844, 0.41569854547998],
      "ImageType": [
        "ORIGINAL",
        "PRIMARY",
        "M",
        "MB",
        "ND",
        "MOSAIC"
],
      "ImagedNucleus": "1H",
      "ImagingFrequency": 123.234947,
      "InPlanePhaseEncodingDirection": "COL",
      "MRAcquisitionType": "2D",
      "MagneticFieldStrength": 3.0,
      "Manufacturer": "SIEMENS",
      "ManufacturerModelName": "TrioTim",
      "Modality": "MR",
      "NumberOfAverages": 1.0,
      "NumberOfPhaseEncodingSteps": 91,
      "PercentPhaseFieldOfView": 100.0,
      "PercentSampling": 100.0,
      "PerformedProcedureStepStartTime": "142802.015000",
      "PhotometricInterpretation": "MONOCHROME2",
      "PixelBandwidth": 1923.0,
      "PixelRepresentation": 0,
      "PixelSpacing": [2.0, 2.0],
      "ProtocolName": "cmrr_mbep2d_bold_2mm_MB8_Task_8x",
      "RepetitionTime": 785.0,
      "Rows": 936,
      "SAR": 0.12878351201447,
      "SamplesPerPixel": 1,
      "ScanOptions": [
        "PFP",
        "FS"
],
      "ScanningSequence": "EP",
      "SequenceName": "epfid2d1_104",
      "SequenceVariant": [
        "SK",
        "SS"
],
      "SeriesDescription": "cmrr_mbep2d_bold_2mm_MB8_Task_8x",
      "SeriesNumber": 25,
      "SeriesTime": "163342.578000",
      "SliceLocation": -89.158406567778,
      "SliceThickness": 2.0,
      "SmallestImagePixelValue": 0,
      "SoftwareVersions": "syngo MR B19",
      "SpacingBetweenSlices": 1.9999999737706,
      "SpecificCharacterSet": "ISO_IR 100",
      "StudyID": "1",
      "StudyTime": "142801.984000",
      "TransmitCoilName": "Body",
      "VariableFlipAngleFlag": "N",
      "WindowCenterWidthExplanation": "Algo1",
      "dBdt": 0.0},
    "slices": {}
  },
  "time": {
    "samples": {
      "AcquisitionNumber": [1, 2, 3, 4, 5, 6, 7, 8, 9, 10, 11, 12, 13, 14, 15, 16, 17, 18, 19, 20, 21, 22, 23, 24, 25, 26, 27, 28, 29, 30, 31, 32, 33, 34, 35, 36, 37, 38, 39, 40, 41, 42, 43, 44, 45, 46, 47, 48, 49, 50, 51, 52, 53, 54, 55, 56, 57, 58, 59, 60, 61, 62, 63, 64, 65, 66, 67, 68, 69, 70, 71, 72, 73, 74, 75, 76, 77, 78, 79, 80, 81, 82, 83, 84, 85, 86, 87, 88, 89, 90, 91, 92, 93, 94, 95, 96, 97, 98, 99, 100, 101, 102, 103, 104, 105, 106, 107, 108, 109, 110, 111, 112, 113, 114, 115, 116, 117, 118, 119, 120, 121, 122, 123, 124, 125, 126, 127, 128, 129, 130, 131, 132, 133, 134, 135, 136, 137, 138, 139, 140, 141, 142, 143, 144, 145, 146, 147, 148, 149, 150, 151, 152, 153, 154, 155, 156, 157, 158, 159, 160, 161, 162, 163, 164, 165, 166, 167, 168, 169, 170, 171, 172, 173, 174, 175, 176, 177, 178, 179, 180, 181, 182, 183, 184, 185, 186, 187, 188, 189, 190, 191, 192, 193, 194, 195, 196, 197, 198, 199, 200, 201, 202, 203, 204, 205, 206, 207, 208, 209, 210, 211, 212, 213, 214, 215, 216, 217, 218, 219, 220, 221, 222, 223, 224, 225, 226, 227, 228, 229, 230, 231, 232, 233, 234, 235, 236, 237, 238, 239, 240, 241, 242, 243, 244, 245, 246, 247, 248, 249, 250, 251, 252, 253, 254, 255, 256, 257, 258, 259, 260, 261, 262, 263, 264, 265, 266, 267, 268, 269, 270, 271, 272, 273, 274, 275, 276, 277, 278, 279, 280, 281, 282, 283, 284, 285, 286, 287, 288, 289, 290, 291, 292, 293, 294, 295, 296, 297, 298, 299, 300, 301, 302, 303, 304, 305, 306, 307, 308, 309, 310, 311, 312, 313, 314, 315, 316, 317, 318, 319, 320, 321, 322, 323, 324, 325, 326, 327, 328, 329, 330, 331, 332, 333, 334, 335, 336, 337, 338, 339, 340, 341, 342, 343, 344, 345, 346, 347, 348, 349, 350, 351, 352, 353, 354, 355, 356, 357, 358, 359, 360, 361, 362, 363, 364, 365, 366, 367, 368, 369, 370, 371, 372, 373, 374, 375, 376, 377, 378, 379, 380, 381, 382, 383, 384, 385, 386, 387, 388, 389, 390, 391, 392, 393, 394, 395, 396, 397, 398, 399, 400, 401, 402, 403, 404, 405, 406, 407, 408, 409, 410, 411, 412, 413, 414, 415, 416, 417, 418, 419, 420, 421, 422, 423, 424, 425, 426, 427, 428, 429, 430, 431, 432, 433, 434, 435, 436, 437, 438, 439, 440, 441, 442, 443, 444, 445, 446, 447, 448, 449, 450, 451, 452, 453, 454, 455, 456, 457, 458, 459, 460, 461, 462, 463, 464, 465, 466, 467, 468, 469, 470, 471, 472, 473, 474, 475, 476, 477, 478, 479, 480, 481, 482, 483, 484, 485, 486, 487, 488, 489, 490, 491, 492, 493, 494, 495, 496, 497, 498, 499, 500, 501, 502, 503, 504, 505, 506, 507, 508, 509, 510, 511, 512, 513, 514, 515, 516, 517, 518, 519, 520, 521, 522, 523, 524, 525, 526, 527, 528, 529, 530, 531, 532, 533, 534, 535, 536, 537, 538, 539, 540, 541, 542, 543, 544, 545, 546, 547, 548, 549, 550, 551, 552, 553, 554, 555, 556, 557, 558, 559, 560, 561, 562, 563, 564, 565, 566, 567, 568, 569, 570, 571, 572, 573, 574, 575, 576, 577, 578, 579, 580, 581],
      "AcquisitionTime": ["163323.740000", "163324.527500", "163325.315000", "163326.105000", "163326.892500", "163327.680000", "163328.467500", "163329.257500", "163330.045000", "163330.832500", "163331.622500", "163332.410000", "163333.197500", "163333.985000", "163334.775000", "163335.562500", "163336.350000", "163337.137500", "163337.927500", "163338.715000", "163339.502500", "163340.290000", "163341.080000", "163341.867500", "163342.655000", "163343.442500", "163344.232500", "163345.020000", "163345.807500", "163346.595000", "163347.385000", "163348.172500", "163348.960000", "163349.750000", "163350.537500", "163351.325000", "163352.112500", "163352.902500", "163353.690000", "163354.477500", "163355.265000", "163356.055000", "163356.842500", "163357.630000", "163358.417500", "163359.207500", "163359.995000", "163400.782500", "163401.570000", "163402.360000", "163403.147500", "163403.935000", "163404.725000", "163405.512500", "163406.300000", "163407.087500", "163407.877500", "163408.665000", "163409.452500", "163410.240000", "163411.030000", "163411.817500", "163412.605000", "163413.392500", "163414.182500", "163414.970000", "163415.757500", "163416.545000", "163417.335000", "163418.122500", "163418.910000", "163419.697500", "163420.487500", "163421.275000", "163422.062500", "163422.852500", "163423.640000", "163424.427500", "163425.215000", "163426.005000", "163426.792500", "163427.580000", "163428.367500", "163429.157500", "163429.945000", "163430.732500", "163431.520000", "163432.310000", "163433.097500", "163433.885000", "163434.672500", "163435.462500", "163436.250000", "163437.037500", "163437.825000", "163438.615000", "163439.402500", "163440.190000", "163440.980000", "163441.767500", "163442.555000", "163443.342500", "163444.132500", "163444.920000", "163445.707500", "163446.495000", "163447.285000", "163448.072500", "163448.860000", "163449.647500", "163450.437500", "163451.225000", "163452.012500", "163452.800000", "163453.590000", "163454.377500", "163455.165000", "163455.952500", "163456.742500", "163457.530000", "163458.317500", "163459.107500", "163459.895000", "163500.682500", "163501.470000", "163502.260000", "163503.047500", "163503.835000", "163504.622500", "163505.412500", "163506.200000", "163506.987500", "163507.775000", "163508.565000", "163509.352500", "163510.140000", "163510.927500", "163511.717500", "163512.505000", "163513.292500", "163514.080000", "163514.870000", "163515.657500", "163516.445000", "163517.235000", "163518.022500", "163518.810000", "163519.597500", "163520.387500", "163521.175000", "163521.962500", "163522.750000", "163523.540000", "163524.327500", "163525.115000", "163525.902500", "163526.692500", "163527.480000", "163528.267500", "163529.055000", "163529.845000", "163530.632500", "163531.420000", "163532.207500", "163532.997500", "163533.785000", "163534.572500", "163535.362500", "163536.150000", "163536.937500", "163537.725000", "163538.515000", "163539.302500", "163540.090000", "163540.877500", "163541.667500", "163542.455000", "163543.242500", "163544.030000", "163544.820000", "163545.607500", "163546.395000", "163547.182500", "163547.972500", "163548.760000", "163549.547500", "163550.335000", "163551.125000", "163551.912500", "163552.700000", "163553.490000", "163554.277500", "163555.065000", "163555.852500", "163556.642500", "163557.430000", "163558.217500", "163559.005000", "163559.795000", "163600.582500", "163601.370000", "163602.157500", "163602.947500", "163603.735000", "163604.522500", "163605.310000", "163606.100000", "163606.887500", "163607.675000", "163608.462500", "163609.252500", "163610.040000", "163610.827500", "163611.617500", "163612.405000", "163613.192500", "163613.980000", "163614.770000", "163615.557500", "163616.345000", "163617.132500", "163617.922500", "163618.710000", "163619.497500", "163620.285000", "163621.075000", "163621.862500", "163622.650000", "163623.437500", "163624.227500", "163625.015000", "163625.802500", "163626.590000", "163627.380000", "163628.167500", "163628.955000", "163629.745000", "163630.532500", "163631.320000", "163632.107500", "163632.897500", "163633.685000", "163634.472500", "163635.260000", "163636.050000", "163636.837500", "163637.625000", "163638.412500", "163639.202500", "163639.990000", "163640.777500", "163641.565000", "163642.355000", "163643.142500", "163643.930000", "163644.717500", "163645.507500", "163646.295000", "163647.082500", "163647.872500", "163648.660000", "163649.447500", "163650.235000", "163651.025000", "163651.812500", "163652.600000", "163653.387500", "163654.177500", "163654.965000", "163655.752500", "163656.540000", "163657.330000", "163658.117500", "163658.905000", "163659.692500", "163700.482500", "163701.270000", "163702.057500", "163702.845000", "163703.635000", "163704.422500", "163705.210000", "163706.000000", "163706.787500", "163707.575000", "163708.362500", "163709.152500", "163709.940000", "163710.727500", "163711.515000", "163712.305000", "163713.092500", "163713.880000", "163714.667500", "163715.457500", "163716.245000", "163717.032500", "163717.820000", "163718.610000", "163719.397500", "163720.185000", "163720.975000", "163721.762500", "163722.550000", "163723.337500", "163724.127500", "163724.915000", "163725.702500", "163726.490000", "163727.280000", "163728.067500", "163728.855000", "163729.642500", "163730.432500", "163731.220000", "163732.007500", "163732.795000", "163733.585000", "163734.372500", "163735.160000", "163735.947500", "163736.737500", "163737.525000", "163738.312500", "163739.102500", "163739.890000", "163740.677500", "163741.465000", "163742.255000", "163743.042500", "163743.830000", "163744.617500", "163745.407500", "163746.195000", "163746.982500", "163747.770000", "163748.560000", "163749.347500", "163750.135000", "163750.922500", "163751.712500", "163752.500000", "163753.287500", "163754.075000", "163754.865000", "163755.652500", "163756.440000", "163757.230000", "163758.017500", "163758.805000", "163759.592500", "163800.382500", "163801.170000", "163801.957500", "163802.745000", "163803.535000", "163804.322500", "163805.110000", "163805.897500", "163806.687500", "163807.475000", "163808.262500", "163809.050000", "163809.840000", "163810.627500", "163811.415000", "163812.202500", "163812.992500", "163813.780000", "163814.567500", "163815.357500", "163816.145000", "163816.932500", "163817.720000", "163818.510000", "163819.297500", "163820.085000", "163820.872500", "163821.662500", "163822.450000", "163823.237500", "163824.025000", "163824.815000", "163825.602500", "163826.390000", "163827.177500", "163827.967500", "163828.755000", "163829.542500", "163830.330000", "163831.120000", "163831.907500", "163832.695000", "163833.485000", "163834.272500", "163835.060000", "163835.847500", "163836.637500", "163837.425000", "163838.212500", "163839.000000", "163839.790000", "163840.577500", "163841.365000", "163842.152500", "163842.942500", "163843.730000", "163844.517500", "163845.305000", "163846.095000", "163846.882500", "163847.670000", "163848.457500", "163849.247500", "163850.035000", "163850.822500", "163851.612500", "163852.400000", "163853.187500", "163853.975000", "163854.765000", "163855.552500", "163856.340000", "163857.127500", "163857.917500", "163858.705000", "163859.492500", "163900.280000", "163901.070000", "163901.857500", "163902.645000", "163903.432500", "163904.222500", "163905.010000", "163905.797500", "163906.585000", "163907.375000", "163908.162500", "163908.950000", "163909.740000", "163910.527500", "163911.315000", "163912.102500", "163912.892500", "163913.680000", "163914.467500", "163915.255000", "163916.045000", "163916.832500", "163917.620000", "163918.407500", "163919.197500", "163919.985000", "163920.772500", "163921.560000", "163922.350000", "163923.137500", "163923.925000", "163924.712500", "163925.502500", "163926.290000", "163927.077500", "163927.867500", "163928.655000", "163929.442500", "163930.230000", "163931.020000", "163931.807500", "163932.595000", "163933.382500", "163934.172500", "163934.960000", "163935.747500", "163936.535000", "163937.325000", "163938.112500", "163938.900000", "163939.687500", "163940.477500", "163941.265000", "163942.052500", "163942.840000", "163943.630000", "163944.417500", "163945.205000", "163945.995000", "163946.782500", "163947.570000", "163948.357500", "163949.147500", "163949.935000", "163950.722500", "163951.510000", "163952.300000", "163953.087500", "163953.875000", "163954.662500", "163955.452500", "163956.240000", "163957.027500", "163957.815000", "163958.605000", "163959.392500", "164000.180000", "164000.967500", "164001.757500", "164002.545000", "164003.332500", "164004.122500", "164004.910000", "164005.697500", "164006.485000", "164007.275000", "164008.062500", "164008.850000", "164009.637500", "164010.427500", "164011.215000", "164012.002500", "164012.790000", "164013.580000", "164014.367500", "164015.155000", "164015.942500", "164016.732500", "164017.520000", "164018.307500", "164019.095000", "164019.885000", "164020.672500", "164021.460000", "164022.250000", "164023.037500", "164023.825000", "164024.612500", "164025.402500", "164026.190000", "164026.977500", "164027.765000", "164028.555000", "164029.342500", "164030.130000", "164030.917500", "164031.707500", "164032.495000", "164033.282500", "164034.070000", "164034.860000", "164035.647500", "164036.435000", "164037.225000", "164038.012500", "164038.800000", "164039.587500", "164040.377500", "164041.165000", "164041.952500", "164042.740000", "164043.530000", "164044.317500", "164045.105000", "164045.892500", "164046.682500", "164047.470000", "164048.257500", "164049.045000", "164049.835000", "164050.622500", "164051.410000", "164052.197500", "164052.987500", "164053.775000", "164054.562500", "164055.352500", "164056.140000", "164056.927500", "164057.715000", "164058.505000", "164059.292500", "164100.080000", "164100.867500"],
      "ContentTime": ["163342.593000", "163342.593000", "163342.593000", "163342.593000", "163342.593000", "163342.593000", "163342.593000", "163342.609000", "163342.609000", "163342.609000", "163342.609000", "163342.609000", "163342.609000", "163342.609000", "163342.625000", "163342.625000", "163342.625000", "163342.625000", "163342.625000", "163342.640000", "163342.640000", "163402.562000", "163402.562000", "163402.562000", "163402.562000", "163402.578000", "163402.578000", "163402.578000", "163402.578000", "163402.578000", "163402.578000", "163402.593000", "163402.593000", "163402.593000", "163402.593000", "163402.593000", "163402.593000", "163402.593000", "163402.593000", "163402.609000", "163402.609000", "163402.609000", "163402.609000", "163402.609000", "163402.609000", "163402.625000", "163422.562000", "163422.562000", "163422.562000", "163422.562000", "163422.578000", "163422.578000", "163422.578000", "163422.578000", "163422.578000", "163422.578000", "163422.578000", "163422.593000", "163422.593000", "163422.593000", "163422.593000", "163422.593000", "163422.593000", "163422.609000", "163422.609000", "163422.609000", "163422.609000", "163422.609000", "163422.609000", "163422.625000", "163422.625000", "163422.625000", "163442.562000", "163442.562000", "163442.562000", "163442.578000", "163442.578000", "163442.578000", "163442.578000", "163442.578000", "163442.578000", "163442.593000", "163442.593000", "163442.593000", "163442.593000", "163442.593000", "163442.593000", "163442.609000", "163442.609000", "163442.609000", "163442.609000", "163442.609000", "163442.609000", "163442.609000", "163442.625000", "163442.625000", "163442.625000", "163502.562000", "163502.562000", "163502.562000", "163502.562000", "163502.578000", "163502.578000", "163502.578000", "163502.578000", "163502.578000", "163502.578000", "163502.578000", "163502.593000", "163502.593000", "163502.593000", "163502.593000", "163502.593000", "163502.593000", "163502.609000", "163502.609000", "163502.609000", "163502.609000", "163502.609000", "163502.609000", "163502.609000", "163502.625000", "163502.625000", "163522.562000", "163522.562000", "163522.562000", "163522.562000", "163522.578000", "163522.578000", "163522.578000", "163522.578000", "163522.578000", "163522.578000", "163522.578000", "163522.593000", "163522.593000", "163522.593000", "163522.593000", "163522.593000", "163522.593000", "163522.593000", "163522.609000", "163522.609000", "163522.609000", "163522.609000", "163522.609000", "163522.609000", "163522.609000", "163542.562000", "163542.562000", "163542.562000", "163542.578000", "163542.578000", "163542.578000", "163542.578000", "163542.578000", "163542.578000", "163542.593000", "163542.593000", "163542.593000", "163542.593000", "163542.593000", "163542.609000", "163542.609000", "163542.609000", "163542.609000", "163542.609000", "163542.609000", "163542.609000", "163542.625000", "163542.625000", "163542.625000", "163542.625000", "163542.625000", "163602.562000", "163602.562000", "163602.562000", "163602.578000", "163602.578000", "163602.578000", "163602.578000", "163602.578000", "163602.578000", "163602.578000", "163602.578000", "163602.593000", "163602.593000", "163602.593000", "163602.593000", "163602.593000", "163602.593000", "163602.609000", "163602.609000", "163602.609000", "163602.609000", "163602.609000", "163602.609000", "163602.625000", "163602.625000", "163622.562000", "163622.562000", "163622.562000", "163622.562000", "163622.578000", "163622.578000", "163622.578000", "163622.578000", "163622.578000", "163622.578000", "163622.578000", "163622.593000", "163622.593000", "163622.593000", "163622.593000", "163622.593000", "163622.593000", "163622.593000", "163622.609000", "163622.609000", "163622.609000", "163622.609000", "163622.609000", "163622.609000", "163622.625000", "163622.625000", "163642.562000", "163642.562000", "163642.562000", "163642.578000", "163642.578000", "163642.578000", "163642.578000", "163642.578000", "163642.578000", "163642.578000", "163642.578000", "163642.593000", "163642.593000", "163642.593000", "163642.593000", "163642.593000", "163642.593000", "163642.593000", "163642.609000", "163642.609000", "163642.609000", "163642.609000", "163642.609000", "163642.609000", "163642.625000", "163702.562000", "163702.562000", "163702.562000", "163702.578000", "163702.578000", "163702.578000", "163702.578000", "163702.578000", "163702.578000", "163702.578000", "163702.593000", "163702.593000", "163702.593000", "163702.593000", "163702.593000", "163702.593000", "163702.609000", "163702.609000", "163702.609000", "163702.609000", "163702.625000", "163702.625000", "163702.625000", "163702.625000", "163702.625000", "163702.625000", "163722.562000", "163722.562000", "163722.562000", "163722.578000", "163722.578000", "163722.578000", "163722.578000", "163722.578000", "163722.578000", "163722.578000", "163722.593000", "163722.593000", "163722.593000", "163722.593000", "163722.593000", "163722.593000", "163722.593000", "163722.609000", "163722.609000", "163722.609000", "163722.609000", "163722.625000", "163722.625000", "163722.625000", "163722.625000", "163742.562000", "163742.562000", "163742.562000", "163742.578000", "163742.578000", "163742.578000", "163742.578000", "163742.578000", "163742.578000", "163742.578000", "163742.593000", "163742.593000", "163742.593000", "163742.593000", "163742.593000", "163742.593000", "163742.593000", "163742.609000", "163742.609000", "163742.609000", "163742.609000", "163742.609000", "163742.609000", "163742.609000", "163742.625000", "163742.625000", "163802.562000", "163802.562000", "163802.562000", "163802.578000", "163802.578000", "163802.578000", "163802.578000", "163802.578000", "163802.578000", "163802.578000", "163802.593000", "163802.593000", "163802.593000", "163802.593000", "163802.593000", "163802.593000", "163802.593000", "163802.609000", "163802.609000", "163802.609000", "163802.609000", "163802.609000", "163802.609000", "163802.609000", "163802.625000", "163822.562000", "163822.562000", "163822.562000", "163822.562000", "163822.578000", "163822.578000", "163822.578000", "163822.578000", "163822.578000", "163822.578000", "163822.578000", "163822.593000", "163822.593000", "163822.593000", "163822.593000", "163822.593000", "163822.593000", "163822.593000", "163822.609000", "163822.609000", "163822.609000", "163822.609000", "163822.609000", "163822.609000", "163822.609000", "163822.625000", "163842.562000", "163842.562000", "163842.562000", "163842.578000", "163842.578000", "163842.578000", "163842.578000", "163842.578000", "163842.578000", "163842.578000", "163842.578000", "163842.593000", "163842.593000", "163842.593000", "163842.593000", "163842.593000", "163842.593000", "163842.609000", "163842.609000", "163842.609000", "163842.609000", "163842.625000", "163842.625000", "163842.625000", "163842.625000", "163902.562000", "163902.562000", "163902.562000", "163902.578000", "163902.578000", "163902.578000", "163902.578000", "163902.578000", "163902.578000", "163902.578000", "163902.593000", "163902.593000", "163902.593000", "163902.593000", "163902.593000", "163902.593000", "163902.593000", "163902.609000", "163902.609000", "163902.609000", "163902.609000", "163902.609000", "163902.609000", "163902.609000", "163902.625000", "163922.562000", "163922.562000", "163922.562000", "163922.562000", "163922.578000", "163922.578000", "163922.578000", "163922.578000", "163922.578000", "163922.578000", "163922.578000", "163922.593000", "163922.593000", "163922.593000", "163922.593000", "163922.593000", "163922.593000", "163922.609000", "163922.609000", "163922.609000", "163922.609000", "163922.609000", "163922.609000", "163922.609000", "163922.625000", "163922.625000", "163942.562000", "163942.562000", "163942.562000", "163942.578000", "163942.578000", "163942.578000", "163942.578000", "163942.578000", "163942.578000", "163942.578000", "163942.593000", "163942.593000", "163942.593000", "163942.593000", "163942.593000", "163942.593000", "163942.593000", "163942.609000", "163942.609000", "163942.609000", "163942.609000", "163942.609000", "163942.609000", "163942.609000", "163942.625000", "164002.562000", "164002.562000", "164002.562000", "164002.578000", "164002.578000", "164002.578000", "164002.578000", "164002.578000", "164002.578000", "164002.578000", "164002.593000", "164002.593000", "164002.593000", "164002.593000", "164002.593000", "164002.593000", "164002.593000", "164002.609000", "164002.609000", "164002.609000", "164002.609000", "164002.609000", "164002.609000", "164002.609000", "164002.625000", "164002.625000", "164022.562000", "164022.562000", "164022.562000", "164022.578000", "164022.578000", "164022.578000", "164022.578000", "164022.578000", "164022.578000", "164022.578000", "164022.593000", "164022.593000", "164022.593000", "164022.593000", "164022.593000", "164022.593000", "164022.593000", "164022.609000", "164022.609000", "164022.609000", "164022.609000", "164022.609000", "164022.609000", "164022.609000", "164022.625000", "164042.562000", "164042.562000", "164042.562000", "164042.562000", "164042.578000", "164042.578000", "164042.578000", "164042.578000", "164042.578000", "164042.578000", "164042.593000", "164042.593000", "164042.593000", "164042.593000", "164042.593000", "164042.593000", "164042.593000", "164042.609000", "164042.609000", "164042.609000", "164042.609000", "164042.609000", "164042.609000", "164042.609000", "164042.625000", "164042.625000", "164101.953000", "164101.953000", "164101.968000", "164101.968000", "164101.968000", "164101.968000", "164101.968000", "164101.968000", "164101.968000", "164101.984000", "164101.984000", "164101.984000", "164101.984000", "164101.984000", "164101.984000", "164102.000000", "164102.000000", "164102.000000", "164102.000000", "164102.000000", "164102.000000", "164102.000000", "164102.015000", "164102.015000", "164102.015000"],
      "DataSetTrailingPadding": [
        "\u0000\u0000\u0000\u0000\u0000\u0000\u0000\u0000\u0000\u0000\u0000\u0000\u0000\u0000\u0000\u0000\u0000\u0000\u0000\u0000\u0000\u0000\u0000\u0000\u0000\u0000\u0000\u0000\u0000\u0000\u0000\u0000\u0000\u0000\u0000\u0000\u0000\u0000\u0000\u0000\u0000\u0000\u0000\u0000\u0000\u0000\u0000\u0000\u0000\u0000\u0000\u0000\u0000\u0000\u0000\u0000\u0000\u0000\u0000\u0000\u0000\u0000\u0000\u0000\u0000\u0000\u0000\u0000\u0000\u0000\u0000\u0000\u0000\u0000\u0000\u0000\u0000\u0000\u0000\u0000\u0000\u0000",
        "\u0000\u0000\u0000\u0000\u0000\u0000\u0000\u0000\u0000\u0000\u0000\u0000\u0000\u0000\u0000\u0000\u0000\u0000\u0000\u0000\u0000\u0000\u0000\u0000\u0000\u0000\u0000\u0000\u0000\u0000\u0000\u0000\u0000\u0000\u0000\u0000\u0000\u0000\u0000\u0000\u0000\u0000\u0000\u0000\u0000\u0000\u0000\u0000\u0000\u0000\u0000\u0000\u0000\u0000\u0000\u0000\u0000\u0000\u0000\u0000\u0000\u0000\u0000\u0000\u0000\u0000\u0000\u0000\u0000\u0000\u0000\u0000\u0000\u0000\u0000\u0000\u0000\u0000\u0000\u0000\u0000\u0000",
        "\u0000\u0000\u0000\u0000\u0000\u0000\u0000\u0000\u0000\u0000\u0000\u0000\u0000\u0000\u0000\u0000\u0000\u0000\u0000\u0000\u0000\u0000\u0000\u0000\u0000\u0000\u0000\u0000\u0000\u0000\u0000\u0000\u0000\u0000\u0000\u0000\u0000\u0000\u0000\u0000\u0000\u0000\u0000\u0000\u0000\u0000\u0000\u0000\u0000\u0000\u0000\u0000\u0000\u0000\u0000\u0000\u0000\u0000\u0000\u0000\u0000\u0000\u0000\u0000\u0000\u0000\u0000\u0000\u0000\u0000\u0000\u0000\u0000\u0000\u0000\u0000\u0000\u0000\u0000\u0000",
