{
  "AcquisitionMatrixPE": 104,
  "AcquisitionNumber": 1,
  "AcquisitionTime": "16:00:48.707500",
  "BandwidthPerPixelPhaseEncode": 13.935,
  "BaseResolution": 104,
  "CoilString": "C:HEA;HEP",
  "ConversionSoftware": "dcm2niix",
  "ConversionSoftwareVersion": "v1.0.20210317",
  "DerivedVendorReportedEchoSpacing": 0.000690017,
  "DeviceSerialNumber": "35450",
  "DwellTime": 2.5e-06,
  "EchoTime": 0.0348,
  "EffectiveEchoSpacing": 0.000690017,
  "FlipAngle": 55,
  "ImageComments": "Unaliased MB8/PE3 (remote)",
  "ImageOrientationPatientDICOM": [0.999874, 0.00174098, 0.0157718, -2.87278e-08, 0.993963, -0.109718],
  "ImageType": [
    "ORIGINAL",
    "PRIMARY",
    "M",
    "MB",
    "ND",
    "MOSAIC"
],
  "ImagingFrequency": 123.235,
  "InPlanePhaseEncodingDirectionDICOM": "COL",
  "InstitutionAddress": "Univeristy Ave. 197,Newark,North East,US,07102-1814",
  "InstitutionName": "RUBIC",
  "InstitutionalDepartmentName": "Department",
  "MRAcquisitionType": "2D",
  "MagneticFieldStrength": 3,
  "Manufacturer": "Siemens",
  "ManufacturersModelName": "TrioTim",
  "Modality": "MR",
  "MultibandAccelerationFactor": 8,
  "PartialFourier": 0.875,
  "PatientPosition": "HFS",
  "PercentPhaseFOV": 100,
  "PercentSampling": 100,
  "PhaseEncodingDirection": "j-",
  "PhaseEncodingSteps": 91,
  "PhaseResolution": 1,
  "PixelBandwidth": 1923,
  "ProcedureStepDescription": "Cole^Michael",
  "ProtocolName": "cmrr_mbep2d_bold_2mm_MB8_Task_8x",
  "PulseSequenceDetails": "%CustomerSeq%\\cmrr_mbep2d_bold",
  "ReceiveCoilName": "32Ch_Head",
  "ReconMatrixPE": 104,
  "RepetitionTime": 0.785,
  "SAR": 0.128784,
  "ScanOptions": "PFP\\FS",
  "ScanningSequence": "EP",
  "SequenceName": "epfid2d1_104",
  "SequenceVariant": "SK\\SS",
  "SeriesDescription": "cmrr_mbep2d_bold_2mm_MB8_Task_8x",
  "SeriesNumber": 17,
  "ShimSetting": [2093, -472, -7297, 678, -4, -438, -102, -40],
  "SliceThickness": 2,
  "SliceTiming": [0, 0.4375, 0.0875, 0.525, 0.175, 0.6125, 0.2625, 0.7, 0.35, 0, 0.4375, 0.0875, 0.525, 0.175, 0.6125, 0.2625, 0.7, 0.35, 0, 0.4375, 0.0875, 0.525, 0.175, 0.6125, 0.2625, 0.7, 0.35, 0, 0.4375, 0.0875, 0.525, 0.175, 0.6125, 0.2625, 0.7, 0.35, 0, 0.4375, 0.0875, 0.525, 0.175, 0.6125, 0.2625, 0.7, 0.35, 0, 0.4375, 0.0875, 0.525, 0.175, 0.6125, 0.2625, 0.7, 0.35, 0, 0.4375, 0.0875, 0.525, 0.175, 0.6125, 0.2625, 0.7, 0.35, 0, 0.4375, 0.0875, 0.525, 0.175, 0.6125, 0.2625, 0.7, 0.35],
  "SoftwareVersions": "syngo MR B19",
  "SpacingBetweenSlices": 2,
  "StationName": "MRC35450",
  "TaskName": "cpro",
  "TotalReadoutTime": 0.0710717,
  "TxRefAmp": 355.164,
  "dcmmeta_affine": [
    [-1.9997482299804688, -5.745553366409695e-08, 0.03173511102795601, 106.8963394165039],
    [-0.003481964347884059, 1.9879255294799805, -0.21940800547599792, -80.91150665283203],
    [0.031543511897325516, 0.21943563222885132, 1.9876753091812134, -100.34929656982422],
    [0.0, 0.0, 0.0, 1.0]
],
  "dcmmeta_reorient_transform": [
    [0.0, -1.0, 0.0, 103.0],
    [1.0, 0.0, 0.0, 0.0],
    [0.0, 0.0, 1.0, 0.0],
    [0.0, 0.0, 0.0, 1.0]
],
  "dcmmeta_shape": [104, 104, 72, 581],
  "dcmmeta_slice_dim": 2,
  "dcmmeta_version": 0.6,
  "global": {
    "const": {
      "AcquisitionMatrix": [104, 0, 0, 104],
      "AngioFlag": "N",
      "BitsAllocated": 16,
      "BitsStored": 12,
      "Columns": 936,
      "EchoNumbers": 1,
      "EchoTime": 34.8,
      "EchoTrainLength": 1,
      "FlipAngle": 55.0,
      "HighBit": 11,
      "ImageOrientationPatient": [0.9998741024139, 0.0017409821262, 0.01577175650466, -2.8727766e-08, 0.99396277621545, -0.1097178175962],
      "ImagePositionPatient": [-938.79156347407, -952.27035522844, 0.41569854547998],
      "ImageType": [
        "ORIGINAL",
        "PRIMARY",
        "M",
        "MB",
        "ND",
        "MOSAIC"
],
      "ImagedNucleus": "1H",
      "ImagingFrequency": 123.234947,
      "InPlanePhaseEncodingDirection": "COL",
      "MRAcquisitionType": "2D",
      "MagneticFieldStrength": 3.0,
      "Manufacturer": "SIEMENS",
      "ManufacturerModelName": "TrioTim",
      "Modality": "MR",
      "NumberOfAverages": 1.0,
      "NumberOfPhaseEncodingSteps": 91,
      "PercentPhaseFieldOfView": 100.0,
      "PercentSampling": 100.0,
      "PerformedProcedureStepStartTime": "142802.015000",
      "PhotometricInterpretation": "MONOCHROME2",
      "PixelBandwidth": 1923.0,
      "PixelRepresentation": 0,
      "PixelSpacing": [2.0, 2.0],
      "ProtocolName": "cmrr_mbep2d_bold_2mm_MB8_Task_8x",
      "RepetitionTime": 785.0,
      "Rows": 936,
      "SAR": 0.12878351201447,
      "SamplesPerPixel": 1,
      "ScanOptions": [
        "PFP",
        "FS"
],
      "ScanningSequence": "EP",
      "SequenceName": "epfid2d1_104",
      "SequenceVariant": [
        "SK",
        "SS"
],
      "SeriesDescription": "cmrr_mbep2d_bold_2mm_MB8_Task_8x",
      "SeriesNumber": 17,
      "SeriesTime": "160119.593000",
      "SliceLocation": -89.158406567778,
      "SliceThickness": 2.0,
      "SmallestImagePixelValue": 0,
      "SoftwareVersions": "syngo MR B19",
      "SpacingBetweenSlices": 1.9999999737706,
      "SpecificCharacterSet": "ISO_IR 100",
      "StudyID": "1",
      "StudyTime": "142801.984000",
      "TransmitCoilName": "Body",
      "VariableFlipAngleFlag": "N",
      "WindowCenterWidthExplanation": "Algo1",
      "dBdt": 0.0},
    "slices": {}
  },
  "time": {
    "samples": {
      "AcquisitionNumber": [1, 2, 3, 4, 5, 6, 7, 8, 9, 10, 11, 12, 13, 14, 15, 16, 17, 18, 19, 20, 21, 22, 23, 24, 25, 26, 27, 28, 29, 30, 31, 32, 33, 34, 35, 36, 37, 38, 39, 40, 41, 42, 43, 44, 45, 46, 47, 48, 49, 50, 51, 52, 53, 54, 55, 56, 57, 58, 59, 60, 61, 62, 63, 64, 65, 66, 67, 68, 69, 70, 71, 72, 73, 74, 75, 76, 77, 78, 79, 80, 81, 82, 83, 84, 85, 86, 87, 88, 89, 90, 91, 92, 93, 94, 95, 96, 97, 98, 99, 100, 101, 102, 103, 104, 105, 106, 107, 108, 109, 110, 111, 112, 113, 114, 115, 116, 117, 118, 119, 120, 121, 122, 123, 124, 125, 126, 127, 128, 129, 130, 131, 132, 133, 134, 135, 136, 137, 138, 139, 140, 141, 142, 143, 144, 145, 146, 147, 148, 149, 150, 151, 152, 153, 154, 155, 156, 157, 158, 159, 160, 161, 162, 163, 164, 165, 166, 167, 168, 169, 170, 171, 172, 173, 174, 175, 176, 177, 178, 179, 180, 181, 182, 183, 184, 185, 186, 187, 188, 189, 190, 191, 192, 193, 194, 195, 196, 197, 198, 199, 200, 201, 202, 203, 204, 205, 206, 207, 208, 209, 210, 211, 212, 213, 214, 215, 216, 217, 218, 219, 220, 221, 222, 223, 224, 225, 226, 227, 228, 229, 230, 231, 232, 233, 234, 235, 236, 237, 238, 239, 240, 241, 242, 243, 244, 245, 246, 247, 248, 249, 250, 251, 252, 253, 254, 255, 256, 257, 258, 259, 260, 261, 262, 263, 264, 265, 266, 267, 268, 269, 270, 271, 272, 273, 274, 275, 276, 277, 278, 279, 280, 281, 282, 283, 284, 285, 286, 287, 288, 289, 290, 291, 292, 293, 294, 295, 296, 297, 298, 299, 300, 301, 302, 303, 304, 305, 306, 307, 308, 309, 310, 311, 312, 313, 314, 315, 316, 317, 318, 319, 320, 321, 322, 323, 324, 325, 326, 327, 328, 329, 330, 331, 332, 333, 334, 335, 336, 337, 338, 339, 340, 341, 342, 343, 344, 345, 346, 347, 348, 349, 350, 351, 352, 353, 354, 355, 356, 357, 358, 359, 360, 361, 362, 363, 364, 365, 366, 367, 368, 369, 370, 371, 372, 373, 374, 375, 376, 377, 378, 379, 380, 381, 382, 383, 384, 385, 386, 387, 388, 389, 390, 391, 392, 393, 394, 395, 396, 397, 398, 399, 400, 401, 402, 403, 404, 405, 406, 407, 408, 409, 410, 411, 412, 413, 414, 415, 416, 417, 418, 419, 420, 421, 422, 423, 424, 425, 426, 427, 428, 429, 430, 431, 432, 433, 434, 435, 436, 437, 438, 439, 440, 441, 442, 443, 444, 445, 446, 447, 448, 449, 450, 451, 452, 453, 454, 455, 456, 457, 458, 459, 460, 461, 462, 463, 464, 465, 466, 467, 468, 469, 470, 471, 472, 473, 474, 475, 476, 477, 478, 479, 480, 481, 482, 483, 484, 485, 486, 487, 488, 489, 490, 491, 492, 493, 494, 495, 496, 497, 498, 499, 500, 501, 502, 503, 504, 505, 506, 507, 508, 509, 510, 511, 512, 513, 514, 515, 516, 517, 518, 519, 520, 521, 522, 523, 524, 525, 526, 527, 528, 529, 530, 531, 532, 533, 534, 535, 536, 537, 538, 539, 540, 541, 542, 543, 544, 545, 546, 547, 548, 549, 550, 551, 552, 553, 554, 555, 556, 557, 558, 559, 560, 561, 562, 563, 564, 565, 566, 567, 568, 569, 570, 571, 572, 573, 574, 575, 576, 577, 578, 579, 580, 581],
      "AcquisitionTime": ["160048.707500", "160049.495000", "160050.282500", "160051.070000", "160051.860000", "160052.647500", "160053.435000", "160054.222500", "160055.012500", "160055.800000", "160056.587500", "160057.375000", "160058.165000", "160058.952500", "160059.740000", "160100.527500", "160101.317500", "160102.105000", "160102.892500", "160103.682500", "160104.470000", "160105.257500", "160106.045000", "160106.835000", "160107.622500", "160108.410000", "160109.197500", "160109.987500", "160110.775000", "160111.562500", "160112.350000", "160113.140000", "160113.927500", "160114.715000", "160115.502500", "160116.292500", "160117.080000", "160117.867500", "160118.655000", "160119.445000", "160120.232500", "160121.020000", "160121.810000", "160122.597500", "160123.385000", "160124.172500", "160124.962500", "160125.750000", "160126.537500", "160127.325000", "160128.115000", "160128.902500", "160129.690000", "160130.477500", "160131.267500", "160132.055000", "160132.842500", "160133.630000", "160134.420000", "160135.207500", "160135.995000", "160136.785000", "160137.572500", "160138.360000", "160139.147500", "160139.937500", "160140.725000", "160141.512500", "160142.300000", "160143.090000", "160143.877500", "160144.665000", "160145.452500", "160146.242500", "160147.030000", "160147.817500", "160148.605000", "160149.395000", "160150.182500", "160150.970000", "160151.757500", "160152.547500", "160153.335000", "160154.122500", "160154.912500", "160155.700000", "160156.487500", "160157.275000", "160158.065000", "160158.852500", "160159.640000", "160200.427500", "160201.217500", "160202.005000", "160202.792500", "160203.580000", "160204.370000", "160205.157500", "160205.945000", "160206.732500", "160207.522500", "160208.310000", "160209.097500", "160209.885000", "160210.675000", "160211.462500", "160212.250000", "160213.040000", "160213.827500", "160214.615000", "160215.402500", "160216.192500", "160216.980000", "160217.767500", "160218.555000", "160219.345000", "160220.132500", "160220.920000", "160221.707500", "160222.497500", "160223.285000", "160224.072500", "160224.860000", "160225.650000", "160226.437500", "160227.225000", "160228.012500", "160228.802500", "160229.590000", "160230.377500", "160231.167500", "160231.955000", "160232.742500", "160233.530000", "160234.320000", "160235.107500", "160235.895000", "160236.682500", "160237.472500", "160238.260000", "160239.047500", "160239.835000", "160240.625000", "160241.412500", "160242.200000", "160242.987500", "160243.777500", "160244.565000", "160245.352500", "160246.140000", "160246.930000", "160247.717500", "160248.505000", "160249.295000", "160250.082500", "160250.870000", "160251.657500", "160252.447500", "160253.235000", "160254.022500", "160254.810000", "160255.600000", "160256.387500", "160257.175000", "160257.962500", "160258.752500", "160259.540000", "160300.327500", "160301.115000", "160301.905000", "160302.692500", "160303.480000", "160304.267500", "160305.057500", "160305.845000", "160306.632500", "160307.422500", "160308.210000", "160308.997500", "160309.785000", "160310.575000", "160311.362500", "160312.150000", "160312.937500", "160313.727500", "160314.515000", "160315.302500", "160316.090000", "160316.880000", "160317.667500", "160318.455000", "160319.242500", "160320.032500", "160320.820000", "160321.607500", "160322.395000", "160323.185000", "160323.972500", "160324.760000", "160325.550000", "160326.337500", "160327.125000", "160327.912500", "160328.702500", "160329.490000", "160330.277500", "160331.065000", "160331.855000", "160332.642500", "160333.430000", "160334.217500", "160335.007500", "160335.795000", "160336.582500", "160337.370000", "160338.160000", "160338.947500", "160339.735000", "160340.522500", "160341.312500", "160342.100000", "160342.887500", "160343.677500", "160344.465000", "160345.252500", "160346.040000", "160346.830000", "160347.617500", "160348.405000", "160349.192500", "160349.982500", "160350.770000", "160351.557500", "160352.345000", "160353.135000", "160353.922500", "160354.710000", "160355.497500", "160356.287500", "160357.075000", "160357.862500", "160358.650000", "160359.440000", "160400.227500", "160401.015000", "160401.805000", "160402.592500", "160403.380000", "160404.167500", "160404.957500", "160405.745000", "160406.532500", "160407.320000", "160408.110000", "160408.897500", "160409.685000", "160410.472500", "160411.262500", "160412.050000", "160412.837500", "160413.625000", "160414.415000", "160415.202500", "160415.990000", "160416.777500", "160417.567500", "160418.355000", "160419.142500", "160419.932500", "160420.720000", "160421.507500", "160422.295000", "160423.085000", "160423.872500", "160424.660000", "160425.447500", "160426.237500", "160427.025000", "160427.812500", "160428.600000", "160429.390000", "160430.177500", "160430.965000", "160431.752500", "160432.542500", "160433.330000", "160434.117500", "160434.905000", "160435.695000", "160436.482500", "160437.270000", "160438.060000", "160438.847500", "160439.635000", "160440.422500", "160441.212500", "160442.000000", "160442.787500", "160443.575000", "160444.365000", "160445.152500", "160445.940000", "160446.727500", "160447.517500", "160448.305000", "160449.092500", "160449.880000", "160450.670000", "160451.457500", "160452.245000", "160453.035000", "160453.822500", "160454.610000", "160455.397500", "160456.187500", "160456.975000", "160457.762500", "160458.550000", "160459.340000", "160500.127500", "160500.915000", "160501.702500", "160502.492500", "160503.280000", "160504.067500", "160504.855000", "160505.645000", "160506.432500", "160507.220000", "160508.007500", "160508.797500", "160509.585000", "160510.372500", "160511.162500", "160511.950000", "160512.737500", "160513.525000", "160514.315000", "160515.102500", "160515.890000", "160516.677500", "160517.467500", "160518.255000", "160519.042500", "160519.830000", "160520.620000", "160521.407500", "160522.195000", "160522.982500", "160523.772500", "160524.560000", "160525.347500", "160526.135000", "160526.925000", "160527.712500", "160528.500000", "160529.290000", "160530.077500", "160530.865000", "160531.652500", "160532.442500", "160533.230000", "160534.017500", "160534.805000", "160535.595000", "160536.382500", "160537.170000", "160537.957500", "160538.747500", "160539.535000", "160540.322500", "160541.110000", "160541.900000", "160542.687500", "160543.475000", "160544.262500", "160545.052500", "160545.840000", "160546.627500", "160547.417500", "160548.205000", "160548.992500", "160549.780000", "160550.570000", "160551.357500", "160552.145000", "160552.932500", "160553.722500", "160554.510000", "160555.297500", "160556.085000", "160556.875000", "160557.662500", "160558.450000", "160559.237500", "160600.027500", "160600.815000", "160601.602500", "160602.390000", "160603.180000", "160603.967500", "160604.755000", "160605.545000", "160606.332500", "160607.120000", "160607.907500", "160608.697500", "160609.485000", "160610.272500", "160611.060000", "160611.850000", "160612.637500", "160613.425000", "160614.212500", "160615.002500", "160615.790000", "160616.577500", "160617.365000", "160618.155000", "160618.942500", "160619.730000", "160620.517500", "160621.307500", "160622.095000", "160622.882500", "160623.672500", "160624.460000", "160625.247500", "160626.035000", "160626.825000", "160627.612500", "160628.400000", "160629.187500", "160629.977500", "160630.765000", "160631.552500", "160632.340000", "160633.130000", "160633.917500", "160634.705000", "160635.492500", "160636.282500", "160637.070000", "160637.857500", "160638.645000", "160639.435000", "160640.222500", "160641.010000", "160641.800000", "160642.587500", "160643.375000", "160644.162500", "160644.952500", "160645.740000", "160646.527500", "160647.315000", "160648.105000", "160648.892500", "160649.680000", "160650.467500", "160651.257500", "160652.045000", "160652.832500", "160653.620000", "160654.410000", "160655.197500", "160655.985000", "160656.772500", "160657.562500", "160658.350000", "160659.137500", "160659.927500", "160700.715000", "160701.502500", "160702.290000", "160703.080000", "160703.867500", "160704.655000", "160705.442500", "160706.232500", "160707.020000", "160707.807500", "160708.595000", "160709.385000", "160710.172500", "160710.960000", "160711.747500", "160712.537500", "160713.325000", "160714.112500", "160714.900000", "160715.690000", "160716.477500", "160717.265000", "160718.055000", "160718.842500", "160719.630000", "160720.417500", "160721.207500", "160721.995000", "160722.782500", "160723.570000", "160724.360000", "160725.147500", "160725.935000", "160726.722500", "160727.512500", "160728.300000", "160729.087500", "160729.875000", "160730.665000", "160731.452500", "160732.240000", "160733.027500", "160733.817500", "160734.605000", "160735.392500", "160736.182500", "160736.970000", "160737.757500", "160738.545000", "160739.335000", "160740.122500", "160740.910000", "160741.697500", "160742.487500", "160743.275000", "160744.062500", "160744.850000", "160745.640000", "160746.427500", "160747.215000", "160748.002500", "160748.792500", "160749.580000", "160750.367500", "160751.155000", "160751.945000", "160752.732500", "160753.520000", "160754.310000", "160755.097500", "160755.885000", "160756.672500", "160757.462500", "160758.250000", "160759.037500", "160759.825000", "160800.615000", "160801.402500", "160802.190000", "160802.977500", "160803.767500", "160804.555000", "160805.342500", "160806.130000", "160806.920000", "160807.707500", "160808.495000", "160809.285000", "160810.072500", "160810.860000", "160811.647500", "160812.437500", "160813.225000", "160814.012500", "160814.800000", "160815.590000", "160816.377500", "160817.165000", "160817.952500", "160818.742500", "160819.530000", "160820.317500", "160821.105000", "160821.895000", "160822.682500", "160823.470000", "160824.257500", "160825.047500", "160825.835000"],
      "ContentTime": ["160119.593000", "160119.593000", "160119.593000", "160119.593000", "160119.593000", "160119.593000", "160119.609000", "160119.609000", "160119.609000", "160119.609000", "160119.609000", "160119.609000", "160119.609000", "160119.625000", "160119.625000", "160119.625000", "160119.625000", "160119.625000", "160119.625000", "160119.625000", "160119.640000", "160119.640000", "160119.640000", "160119.640000", "160119.640000", "160119.640000", "160119.656000", "160119.656000", "160119.656000", "160119.656000", "160119.656000", "160119.656000", "160119.656000", "160119.671000", "160119.671000", "160119.671000", "160139.562000", "160139.562000", "160139.562000", "160139.562000", "160139.578000", "160139.578000", "160139.578000", "160139.578000", "160139.578000", "160139.578000", "160139.578000", "160139.593000", "160139.593000", "160139.593000", "160139.593000", "160139.593000", "160139.593000", "160139.593000", "160139.609000", "160139.609000", "160139.609000", "160139.609000", "160139.609000", "160139.609000", "160139.609000", "160159.562000", "160159.562000", "160159.562000", "160159.562000", "160159.578000", "160159.578000", "160159.578000", "160159.578000", "160159.578000", "160159.593000", "160159.593000", "160159.593000", "160159.593000", "160159.593000", "160159.593000", "160159.609000", "160159.609000", "160159.609000", "160159.609000", "160159.609000", "160159.609000", "160159.609000", "160159.625000", "160159.625000", "160159.625000", "160159.625000", "160219.562000", "160219.562000", "160219.562000", "160219.578000", "160219.578000", "160219.578000", "160219.578000", "160219.578000", "160219.578000", "160219.578000", "160219.593000", "160219.593000", "160219.593000", "160219.593000", "160219.593000", "160219.593000", "160219.609000", "160219.609000", "160219.609000", "160219.609000", "160219.609000", "160219.609000", "160219.625000", "160219.625000", "160219.625000", "160219.625000", "160239.562000", "160239.562000", "160239.562000", "160239.578000", "160239.578000", "160239.578000", "160239.578000", "160239.578000", "160239.578000", "160239.578000", "160239.593000", "160239.593000", "160239.593000", "160239.593000", "160239.593000", "160239.593000", "160239.593000", "160239.609000", "160239.609000", "160239.609000", "160239.609000", "160239.609000", "160239.609000", "160239.609000", "160239.625000", "160259.562000", "160259.562000", "160259.562000", "160259.578000", "160259.578000", "160259.578000", "160259.578000", "160259.578000", "160259.578000", "160259.593000", "160259.593000", "160259.593000", "160259.593000", "160259.593000", "160259.593000", "160259.593000", "160259.609000", "160259.609000", "160259.609000", "160259.609000", "160259.609000", "160259.609000", "160259.625000", "160259.625000", "160259.625000", "160259.625000", "160319.562000", "160319.562000", "160319.562000", "160319.578000", "160319.578000", "160319.578000", "160319.578000", "160319.578000", "160319.578000", "160319.578000", "160319.593000", "160319.593000", "160319.593000", "160319.593000", "160319.593000", "160319.593000", "160319.593000", "160319.609000", "160319.609000", "160319.609000", "160319.609000", "160319.609000", "160319.625000", "160319.625000", "160319.625000", "160339.562000", "160339.562000", "160339.562000", "160339.562000", "160339.578000", "160339.578000", "160339.578000", "160339.578000", "160339.578000", "160339.578000", "160339.593000", "160339.593000", "160339.593000", "160339.593000", "160339.593000", "160339.593000", "160339.593000", "160339.609000", "160339.609000", "160339.609000", "160339.609000", "160339.609000", "160339.625000", "160339.625000", "160339.625000", "160339.625000", "160359.562000", "160359.562000", "160359.562000", "160359.578000", "160359.578000", "160359.578000", "160359.578000", "160359.578000", "160359.578000", "160359.578000", "160359.593000", "160359.593000", "160359.593000", "160359.593000", "160359.593000", "160359.609000", "160359.609000", "160359.609000", "160359.609000", "160359.609000", "160359.609000", "160359.609000", "160359.625000", "160359.625000", "160359.625000", "160419.562000", "160419.562000", "160419.562000", "160419.562000", "160419.578000", "160419.578000", "160419.578000", "160419.578000", "160419.578000", "160419.578000", "160419.578000", "160419.593000", "160419.593000", "160419.593000", "160419.593000", "160419.593000", "160419.593000", "160419.593000", "160419.609000", "160419.609000", "160419.609000", "160419.609000", "160419.609000", "160419.609000", "160419.625000", "160419.625000", "160439.562000", "160439.562000", "160439.562000", "160439.562000", "160439.578000", "160439.578000", "160439.578000", "160439.578000", "160439.578000", "160439.578000", "160439.593000", "160439.593000", "160439.593000", "160439.593000", "160439.593000", "160439.593000", "160439.593000", "160439.609000", "160439.609000", "160439.609000", "160439.609000", "160439.609000", "160439.609000", "160439.609000", "160439.625000", "160459.562000", "160459.562000", "160459.562000", "160459.578000", "160459.578000", "160459.578000", "160459.578000", "160459.578000", "160459.578000", "160459.578000", "160459.593000", "160459.593000", "160459.593000", "160459.593000", "160459.593000", "160459.593000", "160459.593000", "160459.609000", "160459.609000", "160459.609000", "160459.609000", "160459.625000", "160459.625000", "160459.625000", "160459.625000", "160459.625000", "160519.562000", "160519.562000", "160519.562000", "160519.578000", "160519.578000", "160519.578000", "160519.578000", "160519.578000", "160519.593000", "160519.593000", "160519.593000", "160519.593000", "160519.593000", "160519.593000", "160519.609000", "160519.609000", "160519.609000", "160519.609000", "160519.609000", "160519.625000", "160519.625000", "160519.625000", "160519.625000", "160519.625000", "160519.625000", "160539.562000", "160539.562000", "160539.562000", "160539.578000", "160539.578000", "160539.578000", "160539.578000", "160539.578000", "160539.593000", "160539.593000", "160539.593000", "160539.593000", "160539.593000", "160539.593000", "160539.609000", "160539.609000", "160539.609000", "160539.609000", "160539.609000", "160539.609000", "160539.625000", "160539.625000", "160539.625000", "160539.625000", "160539.625000", "160559.562000", "160559.562000", "160559.562000", "160559.578000", "160559.578000", "160559.578000", "160559.578000", "160559.593000", "160559.593000", "160559.593000", "160559.593000", "160559.593000", "160559.593000", "160559.593000", "160559.609000", "160559.609000", "160559.609000", "160559.609000", "160559.609000", "160559.609000", "160559.609000", "160559.625000", "160559.625000", "160559.625000", "160559.625000", "160559.625000", "160619.562000", "160619.562000", "160619.562000", "160619.578000", "160619.578000", "160619.578000", "160619.578000", "160619.578000", "160619.578000", "160619.593000", "160619.593000", "160619.593000", "160619.593000", "160619.593000", "160619.609000", "160619.609000", "160619.609000", "160619.609000", "160619.609000", "160619.609000", "160619.625000", "160619.625000", "160619.625000", "160619.625000", "160619.625000", "160639.562000", "160639.562000", "160639.562000", "160639.578000", "160639.578000", "160639.578000", "160639.578000", "160639.578000", "160639.578000", "160639.578000", "160639.593000", "160639.593000", "160639.593000", "160639.593000", "160639.609000", "160639.609000", "160639.609000", "160639.609000", "160639.609000", "160639.609000", "160639.609000", "160639.625000", "160639.625000", "160639.625000", "160639.625000", "160639.625000", "160659.562000", "160659.562000", "160659.562000", "160659.578000", "160659.578000", "160659.578000", "160659.578000", "160659.578000", "160659.578000", "160659.578000", "160659.593000", "160659.593000", "160659.593000", "160659.593000", "160659.593000", "160659.593000", "160659.593000", "160659.609000", "160659.609000", "160659.609000", "160659.609000", "160659.609000", "160659.625000", "160659.625000", "160659.625000", "160719.562000", "160719.562000", "160719.562000", "160719.578000", "160719.578000", "160719.578000", "160719.578000", "160719.578000", "160719.578000", "160719.578000", "160719.593000", "160719.593000", "160719.593000", "160719.593000", "160719.593000", "160719.593000", "160719.593000", "160719.609000", "160719.609000", "160719.609000", "160719.609000", "160719.609000", "160719.609000", "160719.609000", "160719.625000", "160719.625000", "160739.562000", "160739.562000", "160739.562000", "160739.578000", "160739.578000", "160739.578000", "160739.578000", "160739.578000", "160739.578000", "160739.593000", "160739.593000", "160739.593000", "160739.593000", "160739.593000", "160739.593000", "160739.593000", "160739.609000", "160739.609000", "160739.609000", "160739.609000", "160739.609000", "160739.609000", "160739.609000", "160739.625000", "160739.625000", "160759.562000", "160759.562000", "160759.562000", "160759.578000", "160759.578000", "160759.578000", "160759.578000", "160759.578000", "160759.578000", "160759.578000", "160759.593000", "160759.593000", "160759.593000", "160759.593000", "160759.593000", "160759.593000", "160759.593000", "160759.609000", "160759.609000", "160759.609000", "160759.609000", "160759.609000", "160759.609000", "160759.609000", "160759.625000", "160759.625000", "160819.562000", "160819.562000", "160819.562000", "160819.562000", "160819.578000", "160819.578000", "160819.578000", "160819.578000", "160819.578000", "160819.578000", "160819.593000", "160819.593000", "160819.593000", "160819.593000", "160819.593000", "160819.593000", "160819.593000", "160819.609000", "160819.609000", "160819.609000", "160819.625000", "160819.625000", "160819.625000", "160819.625000", "160819.625000", "160826.890000", "160826.890000", "160826.890000", "160826.890000", "160826.890000", "160826.890000", "160826.906000", "160826.906000", "160826.906000", "160826.906000"],
      "DataSetTrailingPadding": [
        "\u0000\u0000\u0000\u0000\u0000\u0000\u0000\u0000\u0000\u0000\u0000\u0000\u0000\u0000\u0000\u0000\u0000\u0000\u0000\u0000\u0000\u0000\u0000\u0000\u0000\u0000\u0000\u0000\u0000\u0000\u0000\u0000\u0000\u0000\u0000\u0000\u0000\u0000\u0000\u0000\u0000\u0000\u0000\u0000\u0000\u0000\u0000\u0000\u0000\u0000\u0000\u0000\u0000\u0000\u0000\u0000\u0000\u0000\u0000\u0000\u0000\u0000\u0000\u0000\u0000\u0000\u0000\u0000\u0000\u0000\u0000\u0000\u0000\u0000\u0000\u0000\u0000\u0000\u0000\u0000\u0000\u0000\u0000\u0000",
        "\u0000\u0000\u0000\u0000\u0000\u0000\u0000\u0000\u0000\u0000\u0000\u0000\u0000\u0000\u0000\u0000\u0000\u0000\u0000\u0000\u0000\u0000\u0000\u0000\u0000\u0000\u0000\u0000\u0000\u0000\u0000\u0000\u0000\u0000\u0000\u0000\u0000\u0000\u0000\u0000\u0000\u0000\u0000\u0000\u0000\u0000\u0000\u0000\u0000\u0000\u0000\u0000\u0000\u0000\u0000\u0000\u0000\u0000\u0000\u0000\u0000\u0000\u0000\u0000\u0000\u0000\u0000\u0000\u0000\u0000\u0000\u0000\u0000\u0000\u0000\u0000\u0000\u0000\u0000\u0000",
        "\u0000\u0000\u0000\u0000\u0000\u0000\u0000\u0000\u0000\u0000\u0000\u0000\u0000\u0000\u0000\u0000\u0000\u0000\u0000\u0000\u0000\u0000\u0000\u0000\u0000\u0000\u0000\u0000\u0000\u0000\u0000\u0000\u0000\u0000\u0000\u0000\u0000\u0000\u0000\u0000\u0000\u0000\u0000\u0000\u0000\u0000\u0000\u0000\u0000\u0000\u0000\u0000\u0000\u0000\u0000\u0000\u0000\u0000\u0000\u0000\u0000\u0000\u0000\u0000\u0000\u0000\u0000\u0000\u0000\u0000\u0000\u0000\u0000\u0000\u0000\u0000\u0000\u0000\u0000\u0000\u0000\u0000",
