{
  "AcquisitionMatrixPE": 104,
  "AcquisitionNumber": 1,
  "AcquisitionTime": "11:26:32.705000",
  "BandwidthPerPixelPhaseEncode": 13.935,
  "BaseResolution": 104,
  "CoilString": "C:HEA;HEP",
  "ConversionSoftware": "dcm2niix",
  "ConversionSoftwareVersion": "v1.0.20210317",
  "DerivedVendorReportedEchoSpacing": 0.000690017,
  "DeviceSerialNumber": "35450",
  "DwellTime": 2.5e-06,
  "EchoTime": 0.0348,
  "EffectiveEchoSpacing": 0.000690017,
  "FlipAngle": 55,
  "ImageComments": "Unaliased MB8/PE3 (remote)",
  "ImageOrientationPatientDICOM": [1, -1.74543e-05, -6.82193e-05, -5.94602e-08, 0.968583, -0.248689],
  "ImageType": [
    "ORIGINAL",
    "PRIMARY",
    "M",
    "MB",
    "ND",
    "MOSAIC"
],
  "ImagingFrequency": 123.235,
  "InPlanePhaseEncodingDirectionDICOM": "COL",
  "InstitutionAddress": "Univeristy Ave. 197,Newark,North East,US,07102-1814",
  "InstitutionName": "RUBIC",
  "InstitutionalDepartmentName": "Department",
  "MRAcquisitionType": "2D",
  "MagneticFieldStrength": 3,
  "Manufacturer": "Siemens",
  "ManufacturersModelName": "TrioTim",
  "Modality": "MR",
  "MultibandAccelerationFactor": 8,
  "PartialFourier": 0.875,
  "PatientPosition": "HFS",
  "PercentPhaseFOV": 100,
  "PercentSampling": 100,
  "PhaseEncodingDirection": "j-",
  "PhaseEncodingSteps": 91,
  "PhaseResolution": 1,
  "PixelBandwidth": 1923,
  "ProcedureStepDescription": "Cole^Michael",
  "ProtocolName": "cmrr_mbep2d_bold_2mm_MB8_Task_8x",
  "PulseSequenceDetails": "%CustomerSeq%\\cmrr_mbep2d_bold",
  "ReceiveCoilName": "32Ch_Head",
  "ReconMatrixPE": 104,
  "RepetitionTime": 0.785,
  "SAR": 0.134922,
  "ScanOptions": "PFP\\FS",
  "ScanningSequence": "EP",
  "SequenceName": "epfid2d1_104",
  "SequenceVariant": "SK\\SS",
  "SeriesDescription": "cmrr_mbep2d_bold_2mm_MB8_Task_8x",
  "SeriesNumber": 17,
  "ShimSetting": [2133, -299, -7271, 496, 152, -502, -192, 16],
  "SliceThickness": 2,
  "SliceTiming": [0, 0.4375, 0.0875, 0.525, 0.175, 0.6125, 0.2625, 0.7, 0.35, 0, 0.4375, 0.0875, 0.525, 0.175, 0.6125, 0.2625, 0.7, 0.35, 0, 0.4375, 0.0875, 0.525, 0.175, 0.6125, 0.2625, 0.7, 0.35, 0, 0.4375, 0.0875, 0.525, 0.175, 0.6125, 0.2625, 0.7, 0.35, 0, 0.4375, 0.0875, 0.525, 0.175, 0.6125, 0.2625, 0.7, 0.35, 0, 0.4375, 0.0875, 0.525, 0.175, 0.6125, 0.2625, 0.7, 0.35, 0, 0.4375, 0.0875, 0.525, 0.175, 0.6125, 0.2625, 0.7, 0.35, 0, 0.4375, 0.0875, 0.525, 0.175, 0.6125, 0.2625, 0.7, 0.35],
  "SoftwareVersions": "syngo MR B19",
  "SpacingBetweenSlices": 2,
  "StationName": "MRC35450",
  "TaskName": "cpro",
  "TotalReadoutTime": 0.0710717,
  "TxRefAmp": 330.163,
  "dcmmeta_affine": [
    [-2.0, -1.1892039708527591e-07, -0.00014083347923588008, 101.982421875],
    [3.490859307930805e-05, 1.937166690826416, -0.49737855792045593, -71.7582015991211],
    [-0.00013643853890243918, 0.49737855792045593, 1.937166690826416, -120.71822357177734],
    [0.0, 0.0, 0.0, 1.0]
],
  "dcmmeta_reorient_transform": [
    [0.0, -1.0, 0.0, 103.0],
    [1.0, 0.0, 0.0, 0.0],
    [0.0, 0.0, 1.0, 0.0],
    [0.0, 0.0, 0.0, 1.0]
],
  "dcmmeta_shape": [104, 104, 72, 581],
  "dcmmeta_slice_dim": 2,
  "dcmmeta_version": 0.6,
  "global": {
    "const": {
      "AcquisitionMatrix": [104, 0, 0, 104],
      "AngioFlag": "N",
      "BitsAllocated": 16,
      "BitsStored": 12,
      "Columns": 936,
      "EchoNumbers": 1,
      "EchoTime": 34.8,
      "EchoTrainLength": 1,
      "FlipAngle": 55.0,
      "HighBit": 11,
      "ImageOrientationPatient": [0.99999999752074, -1.74542964e-05, -6.82192675e-05, -5.9460198e-08, 0.96858331704981, -0.2486892798912],
      "ImagePositionPatient": [-933.98235627027, -933.6167577209, 137.47801042343],
      "ImageType": [
        "ORIGINAL",
        "PRIMARY",
        "M",
        "MB",
        "ND",
        "MOSAIC"
],
      "ImagedNucleus": "1H",
      "ImagingFrequency": 123.234517,
      "InPlanePhaseEncodingDirection": "COL",
      "MRAcquisitionType": "2D",
      "MagneticFieldStrength": 3.0,
      "Manufacturer": "SIEMENS",
      "ManufacturerModelName": "TrioTim",
      "Modality": "MR",
      "NumberOfAverages": 1.0,
      "NumberOfPhaseEncodingSteps": 91,
      "PercentPhaseFieldOfView": 100.0,
      "PercentSampling": 100.0,
      "PerformedProcedureStepStartTime": "100106.750000",
      "PhotometricInterpretation": "MONOCHROME2",
      "PixelBandwidth": 1923.0,
      "PixelRepresentation": 0,
      "PixelSpacing": [2.0, 2.0],
      "ProtocolName": "cmrr_mbep2d_bold_2mm_MB8_Task_8x",
      "RepetitionTime": 785.0,
      "Rows": 936,
      "SAR": 0.13492180444493,
      "SamplesPerPixel": 1,
      "ScanOptions": [
        "PFP",
        "FS"
],
      "ScanningSequence": "EP",
      "SequenceName": "epfid2d1_104",
      "SequenceVariant": [
        "SK",
        "SS"
],
      "SeriesDescription": "cmrr_mbep2d_bold_2mm_MB8_Task_8x",
      "SeriesNumber": 17,
      "SeriesTime": "112652.703000",
      "SliceLocation": -99.087339566512,
      "SliceThickness": 2.0,
      "SmallestImagePixelValue": 0,
      "SoftwareVersions": "syngo MR B19",
      "SpacingBetweenSlices": 2.000000041491,
      "SpecificCharacterSet": "ISO_IR 100",
      "StudyID": "1",
      "StudyTime": "100106.687000",
      "TransmitCoilName": "Body",
      "VariableFlipAngleFlag": "N",
      "WindowCenterWidthExplanation": "Algo1",
      "dBdt": 0.0},
    "slices": {}
  },
  "time": {
    "samples": {
      "AcquisitionNumber": [1, 2, 3, 4, 5, 6, 7, 8, 9, 10, 11, 12, 13, 14, 15, 16, 17, 18, 19, 20, 21, 22, 23, 24, 25, 26, 27, 28, 29, 30, 31, 32, 33, 34, 35, 36, 37, 38, 39, 40, 41, 42, 43, 44, 45, 46, 47, 48, 49, 50, 51, 52, 53, 54, 55, 56, 57, 58, 59, 60, 61, 62, 63, 64, 65, 66, 67, 68, 69, 70, 71, 72, 73, 74, 75, 76, 77, 78, 79, 80, 81, 82, 83, 84, 85, 86, 87, 88, 89, 90, 91, 92, 93, 94, 95, 96, 97, 98, 99, 100, 101, 102, 103, 104, 105, 106, 107, 108, 109, 110, 111, 112, 113, 114, 115, 116, 117, 118, 119, 120, 121, 122, 123, 124, 125, 126, 127, 128, 129, 130, 131, 132, 133, 134, 135, 136, 137, 138, 139, 140, 141, 142, 143, 144, 145, 146, 147, 148, 149, 150, 151, 152, 153, 154, 155, 156, 157, 158, 159, 160, 161, 162, 163, 164, 165, 166, 167, 168, 169, 170, 171, 172, 173, 174, 175, 176, 177, 178, 179, 180, 181, 182, 183, 184, 185, 186, 187, 188, 189, 190, 191, 192, 193, 194, 195, 196, 197, 198, 199, 200, 201, 202, 203, 204, 205, 206, 207, 208, 209, 210, 211, 212, 213, 214, 215, 216, 217, 218, 219, 220, 221, 222, 223, 224, 225, 226, 227, 228, 229, 230, 231, 232, 233, 234, 235, 236, 237, 238, 239, 240, 241, 242, 243, 244, 245, 246, 247, 248, 249, 250, 251, 252, 253, 254, 255, 256, 257, 258, 259, 260, 261, 262, 263, 264, 265, 266, 267, 268, 269, 270, 271, 272, 273, 274, 275, 276, 277, 278, 279, 280, 281, 282, 283, 284, 285, 286, 287, 288, 289, 290, 291, 292, 293, 294, 295, 296, 297, 298, 299, 300, 301, 302, 303, 304, 305, 306, 307, 308, 309, 310, 311, 312, 313, 314, 315, 316, 317, 318, 319, 320, 321, 322, 323, 324, 325, 326, 327, 328, 329, 330, 331, 332, 333, 334, 335, 336, 337, 338, 339, 340, 341, 342, 343, 344, 345, 346, 347, 348, 349, 350, 351, 352, 353, 354, 355, 356, 357, 358, 359, 360, 361, 362, 363, 364, 365, 366, 367, 368, 369, 370, 371, 372, 373, 374, 375, 376, 377, 378, 379, 380, 381, 382, 383, 384, 385, 386, 387, 388, 389, 390, 391, 392, 393, 394, 395, 396, 397, 398, 399, 400, 401, 402, 403, 404, 405, 406, 407, 408, 409, 410, 411, 412, 413, 414, 415, 416, 417, 418, 419, 420, 421, 422, 423, 424, 425, 426, 427, 428, 429, 430, 431, 432, 433, 434, 435, 436, 437, 438, 439, 440, 441, 442, 443, 444, 445, 446, 447, 448, 449, 450, 451, 452, 453, 454, 455, 456, 457, 458, 459, 460, 461, 462, 463, 464, 465, 466, 467, 468, 469, 470, 471, 472, 473, 474, 475, 476, 477, 478, 479, 480, 481, 482, 483, 484, 485, 486, 487, 488, 489, 490, 491, 492, 493, 494, 495, 496, 497, 498, 499, 500, 501, 502, 503, 504, 505, 506, 507, 508, 509, 510, 511, 512, 513, 514, 515, 516, 517, 518, 519, 520, 521, 522, 523, 524, 525, 526, 527, 528, 529, 530, 531, 532, 533, 534, 535, 536, 537, 538, 539, 540, 541, 542, 543, 544, 545, 546, 547, 548, 549, 550, 551, 552, 553, 554, 555, 556, 557, 558, 559, 560, 561, 562, 563, 564, 565, 566, 567, 568, 569, 570, 571, 572, 573, 574, 575, 576, 577, 578, 579, 580, 581],
      "AcquisitionTime": ["112632.705000", "112633.492500", "112634.282500", "112635.070000", "112635.857500", "112636.647500", "112637.435000", "112638.222500", "112639.010000", "112639.800000", "112640.587500", "112641.375000", "112642.162500", "112642.952500", "112643.740000", "112644.527500", "112645.315000", "112646.105000", "112646.892500", "112647.680000", "112648.467500", "112649.257500", "112650.045000", "112650.832500", "112651.620000", "112652.410000", "112653.197500", "112653.985000", "112654.775000", "112655.562500", "112656.350000", "112657.137500", "112657.927500", "112658.715000", "112659.502500", "112700.290000", "112701.080000", "112701.867500", "112702.655000", "112703.442500", "112704.232500", "112705.020000", "112705.807500", "112706.595000", "112707.385000", "112708.172500", "112708.960000", "112709.747500", "112710.537500", "112711.325000", "112712.112500", "112712.902500", "112713.690000", "112714.477500", "112715.265000", "112716.055000", "112716.842500", "112717.630000", "112718.417500", "112719.207500", "112719.995000", "112720.782500", "112721.570000", "112722.360000", "112723.147500", "112723.935000", "112724.722500", "112725.512500", "112726.300000", "112727.087500", "112727.875000", "112728.665000", "112729.452500", "112730.240000", "112731.030000", "112731.817500", "112732.605000", "112733.392500", "112734.182500", "112734.970000", "112735.757500", "112736.545000", "112737.335000", "112738.122500", "112738.910000", "112739.697500", "112740.487500", "112741.275000", "112742.062500", "112742.850000", "112743.640000", "112744.427500", "112745.215000", "112746.002500", "112746.792500", "112747.580000", "112748.367500", "112749.157500", "112749.945000", "112750.732500", "112751.520000", "112752.310000", "112753.097500", "112753.885000", "112754.672500", "112755.462500", "112756.250000", "112757.037500", "112757.825000", "112758.615000", "112759.402500", "112800.190000", "112800.977500", "112801.767500", "112802.555000", "112803.342500", "112804.130000", "112804.920000", "112805.707500", "112806.495000", "112807.285000", "112808.072500", "112808.860000", "112809.647500", "112810.437500", "112811.225000", "112812.012500", "112812.800000", "112813.590000", "112814.377500", "112815.165000", "112815.952500", "112816.742500", "112817.530000", "112818.317500", "112819.105000", "112819.895000", "112820.682500", "112821.470000", "112822.257500", "112823.047500", "112823.835000", "112824.622500", "112825.412500", "112826.200000", "112826.987500", "112827.775000", "112828.565000", "112829.352500", "112830.140000", "112830.927500", "112831.717500", "112832.505000", "112833.292500", "112834.080000", "112834.870000", "112835.657500", "112836.445000", "112837.232500", "112838.022500", "112838.810000", "112839.597500", "112840.385000", "112841.175000", "112841.962500", "112842.750000", "112843.540000", "112844.327500", "112845.115000", "112845.902500", "112846.692500", "112847.480000", "112848.267500", "112849.055000", "112849.845000", "112850.632500", "112851.420000", "112852.207500", "112852.997500", "112853.785000", "112854.572500", "112855.360000", "112856.150000", "112856.937500", "112857.725000", "112858.512500", "112859.302500", "112900.090000", "112900.877500", "112901.667500", "112902.455000", "112903.242500", "112904.030000", "112904.820000", "112905.607500", "112906.395000", "112907.182500", "112907.972500", "112908.760000", "112909.547500", "112910.335000", "112911.125000", "112911.912500", "112912.700000", "112913.487500", "112914.277500", "112915.065000", "112915.852500", "112916.640000", "112917.430000", "112918.217500", "112919.005000", "112919.795000", "112920.582500", "112921.370000", "112922.157500", "112922.947500", "112923.735000", "112924.522500", "112925.310000", "112926.100000", "112926.887500", "112927.675000", "112928.462500", "112929.252500", "112930.040000", "112930.827500", "112931.615000", "112932.405000", "112933.192500", "112933.980000", "112934.770000", "112935.557500", "112936.345000", "112937.132500", "112937.922500", "112938.710000", "112939.497500", "112940.285000", "112941.075000", "112941.862500", "112942.650000", "112943.437500", "112944.227500", "112945.015000", "112945.802500", "112946.590000", "112947.380000", "112948.167500", "112948.955000", "112949.742500", "112950.532500", "112951.320000", "112952.107500", "112952.897500", "112953.685000", "112954.472500", "112955.260000", "112956.050000", "112956.837500", "112957.625000", "112958.412500", "112959.202500", "112959.990000", "113000.777500", "113001.565000", "113002.355000", "113003.142500", "113003.930000", "113004.717500", "113005.507500", "113006.295000", "113007.082500", "113007.870000", "113008.660000", "113009.447500", "113010.235000", "113011.025000", "113011.812500", "113012.600000", "113013.387500", "113014.177500", "113014.965000", "113015.752500", "113016.540000", "113017.330000", "113018.117500", "113018.905000", "113019.692500", "113020.482500", "113021.270000", "113022.057500", "113022.845000", "113023.635000", "113024.422500", "113025.210000", "113025.997500", "113026.787500", "113027.575000", "113028.362500", "113029.152500", "113029.940000", "113030.727500", "113031.515000", "113032.305000", "113033.092500", "113033.880000", "113034.667500", "113035.457500", "113036.245000", "113037.032500", "113037.820000", "113038.610000", "113039.397500", "113040.185000", "113040.972500", "113041.762500", "113042.550000", "113043.337500", "113044.125000", "113044.915000", "113045.702500", "113046.490000", "113047.280000", "113048.067500", "113048.855000", "113049.642500", "113050.432500", "113051.220000", "113052.007500", "113052.795000", "113053.585000", "113054.372500", "113055.160000", "113055.947500", "113056.737500", "113057.525000", "113058.312500", "113059.100000", "113059.890000", "113100.677500", "113101.465000", "113102.252500", "113103.042500", "113103.830000", "113104.617500", "113105.407500", "113106.195000", "113106.982500", "113107.770000", "113108.560000", "113109.347500", "113110.135000", "113110.922500", "113111.712500", "113112.500000", "113113.287500", "113114.075000", "113114.865000", "113115.652500", "113116.440000", "113117.227500", "113118.017500", "113118.805000", "113119.592500", "113120.380000", "113121.170000", "113121.957500", "113122.745000", "113123.535000", "113124.322500", "113125.110000", "113125.897500", "113126.687500", "113127.475000", "113128.262500", "113129.050000", "113129.840000", "113130.627500", "113131.415000", "113132.202500", "113132.992500", "113133.780000", "113134.567500", "113135.355000", "113136.145000", "113136.932500", "113137.720000", "113138.507500", "113139.297500", "113140.085000", "113140.872500", "113141.662500", "113142.450000", "113143.237500", "113144.025000", "113144.815000", "113145.602500", "113146.390000", "113147.177500", "113147.967500", "113148.755000", "113149.542500", "113150.330000", "113151.120000", "113151.907500", "113152.695000", "113153.482500", "113154.272500", "113155.060000", "113155.847500", "113156.635000", "113157.425000", "113158.212500", "113159.000000", "113159.790000", "113200.577500", "113201.365000", "113202.152500", "113202.942500", "113203.730000", "113204.517500", "113205.305000", "113206.095000", "113206.882500", "113207.670000", "113208.457500", "113209.247500", "113210.035000", "113210.822500", "113211.610000", "113212.400000", "113213.187500", "113213.975000", "113214.762500", "113215.552500", "113216.340000", "113217.127500", "113217.917500", "113218.705000", "113219.492500", "113220.280000", "113221.070000", "113221.857500", "113222.645000", "113223.432500", "113224.222500", "113225.010000", "113225.797500", "113226.585000", "113227.375000", "113228.162500", "113228.950000", "113229.737500", "113230.527500", "113231.315000", "113232.102500", "113232.890000", "113233.680000", "113234.467500", "113235.255000", "113236.045000", "113236.832500", "113237.620000", "113238.407500", "113239.197500", "113239.985000", "113240.772500", "113241.560000", "113242.350000", "113243.137500", "113243.925000", "113244.712500", "113245.502500", "113246.290000", "113247.077500", "113247.865000", "113248.655000", "113249.442500", "113250.230000", "113251.020000", "113251.807500", "113252.595000", "113253.382500", "113254.172500", "113254.960000", "113255.747500", "113256.535000", "113257.325000", "113258.112500", "113258.900000", "113259.687500", "113300.477500", "113301.265000", "113302.052500", "113302.840000", "113303.630000", "113304.417500", "113305.205000", "113305.992500", "113306.782500", "113307.570000", "113308.357500", "113309.147500", "113309.935000", "113310.722500", "113311.510000", "113312.300000", "113313.087500", "113313.875000", "113314.662500", "113315.452500", "113316.240000", "113317.027500", "113317.815000", "113318.605000", "113319.392500", "113320.180000", "113320.967500", "113321.757500", "113322.545000", "113323.332500", "113324.120000", "113324.910000", "113325.697500", "113326.485000", "113327.275000", "113328.062500", "113328.850000", "113329.637500", "113330.427500", "113331.215000", "113332.002500", "113332.790000", "113333.580000", "113334.367500", "113335.155000", "113335.942500", "113336.732500", "113337.520000", "113338.307500", "113339.095000", "113339.885000", "113340.672500", "113341.460000", "113342.247500", "113343.037500", "113343.825000", "113344.612500", "113345.402500", "113346.190000", "113346.977500", "113347.765000", "113348.555000", "113349.342500", "113350.130000", "113350.917500", "113351.707500", "113352.495000", "113353.282500", "113354.070000", "113354.860000", "113355.647500", "113356.435000", "113357.222500", "113358.012500", "113358.800000", "113359.587500", "113400.375000", "113401.165000", "113401.952500", "113402.740000", "113403.530000", "113404.317500", "113405.105000", "113405.892500", "113406.682500", "113407.470000", "113408.257500", "113409.045000", "113409.835000"],
      "ContentTime": ["112652.718000", "112652.718000", "112652.718000", "112652.718000", "112652.718000", "112652.718000", "112652.718000", "112652.718000", "112652.734000", "112652.734000", "112652.734000", "112652.734000", "112652.734000", "112652.734000", "112652.734000", "112652.750000", "112652.750000", "112652.750000", "112652.750000", "112652.750000", "112652.750000", "112652.750000", "112712.687000", "112712.687000", "112712.687000", "112712.687000", "112712.703000", "112712.703000", "112712.703000", "112712.703000", "112712.703000", "112712.703000", "112712.703000", "112712.718000", "112712.718000", "112712.718000", "112712.718000", "112712.718000", "112712.718000", "112712.718000", "112712.718000", "112712.734000", "112712.734000", "112712.734000", "112712.734000", "112712.734000", "112712.734000", "112712.750000", "112732.687000", "112732.687000", "112732.687000", "112732.687000", "112732.703000", "112732.703000", "112732.703000", "112732.703000", "112732.703000", "112732.703000", "112732.703000", "112732.718000", "112732.718000", "112732.718000", "112732.718000", "112732.718000", "112732.718000", "112732.718000", "112732.718000", "112732.734000", "112732.734000", "112732.734000", "112732.734000", "112732.734000", "112732.750000", "112752.687000", "112752.687000", "112752.687000", "112752.687000", "112752.703000", "112752.703000", "112752.703000", "112752.703000", "112752.703000", "112752.703000", "112752.703000", "112752.703000", "112752.718000", "112752.718000", "112752.718000", "112752.718000", "112752.718000", "112752.718000", "112752.718000", "112752.734000", "112752.734000", "112752.734000", "112752.734000", "112752.734000", "112752.750000", "112752.750000", "112812.687000", "112812.687000", "112812.687000", "112812.687000", "112812.703000", "112812.703000", "112812.703000", "112812.703000", "112812.703000", "112812.703000", "112812.703000", "112812.703000", "112812.718000", "112812.718000", "112812.718000", "112812.718000", "112812.718000", "112812.718000", "112812.718000", "112812.734000", "112812.734000", "112812.734000", "112812.734000", "112812.734000", "112812.734000", "112832.687000", "112832.687000", "112832.687000", "112832.687000", "112832.703000", "112832.703000", "112832.703000", "112832.703000", "112832.703000", "112832.703000", "112832.703000", "112832.703000", "112832.718000", "112832.718000", "112832.718000", "112832.718000", "112832.718000", "112832.718000", "112832.718000", "112832.734000", "112832.734000", "112832.734000", "112832.734000", "112832.734000", "112832.750000", "112832.750000", "112852.687000", "112852.687000", "112852.687000", "112852.687000", "112852.703000", "112852.703000", "112852.703000", "112852.703000", "112852.703000", "112852.703000", "112852.703000", "112852.718000", "112852.718000", "112852.718000", "112852.718000", "112852.718000", "112852.718000", "112852.718000", "112852.718000", "112852.734000", "112852.734000", "112852.734000", "112852.734000", "112852.734000", "112852.734000", "112912.687000", "112912.687000", "112912.687000", "112912.687000", "112912.703000", "112912.703000", "112912.703000", "112912.703000", "112912.703000", "112912.703000", "112912.703000", "112912.703000", "112912.718000", "112912.718000", "112912.718000", "112912.718000", "112912.718000", "112912.718000", "112912.718000", "112912.734000", "112912.734000", "112912.734000", "112912.734000", "112912.734000", "112912.734000", "112912.734000", "112932.687000", "112932.687000", "112932.687000", "112932.687000", "112932.703000", "112932.703000", "112932.703000", "112932.703000", "112932.703000", "112932.703000", "112932.703000", "112932.703000", "112932.718000", "112932.718000", "112932.718000", "112932.718000", "112932.718000", "112932.718000", "112932.718000", "112932.734000", "112932.734000", "112932.734000", "112932.734000", "112932.734000", "112932.734000", "112952.687000", "112952.687000", "112952.687000", "112952.687000", "112952.703000", "112952.703000", "112952.703000", "112952.703000", "112952.703000", "112952.703000", "112952.703000", "112952.703000", "112952.718000", "112952.718000", "112952.718000", "112952.718000", "112952.718000", "112952.718000", "112952.718000", "112952.734000", "112952.734000", "112952.734000", "112952.734000", "112952.734000", "112952.734000", "112952.750000", "113012.687000", "113012.687000", "113012.687000", "113012.687000", "113012.703000", "113012.703000", "113012.703000", "113012.703000", "113012.703000", "113012.703000", "113012.703000", "113012.703000", "113012.718000", "113012.718000", "113012.718000", "113012.718000", "113012.718000", "113012.718000", "113012.718000", "113012.734000", "113012.734000", "113012.734000", "113012.734000", "113012.734000", "113012.734000", "113032.687000", "113032.687000", "113032.687000", "113032.687000", "113032.703000", "113032.703000", "113032.703000", "113032.703000", "113032.703000", "113032.703000", "113032.703000", "113032.718000", "113032.718000", "113032.718000", "113032.718000", "113032.718000", "113032.718000", "113032.718000", "113032.718000", "113032.734000", "113032.734000", "113032.734000", "113032.734000", "113032.734000", "113032.734000", "113052.687000", "113052.687000", "113052.687000", "113052.703000", "113052.703000", "113052.703000", "113052.703000", "113052.703000", "113052.703000", "113052.703000", "113052.718000", "113052.718000", "113052.718000", "113052.718000", "113052.718000", "113052.718000", "113052.718000", "113052.718000", "113052.734000", "113052.734000", "113052.734000", "113052.734000", "113052.734000", "113052.734000", "113052.734000", "113052.734000", "113112.687000", "113112.687000", "113112.687000", "113112.687000", "113112.703000", "113112.703000", "113112.703000", "113112.703000", "113112.718000", "113112.718000", "113112.718000", "113112.718000", "113112.718000", "113112.718000", "113112.718000", "113112.734000", "113112.734000", "113112.734000", "113112.734000", "113112.734000", "113112.734000", "113112.734000", "113112.750000", "113112.750000", "113112.750000", "113132.687000", "113132.687000", "113132.687000", "113132.687000", "113132.703000", "113132.703000", "113132.703000", "113132.703000", "113132.703000", "113132.703000", "113132.703000", "113132.703000", "113132.718000", "113132.718000", "113132.718000", "113132.718000", "113132.718000", "113132.718000", "113132.718000", "113132.734000", "113132.734000", "113132.734000", "113132.734000", "113132.734000", "113132.734000", "113132.734000", "113152.687000", "113152.687000", "113152.687000", "113152.687000", "113152.703000", "113152.703000", "113152.703000", "113152.703000", "113152.703000", "113152.703000", "113152.703000", "113152.718000", "113152.718000", "113152.718000", "113152.718000", "113152.718000", "113152.718000", "113152.718000", "113152.734000", "113152.734000", "113152.734000", "113152.734000", "113152.734000", "113152.734000", "113152.734000", "113212.687000", "113212.687000", "113212.687000", "113212.687000", "113212.703000", "113212.703000", "113212.703000", "113212.703000", "113212.703000", "113212.703000", "113212.703000", "113212.718000", "113212.718000", "113212.718000", "113212.718000", "113212.734000", "113212.734000", "113212.734000", "113212.734000", "113212.734000", "113212.734000", "113212.734000", "113212.734000", "113212.750000", "113212.750000", "113212.750000", "113232.687000", "113232.687000", "113232.687000", "113232.687000", "113232.703000", "113232.703000", "113232.703000", "113232.703000", "113232.703000", "113232.703000", "113232.703000", "113232.718000", "113232.718000", "113232.718000", "113232.718000", "113232.718000", "113232.718000", "113232.718000", "113232.734000", "113232.734000", "113232.734000", "113232.734000", "113232.734000", "113232.734000", "113232.734000", "113252.687000", "113252.687000", "113252.687000", "113252.687000", "113252.703000", "113252.703000", "113252.703000", "113252.703000", "113252.703000", "113252.703000", "113252.703000", "113252.718000", "113252.718000", "113252.718000", "113252.718000", "113252.718000", "113252.718000", "113252.718000", "113252.734000", "113252.734000", "113252.734000", "113252.734000", "113252.734000", "113252.734000", "113252.734000", "113252.734000", "113312.687000", "113312.687000", "113312.687000", "113312.687000", "113312.703000", "113312.703000", "113312.703000", "113312.703000", "113312.703000", "113312.703000", "113312.703000", "113312.718000", "113312.718000", "113312.718000", "113312.718000", "113312.718000", "113312.718000", "113312.718000", "113312.718000", "113312.734000", "113312.734000", "113312.734000", "113312.734000", "113312.734000", "113312.750000", "113332.687000", "113332.687000", "113332.687000", "113332.703000", "113332.703000", "113332.703000", "113332.703000", "113332.703000", "113332.703000", "113332.703000", "113332.718000", "113332.718000", "113332.718000", "113332.718000", "113332.718000", "113332.718000", "113332.718000", "113332.734000", "113332.734000", "113332.734000", "113332.734000", "113332.734000", "113332.734000", "113332.734000", "113332.734000", "113332.750000", "113352.687000", "113352.687000", "113352.687000", "113352.687000", "113352.703000", "113352.703000", "113352.703000", "113352.703000", "113352.703000", "113352.703000", "113352.703000", "113352.718000", "113352.718000", "113352.718000", "113352.718000", "113352.718000", "113352.718000", "113352.718000", "113352.718000", "113352.734000", "113352.734000", "113352.734000", "113352.734000", "113352.734000", "113352.734000", "113410.968000", "113410.968000", "113410.968000", "113410.968000", "113410.968000", "113410.968000", "113410.968000", "113410.984000", "113410.984000", "113410.984000", "113410.984000", "113410.984000", "113410.984000", "113410.984000", "113410.984000", "113411.000000", "113411.000000", "113411.000000", "113411.000000", "113411.000000", "113411.015000", "113411.015000", "113411.015000", "113411.015000"],
