{
  "AcquisitionMatrixPE": 104,
  "AcquisitionNumber": 1,
  "AcquisitionTime": "11:03:10.657500",
  "BandwidthPerPixelPhaseEncode": 13.935,
  "BaseResolution": 104,
  "CoilString": "C:HEA;HEP",
  "ConversionSoftware": "dcm2niix",
  "ConversionSoftwareVersion": "v1.0.20210317",
  "DerivedVendorReportedEchoSpacing": 0.000690017,
  "DeviceSerialNumber": "35450",
  "DwellTime": 2.5e-06,
  "EchoTime": 0.0348,
  "EffectiveEchoSpacing": 0.000690017,
  "FlipAngle": 55,
  "ImageComments": "Unaliased MB8/PE3 (remote)",
  "ImageOrientationPatientDICOM": [1, -1.74543e-05, -6.82193e-05, -5.94602e-08, 0.968583, -0.248689],
  "ImageType": [
    "ORIGINAL",
    "PRIMARY",
    "M",
    "MB",
    "ND",
    "MOSAIC"
],
  "ImagingFrequency": 123.235,
  "InPlanePhaseEncodingDirectionDICOM": "COL",
  "InstitutionAddress": "Univeristy Ave. 197,Newark,North East,US,07102-1814",
  "InstitutionName": "RUBIC",
  "InstitutionalDepartmentName": "Department",
  "MRAcquisitionType": "2D",
  "MagneticFieldStrength": 3,
  "Manufacturer": "Siemens",
  "ManufacturersModelName": "TrioTim",
  "Modality": "MR",
  "MultibandAccelerationFactor": 8,
  "PartialFourier": 0.875,
  "PatientPosition": "HFS",
  "PercentPhaseFOV": 100,
  "PercentSampling": 100,
  "PhaseEncodingDirection": "j-",
  "PhaseEncodingSteps": 91,
  "PhaseResolution": 1,
  "PixelBandwidth": 1923,
  "ProcedureStepDescription": "Cole^Michael",
  "ProtocolName": "cmrr_mbep2d_bold_2mm_MB8_Task_8x",
  "PulseSequenceDetails": "%CustomerSeq%\\cmrr_mbep2d_bold",
  "ReceiveCoilName": "32Ch_Head",
  "ReconMatrixPE": 104,
  "RepetitionTime": 0.785,
  "SAR": 0.151109,
  "ScanOptions": "PFP\\FS",
  "ScanningSequence": "EP",
  "SequenceName": "epfid2d1_104",
  "SequenceVariant": "SK\\SS",
  "SeriesDescription": "cmrr_mbep2d_bold_2mm_MB8_Task_8x",
  "SeriesNumber": 13,
  "ShimSetting": [2133, -299, -7271, 496, 152, -502, -192, 16],
  "SliceThickness": 2,
  "SliceTiming": [0, 0.4375, 0.0875, 0.525, 0.175, 0.6125, 0.2625, 0.7, 0.35, 0, 0.4375, 0.0875, 0.525, 0.175, 0.6125, 0.2625, 0.7, 0.35, 0, 0.4375, 0.0875, 0.525, 0.175, 0.6125, 0.2625, 0.7, 0.35, 0, 0.4375, 0.0875, 0.525, 0.175, 0.6125, 0.2625, 0.7, 0.35, 0, 0.4375, 0.0875, 0.525, 0.175, 0.6125, 0.2625, 0.7, 0.35, 0, 0.4375, 0.0875, 0.525, 0.175, 0.6125, 0.2625, 0.7, 0.35, 0, 0.4375, 0.0875, 0.525, 0.175, 0.6125, 0.2625, 0.7, 0.35, 0, 0.4375, 0.0875, 0.525, 0.175, 0.6125, 0.2625, 0.7, 0.35],
  "SoftwareVersions": "syngo MR B19",
  "SpacingBetweenSlices": 2,
  "StationName": "MRC35450",
  "TaskName": "cpro",
  "TotalReadoutTime": 0.0710717,
  "TxRefAmp": 330.163,
  "dcmmeta_affine": [
    [-2.0, -1.1892039708527591e-07, -0.00014083347923588008, 101.982421875],
    [3.490859307930805e-05, 1.937166690826416, -0.49737855792045593, -71.7582015991211],
    [-0.00013643853890243918, 0.49737855792045593, 1.937166690826416, -120.71822357177734],
    [0.0, 0.0, 0.0, 1.0]
],
  "dcmmeta_reorient_transform": [
    [0.0, -1.0, 0.0, 103.0],
    [1.0, 0.0, 0.0, 0.0],
    [0.0, 0.0, 1.0, 0.0],
    [0.0, 0.0, 0.0, 1.0]
],
  "dcmmeta_shape": [104, 104, 72, 581],
  "dcmmeta_slice_dim": 2,
  "dcmmeta_version": 0.6,
  "global": {
    "const": {
      "AcquisitionMatrix": [104, 0, 0, 104],
      "AngioFlag": "N",
      "BitsAllocated": 16,
      "BitsStored": 12,
      "Columns": 936,
      "EchoNumbers": 1,
      "EchoTime": 34.8,
      "EchoTrainLength": 1,
      "FlipAngle": 55.0,
      "HighBit": 11,
      "ImageOrientationPatient": [0.99999999752074, -1.74542964e-05, -6.82192675e-05, -5.9460198e-08, 0.96858331704981, -0.2486892798912],
      "ImagePositionPatient": [-933.98235627027, -933.6167577209, 137.47801042343],
      "ImageType": [
        "ORIGINAL",
        "PRIMARY",
        "M",
        "MB",
        "ND",
        "MOSAIC"
],
      "ImagedNucleus": "1H",
      "ImagingFrequency": 123.234517,
      "InPlanePhaseEncodingDirection": "COL",
      "MRAcquisitionType": "2D",
      "MagneticFieldStrength": 3.0,
      "Manufacturer": "SIEMENS",
      "ManufacturerModelName": "TrioTim",
      "Modality": "MR",
      "NumberOfAverages": 1.0,
      "NumberOfPhaseEncodingSteps": 91,
      "PercentPhaseFieldOfView": 100.0,
      "PercentSampling": 100.0,
      "PerformedProcedureStepStartTime": "100106.750000",
      "PhotometricInterpretation": "MONOCHROME2",
      "PixelBandwidth": 1923.0,
      "PixelRepresentation": 0,
      "PixelSpacing": [2.0, 2.0],
      "ProtocolName": "cmrr_mbep2d_bold_2mm_MB8_Task_8x",
      "RepetitionTime": 785.0,
      "Rows": 936,
      "SAR": 0.15110882954869,
      "SamplesPerPixel": 1,
      "ScanOptions": [
        "PFP",
        "FS"
],
      "ScanningSequence": "EP",
      "SequenceName": "epfid2d1_104",
      "SequenceVariant": [
        "SK",
        "SS"
],
      "SeriesDescription": "cmrr_mbep2d_bold_2mm_MB8_Task_8x",
      "SeriesNumber": 13,
      "SeriesTime": "110324.828000",
      "SliceLocation": -99.087339566512,
      "SliceThickness": 2.0,
      "SmallestImagePixelValue": 0,
      "SoftwareVersions": "syngo MR B19",
      "SpacingBetweenSlices": 2.000000041491,
      "SpecificCharacterSet": "ISO_IR 100",
      "StudyID": "1",
      "StudyTime": "100106.687000",
      "TransmitCoilName": "Body",
      "VariableFlipAngleFlag": "N",
      "WindowCenterWidthExplanation": "Algo1",
      "dBdt": 0.0},
    "slices": {}
  },
  "time": {
    "samples": {
      "AcquisitionNumber": [1, 2, 3, 4, 5, 6, 7, 8, 9, 10, 11, 12, 13, 14, 15, 16, 17, 18, 19, 20, 21, 22, 23, 24, 25, 26, 27, 28, 29, 30, 31, 32, 33, 34, 35, 36, 37, 38, 39, 40, 41, 42, 43, 44, 45, 46, 47, 48, 49, 50, 51, 52, 53, 54, 55, 56, 57, 58, 59, 60, 61, 62, 63, 64, 65, 66, 67, 68, 69, 70, 71, 72, 73, 74, 75, 76, 77, 78, 79, 80, 81, 82, 83, 84, 85, 86, 87, 88, 89, 90, 91, 92, 93, 94, 95, 96, 97, 98, 99, 100, 101, 102, 103, 104, 105, 106, 107, 108, 109, 110, 111, 112, 113, 114, 115, 116, 117, 118, 119, 120, 121, 122, 123, 124, 125, 126, 127, 128, 129, 130, 131, 132, 133, 134, 135, 136, 137, 138, 139, 140, 141, 142, 143, 144, 145, 146, 147, 148, 149, 150, 151, 152, 153, 154, 155, 156, 157, 158, 159, 160, 161, 162, 163, 164, 165, 166, 167, 168, 169, 170, 171, 172, 173, 174, 175, 176, 177, 178, 179, 180, 181, 182, 183, 184, 185, 186, 187, 188, 189, 190, 191, 192, 193, 194, 195, 196, 197, 198, 199, 200, 201, 202, 203, 204, 205, 206, 207, 208, 209, 210, 211, 212, 213, 214, 215, 216, 217, 218, 219, 220, 221, 222, 223, 224, 225, 226, 227, 228, 229, 230, 231, 232, 233, 234, 235, 236, 237, 238, 239, 240, 241, 242, 243, 244, 245, 246, 247, 248, 249, 250, 251, 252, 253, 254, 255, 256, 257, 258, 259, 260, 261, 262, 263, 264, 265, 266, 267, 268, 269, 270, 271, 272, 273, 274, 275, 276, 277, 278, 279, 280, 281, 282, 283, 284, 285, 286, 287, 288, 289, 290, 291, 292, 293, 294, 295, 296, 297, 298, 299, 300, 301, 302, 303, 304, 305, 306, 307, 308, 309, 310, 311, 312, 313, 314, 315, 316, 317, 318, 319, 320, 321, 322, 323, 324, 325, 326, 327, 328, 329, 330, 331, 332, 333, 334, 335, 336, 337, 338, 339, 340, 341, 342, 343, 344, 345, 346, 347, 348, 349, 350, 351, 352, 353, 354, 355, 356, 357, 358, 359, 360, 361, 362, 363, 364, 365, 366, 367, 368, 369, 370, 371, 372, 373, 374, 375, 376, 377, 378, 379, 380, 381, 382, 383, 384, 385, 386, 387, 388, 389, 390, 391, 392, 393, 394, 395, 396, 397, 398, 399, 400, 401, 402, 403, 404, 405, 406, 407, 408, 409, 410, 411, 412, 413, 414, 415, 416, 417, 418, 419, 420, 421, 422, 423, 424, 425, 426, 427, 428, 429, 430, 431, 432, 433, 434, 435, 436, 437, 438, 439, 440, 441, 442, 443, 444, 445, 446, 447, 448, 449, 450, 451, 452, 453, 454, 455, 456, 457, 458, 459, 460, 461, 462, 463, 464, 465, 466, 467, 468, 469, 470, 471, 472, 473, 474, 475, 476, 477, 478, 479, 480, 481, 482, 483, 484, 485, 486, 487, 488, 489, 490, 491, 492, 493, 494, 495, 496, 497, 498, 499, 500, 501, 502, 503, 504, 505, 506, 507, 508, 509, 510, 511, 512, 513, 514, 515, 516, 517, 518, 519, 520, 521, 522, 523, 524, 525, 526, 527, 528, 529, 530, 531, 532, 533, 534, 535, 536, 537, 538, 539, 540, 541, 542, 543, 544, 545, 546, 547, 548, 549, 550, 551, 552, 553, 554, 555, 556, 557, 558, 559, 560, 561, 562, 563, 564, 565, 566, 567, 568, 569, 570, 571, 572, 573, 574, 575, 576, 577, 578, 579, 580, 581],
      "AcquisitionTime": ["110310.657500", "110311.445000", "110312.232500", "110313.022500", "110313.810000", "110314.597500", "110315.385000", "110316.175000", "110316.962500", "110317.750000", "110318.537500", "110319.327500", "110320.115000", "110320.902500", "110321.690000", "110322.480000", "110323.267500", "110324.055000", "110324.842500", "110325.632500", "110326.420000", "110327.207500", "110327.995000", "110328.785000", "110329.572500", "110330.360000", "110331.150000", "110331.937500", "110332.725000", "110333.512500", "110334.302500", "110335.090000", "110335.877500", "110336.665000", "110337.455000", "110338.242500", "110339.030000", "110339.817500", "110340.607500", "110341.395000", "110342.182500", "110342.970000", "110343.760000", "110344.547500", "110345.335000", "110346.122500", "110346.912500", "110347.700000", "110348.487500", "110349.277500", "110350.065000", "110350.852500", "110351.640000", "110352.430000", "110353.217500", "110354.005000", "110354.792500", "110355.582500", "110356.370000", "110357.157500", "110357.945000", "110358.735000", "110359.522500", "110400.310000", "110401.097500", "110401.887500", "110402.675000", "110403.462500", "110404.250000", "110405.040000", "110405.827500", "110406.615000", "110407.405000", "110408.192500", "110408.980000", "110409.767500", "110410.557500", "110411.345000", "110412.132500", "110412.920000", "110413.710000", "110414.497500", "110415.285000", "110416.072500", "110416.862500", "110417.650000", "110418.437500", "110419.225000", "110420.015000", "110420.802500", "110421.590000", "110422.377500", "110423.167500", "110423.955000", "110424.742500", "110425.532500", "110426.320000", "110427.107500", "110427.895000", "110428.685000", "110429.472500", "110430.260000", "110431.047500", "110431.837500", "110432.625000", "110433.412500", "110434.200000", "110434.990000", "110435.777500", "110436.565000", "110437.352500", "110438.142500", "110438.930000", "110439.717500", "110440.505000", "110441.295000", "110442.082500", "110442.870000", "110443.660000", "110444.447500", "110445.235000", "110446.022500", "110446.812500", "110447.600000", "110448.387500", "110449.175000", "110449.965000", "110450.752500", "110451.540000", "110452.327500", "110453.117500", "110453.905000", "110454.692500", "110455.480000", "110456.270000", "110457.057500", "110457.845000", "110458.635000", "110459.422500", "110500.210000", "110500.997500", "110501.787500", "110502.575000", "110503.362500", "110504.150000", "110504.940000", "110505.727500", "110506.515000", "110507.302500", "110508.092500", "110508.880000", "110509.667500", "110510.455000", "110511.245000", "110512.032500", "110512.820000", "110513.607500", "110514.397500", "110515.185000", "110515.972500", "110516.762500", "110517.550000", "110518.337500", "110519.125000", "110519.915000", "110520.702500", "110521.490000", "110522.277500", "110523.067500", "110523.855000", "110524.642500", "110525.430000", "110526.220000", "110527.007500", "110527.795000", "110528.582500", "110529.372500", "110530.160000", "110530.947500", "110531.735000", "110532.525000", "110533.312500", "110534.100000", "110534.890000", "110535.677500", "110536.465000", "110537.252500", "110538.042500", "110538.830000", "110539.617500", "110540.405000", "110541.195000", "110541.982500", "110542.770000", "110543.557500", "110544.347500", "110545.135000", "110545.922500", "110546.710000", "110547.500000", "110548.287500", "110549.075000", "110549.862500", "110550.652500", "110551.440000", "110552.227500", "110553.017500", "110553.805000", "110554.592500", "110555.380000", "110556.170000", "110556.957500", "110557.745000", "110558.532500", "110559.322500", "110600.110000", "110600.897500", "110601.685000", "110602.475000", "110603.262500", "110604.050000", "110604.837500", "110605.627500", "110606.415000", "110607.202500", "110607.990000", "110608.780000", "110609.567500", "110610.355000", "110611.145000", "110611.932500", "110612.720000", "110613.507500", "110614.297500", "110615.085000", "110615.872500", "110616.660000", "110617.450000", "110618.237500", "110619.025000", "110619.812500", "110620.602500", "110621.390000", "110622.177500", "110622.965000", "110623.755000", "110624.542500", "110625.330000", "110626.117500", "110626.907500", "110627.695000", "110628.482500", "110629.272500", "110630.060000", "110630.847500", "110631.635000", "110632.425000", "110633.212500", "110634.000000", "110634.787500", "110635.577500", "110636.365000", "110637.152500", "110637.940000", "110638.730000", "110639.517500", "110640.305000", "110641.092500", "110641.882500", "110642.670000", "110643.457500", "110644.245000", "110645.035000", "110645.822500", "110646.610000", "110647.400000", "110648.187500", "110648.975000", "110649.762500", "110650.552500", "110651.340000", "110652.127500", "110652.915000", "110653.705000", "110654.492500", "110655.280000", "110656.067500", "110656.857500", "110657.645000", "110658.432500", "110659.220000", "110700.010000", "110700.797500", "110701.585000", "110702.372500", "110703.162500", "110703.950000", "110704.737500", "110705.527500", "110706.315000", "110707.102500", "110707.890000", "110708.680000", "110709.467500", "110710.255000", "110711.042500", "110711.832500", "110712.620000", "110713.407500", "110714.195000", "110714.985000", "110715.772500", "110716.560000", "110717.347500", "110718.137500", "110718.925000", "110719.712500", "110720.500000", "110721.290000", "110722.077500", "110722.865000", "110723.655000", "110724.442500", "110725.230000", "110726.017500", "110726.807500", "110727.595000", "110728.382500", "110729.170000", "110729.960000", "110730.747500", "110731.535000", "110732.322500", "110733.112500", "110733.900000", "110734.687500", "110735.475000", "110736.265000", "110737.052500", "110737.840000", "110738.627500", "110739.417500", "110740.205000", "110740.992500", "110741.782500", "110742.570000", "110743.357500", "110744.145000", "110744.935000", "110745.722500", "110746.510000", "110747.297500", "110748.087500", "110748.875000", "110749.662500", "110750.450000", "110751.240000", "110752.027500", "110752.815000", "110753.602500", "110754.392500", "110755.180000", "110755.967500", "110756.755000", "110757.545000", "110758.332500", "110759.120000", "110759.910000", "110800.697500", "110801.485000", "110802.272500", "110803.062500", "110803.850000", "110804.637500", "110805.425000", "110806.215000", "110807.002500", "110807.790000", "110808.577500", "110809.367500", "110810.155000", "110810.942500", "110811.730000", "110812.520000", "110813.307500", "110814.095000", "110814.885000", "110815.672500", "110816.460000", "110817.247500", "110818.037500", "110818.825000", "110819.612500", "110820.400000", "110821.190000", "110821.977500", "110822.765000", "110823.552500", "110824.342500", "110825.130000", "110825.917500", "110826.705000", "110827.495000", "110828.282500", "110829.070000", "110829.857500", "110830.647500", "110831.435000", "110832.222500", "110833.012500", "110833.800000", "110834.587500", "110835.375000", "110836.165000", "110836.952500", "110837.740000", "110838.527500", "110839.317500", "110840.105000", "110840.892500", "110841.680000", "110842.470000", "110843.257500", "110844.045000", "110844.832500", "110845.622500", "110846.410000", "110847.197500", "110847.985000", "110848.775000", "110849.562500", "110850.350000", "110851.140000", "110851.927500", "110852.715000", "110853.502500", "110854.292500", "110855.080000", "110855.867500", "110856.655000", "110857.445000", "110858.232500", "110859.020000", "110859.807500", "110900.597500", "110901.385000", "110902.172500", "110902.960000", "110903.750000", "110904.537500", "110905.325000", "110906.112500", "110906.902500", "110907.690000", "110908.477500", "110909.267500", "110910.055000", "110910.842500", "110911.630000", "110912.420000", "110913.207500", "110913.995000", "110914.782500", "110915.572500", "110916.360000", "110917.147500", "110917.935000", "110918.725000", "110919.512500", "110920.300000", "110921.087500", "110921.877500", "110922.665000", "110923.452500", "110924.240000", "110925.030000", "110925.817500", "110926.605000", "110927.395000", "110928.182500", "110928.970000", "110929.757500", "110930.547500", "110931.335000", "110932.122500", "110932.910000", "110933.700000", "110934.487500", "110935.275000", "110936.062500", "110936.852500", "110937.640000", "110938.427500", "110939.215000", "110940.005000", "110940.792500", "110941.580000", "110942.367500", "110943.157500", "110943.945000", "110944.732500", "110945.522500", "110946.310000", "110947.097500", "110947.885000", "110948.675000", "110949.462500", "110950.250000", "110951.037500", "110951.827500", "110952.615000", "110953.402500", "110954.190000", "110954.980000", "110955.767500", "110956.555000", "110957.342500", "110958.132500", "110958.920000", "110959.707500", "111000.495000", "111001.285000", "111002.072500", "111002.860000", "111003.650000", "111004.437500", "111005.225000", "111006.012500", "111006.802500", "111007.590000", "111008.377500", "111009.165000", "111009.955000", "111010.742500", "111011.530000", "111012.317500", "111013.107500", "111013.895000", "111014.682500", "111015.470000", "111016.260000", "111017.047500", "111017.835000", "111018.622500", "111019.412500", "111020.200000", "111020.987500", "111021.777500", "111022.565000", "111023.352500", "111024.140000", "111024.930000", "111025.717500", "111026.505000", "111027.292500", "111028.082500", "111028.870000", "111029.657500", "111030.445000", "111031.235000", "111032.022500", "111032.810000", "111033.597500", "111034.387500", "111035.175000", "111035.962500", "111036.750000", "111037.540000", "111038.327500", "111039.115000", "111039.905000", "111040.692500", "111041.480000", "111042.267500", "111043.057500", "111043.845000", "111044.632500", "111045.420000", "111046.210000", "111046.997500", "111047.785000"],
      "ContentTime": ["110324.828000", "110324.843000", "110324.843000", "110324.843000", "110324.843000", "110324.843000", "110324.843000", "110324.843000", "110324.859000", "110324.859000", "110324.859000", "110324.859000", "110324.859000", "110324.859000", "110324.859000", "110324.859000", "110324.875000", "110344.812000", "110344.812000", "110344.812000", "110344.812000", "110344.828000", "110344.828000", "110344.828000", "110344.828000", "110344.828000", "110344.828000", "110344.828000", "110344.843000", "110344.843000", "110344.843000", "110344.843000", "110344.843000", "110344.843000", "110344.843000", "110344.843000", "110344.859000", "110344.859000", "110344.859000", "110344.859000", "110344.859000", "110344.875000", "110404.812000", "110404.812000", "110404.812000", "110404.812000", "110404.828000", "110404.828000", "110404.828000", "110404.828000", "110404.828000", "110404.828000", "110404.828000", "110404.843000", "110404.843000", "110404.843000", "110404.843000", "110404.843000", "110404.843000", "110404.843000", "110404.843000", "110404.859000", "110404.859000", "110404.859000", "110404.859000", "110404.859000", "110404.859000", "110404.859000", "110424.812000", "110424.812000", "110424.812000", "110424.812000", "110424.828000", "110424.828000", "110424.828000", "110424.828000", "110424.828000", "110424.828000", "110424.828000", "110424.828000", "110424.843000", "110424.843000", "110424.843000", "110424.843000", "110424.843000", "110424.843000", "110424.859000", "110424.859000", "110424.859000", "110424.859000", "110424.859000", "110424.859000", "110424.859000", "110424.875000", "110444.812000", "110444.812000", "110444.812000", "110444.812000", "110444.828000", "110444.828000", "110444.828000", "110444.828000", "110444.828000", "110444.828000", "110444.828000", "110444.843000", "110444.843000", "110444.843000", "110444.843000", "110444.843000", "110444.843000", "110444.859000", "110444.859000", "110444.859000", "110444.859000", "110444.859000", "110444.859000", "110444.859000", "110444.875000", "110504.812000", "110504.828000", "110504.828000", "110504.828000", "110504.828000", "110504.828000", "110504.828000", "110504.828000", "110504.828000", "110504.843000", "110504.843000", "110504.843000", "110504.843000", "110504.843000", "110504.843000", "110504.843000", "110504.859000", "110504.859000", "110504.859000", "110504.859000", "110504.859000", "110504.859000", "110504.859000", "110504.859000", "110504.875000", "110524.812000", "110524.812000", "110524.812000", "110524.812000", "110524.828000", "110524.828000", "110524.828000", "110524.828000", "110524.828000", "110524.828000", "110524.828000", "110524.843000", "110524.843000", "110524.843000", "110524.843000", "110524.843000", "110524.843000", "110524.843000", "110524.843000", "110524.859000", "110524.859000", "110524.859000", "110524.859000", "110524.859000", "110524.859000", "110524.859000", "110544.812000", "110544.812000", "110544.812000", "110544.812000", "110544.828000", "110544.828000", "110544.828000", "110544.828000", "110544.828000", "110544.828000", "110544.843000", "110544.843000", "110544.843000", "110544.843000", "110544.843000", "110544.843000", "110544.859000", "110544.859000", "110544.859000", "110544.859000", "110544.859000", "110544.859000", "110544.859000", "110544.875000", "110544.875000", "110604.812000", "110604.812000", "110604.812000", "110604.812000", "110604.828000", "110604.828000", "110604.828000", "110604.828000", "110604.828000", "110604.828000", "110604.828000", "110604.843000", "110604.843000", "110604.843000", "110604.843000", "110604.843000", "110604.843000", "110604.843000", "110604.843000", "110604.859000", "110604.859000", "110604.859000", "110604.859000", "110604.859000", "110604.859000", "110604.859000", "110624.812000", "110624.812000", "110624.812000", "110624.812000", "110624.828000", "110624.828000", "110624.828000", "110624.828000", "110624.828000", "110624.828000", "110624.828000", "110624.828000", "110624.843000", "110624.843000", "110624.843000", "110624.843000", "110624.843000", "110624.843000", "110624.843000", "110624.859000", "110624.859000", "110624.859000", "110624.859000", "110624.859000", "110624.859000", "110644.812000", "110644.812000", "110644.812000", "110644.812000", "110644.828000", "110644.828000", "110644.828000", "110644.828000", "110644.828000", "110644.828000", "110644.828000", "110644.828000", "110644.843000", "110644.843000", "110644.843000", "110644.843000", "110644.843000", "110644.843000", "110644.843000", "110644.859000", "110644.859000", "110644.859000", "110644.859000", "110644.859000", "110644.859000", "110644.859000", "110704.812000", "110704.812000", "110704.812000", "110704.812000", "110704.828000", "110704.828000", "110704.828000", "110704.828000", "110704.828000", "110704.828000", "110704.828000", "110704.828000", "110704.843000", "110704.843000", "110704.843000", "110704.843000", "110704.843000", "110704.843000", "110704.843000", "110704.859000", "110704.859000", "110704.859000", "110704.859000", "110704.859000", "110704.859000", "110724.812000", "110724.812000", "110724.812000", "110724.812000", "110724.828000", "110724.828000", "110724.828000", "110724.828000", "110724.828000", "110724.828000", "110724.828000", "110724.843000", "110724.843000", "110724.843000", "110724.843000", "110724.843000", "110724.843000", "110724.843000", "110724.843000", "110724.859000", "110724.859000", "110724.859000", "110724.859000", "110724.859000", "110724.859000", "110724.859000", "110744.812000", "110744.812000", "110744.812000", "110744.812000", "110744.828000", "110744.828000", "110744.828000", "110744.828000", "110744.828000", "110744.828000", "110744.828000", "110744.828000", "110744.843000", "110744.843000", "110744.843000", "110744.843000", "110744.843000", "110744.843000", "110744.859000", "110744.859000", "110744.859000", "110744.859000", "110744.859000", "110744.859000", "110744.859000", "110804.812000", "110804.812000", "110804.812000", "110804.812000", "110804.828000", "110804.828000", "110804.828000", "110804.828000", "110804.828000", "110804.828000", "110804.828000", "110804.828000", "110804.843000", "110804.843000", "110804.843000", "110804.843000", "110804.843000", "110804.843000", "110804.843000", "110804.859000", "110804.859000", "110804.859000", "110804.859000", "110804.859000", "110804.859000", "110804.859000", "110824.812000", "110824.812000", "110824.812000", "110824.812000", "110824.828000", "110824.828000", "110824.828000", "110824.828000", "110824.828000", "110824.828000", "110824.828000", "110824.828000", "110824.843000", "110824.843000", "110824.843000", "110824.843000", "110824.843000", "110824.843000", "110824.843000", "110824.859000", "110824.859000", "110824.859000", "110824.859000", "110824.859000", "110824.859000", "110844.812000", "110844.812000", "110844.812000", "110844.812000", "110844.828000", "110844.828000", "110844.828000", "110844.828000", "110844.828000", "110844.828000", "110844.828000", "110844.843000", "110844.843000", "110844.843000", "110844.843000", "110844.843000", "110844.843000", "110844.843000", "110844.843000", "110844.859000", "110844.859000", "110844.859000", "110844.859000", "110844.859000", "110844.859000", "110844.859000", "110904.812000", "110904.812000", "110904.812000", "110904.812000", "110904.828000", "110904.828000", "110904.828000", "110904.828000", "110904.828000", "110904.828000", "110904.828000", "110904.828000", "110904.843000", "110904.843000", "110904.843000", "110904.843000", "110904.843000", "110904.843000", "110904.843000", "110904.859000", "110904.859000", "110904.859000", "110904.859000", "110904.859000", "110904.859000", "110924.812000", "110924.812000", "110924.812000", "110924.812000", "110924.828000", "110924.828000", "110924.828000", "110924.828000", "110924.828000", "110924.828000", "110924.828000", "110924.828000", "110924.843000", "110924.843000", "110924.843000", "110924.843000", "110924.843000", "110924.843000", "110924.843000", "110924.859000", "110924.859000", "110924.859000", "110924.859000", "110924.859000", "110924.859000", "110924.875000", "110944.812000", "110944.812000", "110944.812000", "110944.812000", "110944.828000", "110944.828000", "110944.828000", "110944.828000", "110944.828000", "110944.828000", "110944.828000", "110944.828000", "110944.843000", "110944.843000", "110944.843000", "110944.843000", "110944.843000", "110944.843000", "110944.843000", "110944.859000", "110944.859000", "110944.859000", "110944.859000", "110944.859000", "110944.859000", "111004.812000", "111004.812000", "111004.812000", "111004.812000", "111004.828000", "111004.828000", "111004.828000", "111004.828000", "111004.828000", "111004.828000", "111004.828000", "111004.843000", "111004.843000", "111004.843000", "111004.843000", "111004.843000", "111004.859000", "111004.859000", "111004.859000", "111004.859000", "111004.859000", "111004.875000", "111004.875000", "111004.875000", "111004.875000", "111004.875000", "111024.812000", "111024.812000", "111024.812000", "111024.812000", "111024.828000", "111024.828000", "111024.828000", "111024.828000", "111024.828000", "111024.828000", "111024.828000", "111024.843000", "111024.843000", "111024.843000", "111024.843000", "111024.843000", "111024.843000", "111024.843000", "111024.843000", "111024.859000", "111024.859000", "111024.859000", "111024.859000", "111024.859000", "111024.859000", "111044.812000", "111044.812000", "111044.812000", "111044.812000", "111044.828000", "111044.828000", "111044.828000", "111044.828000", "111044.828000", "111044.828000", "111044.828000", "111044.843000", "111044.843000", "111044.843000", "111044.843000", "111044.843000", "111044.843000", "111044.843000", "111044.843000", "111044.859000", "111044.859000", "111044.859000", "111044.859000", "111044.859000", "111044.859000", "111044.875000", "111047.187000", "111047.187000", "111047.187000"],
