{
  "AcquisitionMatrixPE": 104,
  "AcquisitionNumber": 1,
  "AcquisitionTime": "12:03:31.685000",
  "BandwidthPerPixelPhaseEncode": 13.935,
  "BaseResolution": 104,
  "CoilString": "C:HEA;HEP",
  "ConversionSoftware": "dcm2niix",
  "ConversionSoftwareVersion": "v1.0.20210317",
  "DerivedVendorReportedEchoSpacing": 0.000690017,
  "DeviceSerialNumber": "35450",
  "DwellTime": 2.5e-06,
  "EchoTime": 0.0348,
  "EffectiveEchoSpacing": 0.000690017,
  "FlipAngle": 55,
  "ImageComments": "Unaliased MB8/PE3 (remote)",
  "ImageOrientationPatientDICOM": [1, -1.74543e-05, -6.82193e-05, -5.94602e-08, 0.968583, -0.248689],
  "ImageType": [
    "ORIGINAL",
    "PRIMARY",
    "M",
    "MB",
    "ND",
    "MOSAIC"
],
  "ImagingFrequency": 123.235,
  "InPlanePhaseEncodingDirectionDICOM": "COL",
  "InstitutionAddress": "Univeristy Ave. 197,Newark,North East,US,07102-1814",
  "InstitutionName": "RUBIC",
  "InstitutionalDepartmentName": "Department",
  "MRAcquisitionType": "2D",
  "MagneticFieldStrength": 3,
  "Manufacturer": "Siemens",
  "ManufacturersModelName": "TrioTim",
  "Modality": "MR",
  "MultibandAccelerationFactor": 8,
  "PartialFourier": 0.875,
  "PatientPosition": "HFS",
  "PercentPhaseFOV": 100,
  "PercentSampling": 100,
  "PhaseEncodingDirection": "j-",
  "PhaseEncodingSteps": 91,
  "PhaseResolution": 1,
  "PixelBandwidth": 1923,
  "ProcedureStepDescription": "Cole^Michael",
  "ProtocolName": "cmrr_mbep2d_bold_2mm_MB8_Task_8x",
  "PulseSequenceDetails": "%CustomerSeq%\\cmrr_mbep2d_bold",
  "ReceiveCoilName": "32Ch_Head",
  "ReconMatrixPE": 104,
  "RepetitionTime": 0.785,
  "SAR": 0.134922,
  "ScanOptions": "PFP\\FS",
  "ScanningSequence": "EP",
  "SequenceName": "epfid2d1_104",
  "SequenceVariant": "SK\\SS",
  "SeriesDescription": "cmrr_mbep2d_bold_2mm_MB8_Task_8x",
  "SeriesNumber": 23,
  "ShimSetting": [2133, -299, -7271, 496, 152, -502, -192, 16],
  "SliceThickness": 2,
  "SliceTiming": [0, 0.4375, 0.0875, 0.525, 0.175, 0.6125, 0.2625, 0.7, 0.35, 0, 0.4375, 0.0875, 0.525, 0.175, 0.6125, 0.2625, 0.7, 0.35, 0, 0.4375, 0.0875, 0.525, 0.175, 0.6125, 0.2625, 0.7, 0.35, 0, 0.4375, 0.0875, 0.525, 0.175, 0.6125, 0.2625, 0.7, 0.35, 0, 0.4375, 0.0875, 0.525, 0.175, 0.6125, 0.2625, 0.7, 0.35, 0, 0.4375, 0.0875, 0.525, 0.175, 0.6125, 0.2625, 0.7, 0.35, 0, 0.4375, 0.0875, 0.525, 0.175, 0.6125, 0.2625, 0.7, 0.35, 0, 0.4375, 0.0875, 0.525, 0.175, 0.6125, 0.2625, 0.7, 0.35],
  "SoftwareVersions": "syngo MR B19",
  "SpacingBetweenSlices": 2,
  "StationName": "MRC35450",
  "TaskName": "cpro",
  "TotalReadoutTime": 0.0710717,
  "TxRefAmp": 330.163,
  "dcmmeta_affine": [
    [-2.0, -1.1892039708527591e-07, -0.00014083347923588008, 101.982421875],
    [3.490859307930805e-05, 1.937166690826416, -0.49737855792045593, -71.7582015991211],
    [-0.00013643853890243918, 0.49737855792045593, 1.937166690826416, -120.71822357177734],
    [0.0, 0.0, 0.0, 1.0]
],
  "dcmmeta_reorient_transform": [
    [0.0, -1.0, 0.0, 103.0],
    [1.0, 0.0, 0.0, 0.0],
    [0.0, 0.0, 1.0, 0.0],
    [0.0, 0.0, 0.0, 1.0]
],
  "dcmmeta_shape": [104, 104, 72, 581],
  "dcmmeta_slice_dim": 2,
  "dcmmeta_version": 0.6,
  "global": {
    "const": {
      "AcquisitionMatrix": [104, 0, 0, 104],
      "AngioFlag": "N",
      "BitsAllocated": 16,
      "BitsStored": 12,
      "Columns": 936,
      "EchoNumbers": 1,
      "EchoTime": 34.8,
      "EchoTrainLength": 1,
      "FlipAngle": 55.0,
      "HighBit": 11,
      "ImageOrientationPatient": [0.99999999752074, -1.74542964e-05, -6.82192675e-05, -5.9460198e-08, 0.96858331704981, -0.2486892798912],
      "ImagePositionPatient": [-933.98235627027, -933.6167577209, 137.47801042343],
      "ImageType": [
        "ORIGINAL",
        "PRIMARY",
        "M",
        "MB",
        "ND",
        "MOSAIC"
],
      "ImagedNucleus": "1H",
      "ImagingFrequency": 123.234517,
      "InPlanePhaseEncodingDirection": "COL",
      "MRAcquisitionType": "2D",
      "MagneticFieldStrength": 3.0,
      "Manufacturer": "SIEMENS",
      "ManufacturerModelName": "TrioTim",
      "Modality": "MR",
      "NumberOfAverages": 1.0,
      "NumberOfPhaseEncodingSteps": 91,
      "PercentPhaseFieldOfView": 100.0,
      "PercentSampling": 100.0,
      "PerformedProcedureStepStartTime": "100106.750000",
      "PhotometricInterpretation": "MONOCHROME2",
      "PixelBandwidth": 1923.0,
      "PixelRepresentation": 0,
      "PixelSpacing": [2.0, 2.0],
      "ProtocolName": "cmrr_mbep2d_bold_2mm_MB8_Task_8x",
      "RepetitionTime": 785.0,
      "Rows": 936,
      "SAR": 0.13492180444493,
      "SamplesPerPixel": 1,
      "ScanOptions": [
        "PFP",
        "FS"
],
      "ScanningSequence": "EP",
      "SequenceName": "epfid2d1_104",
      "SequenceVariant": [
        "SK",
        "SS"
],
      "SeriesDescription": "cmrr_mbep2d_bold_2mm_MB8_Task_8x",
      "SeriesNumber": 23,
      "SeriesTime": "120352.718000",
      "SliceLocation": -99.087339566512,
      "SliceThickness": 2.0,
      "SmallestImagePixelValue": 0,
      "SoftwareVersions": "syngo MR B19",
      "SpacingBetweenSlices": 2.000000041491,
      "SpecificCharacterSet": "ISO_IR 100",
      "StudyID": "1",
      "StudyTime": "100106.687000",
      "TransmitCoilName": "Body",
      "VariableFlipAngleFlag": "N",
      "WindowCenterWidthExplanation": "Algo1",
      "dBdt": 0.0},
    "slices": {}
  },
  "time": {
    "samples": {
      "AcquisitionNumber": [1, 2, 3, 4, 5, 6, 7, 8, 9, 10, 11, 12, 13, 14, 15, 16, 17, 18, 19, 20, 21, 22, 23, 24, 25, 26, 27, 28, 29, 30, 31, 32, 33, 34, 35, 36, 37, 38, 39, 40, 41, 42, 43, 44, 45, 46, 47, 48, 49, 50, 51, 52, 53, 54, 55, 56, 57, 58, 59, 60, 61, 62, 63, 64, 65, 66, 67, 68, 69, 70, 71, 72, 73, 74, 75, 76, 77, 78, 79, 80, 81, 82, 83, 84, 85, 86, 87, 88, 89, 90, 91, 92, 93, 94, 95, 96, 97, 98, 99, 100, 101, 102, 103, 104, 105, 106, 107, 108, 109, 110, 111, 112, 113, 114, 115, 116, 117, 118, 119, 120, 121, 122, 123, 124, 125, 126, 127, 128, 129, 130, 131, 132, 133, 134, 135, 136, 137, 138, 139, 140, 141, 142, 143, 144, 145, 146, 147, 148, 149, 150, 151, 152, 153, 154, 155, 156, 157, 158, 159, 160, 161, 162, 163, 164, 165, 166, 167, 168, 169, 170, 171, 172, 173, 174, 175, 176, 177, 178, 179, 180, 181, 182, 183, 184, 185, 186, 187, 188, 189, 190, 191, 192, 193, 194, 195, 196, 197, 198, 199, 200, 201, 202, 203, 204, 205, 206, 207, 208, 209, 210, 211, 212, 213, 214, 215, 216, 217, 218, 219, 220, 221, 222, 223, 224, 225, 226, 227, 228, 229, 230, 231, 232, 233, 234, 235, 236, 237, 238, 239, 240, 241, 242, 243, 244, 245, 246, 247, 248, 249, 250, 251, 252, 253, 254, 255, 256, 257, 258, 259, 260, 261, 262, 263, 264, 265, 266, 267, 268, 269, 270, 271, 272, 273, 274, 275, 276, 277, 278, 279, 280, 281, 282, 283, 284, 285, 286, 287, 288, 289, 290, 291, 292, 293, 294, 295, 296, 297, 298, 299, 300, 301, 302, 303, 304, 305, 306, 307, 308, 309, 310, 311, 312, 313, 314, 315, 316, 317, 318, 319, 320, 321, 322, 323, 324, 325, 326, 327, 328, 329, 330, 331, 332, 333, 334, 335, 336, 337, 338, 339, 340, 341, 342, 343, 344, 345, 346, 347, 348, 349, 350, 351, 352, 353, 354, 355, 356, 357, 358, 359, 360, 361, 362, 363, 364, 365, 366, 367, 368, 369, 370, 371, 372, 373, 374, 375, 376, 377, 378, 379, 380, 381, 382, 383, 384, 385, 386, 387, 388, 389, 390, 391, 392, 393, 394, 395, 396, 397, 398, 399, 400, 401, 402, 403, 404, 405, 406, 407, 408, 409, 410, 411, 412, 413, 414, 415, 416, 417, 418, 419, 420, 421, 422, 423, 424, 425, 426, 427, 428, 429, 430, 431, 432, 433, 434, 435, 436, 437, 438, 439, 440, 441, 442, 443, 444, 445, 446, 447, 448, 449, 450, 451, 452, 453, 454, 455, 456, 457, 458, 459, 460, 461, 462, 463, 464, 465, 466, 467, 468, 469, 470, 471, 472, 473, 474, 475, 476, 477, 478, 479, 480, 481, 482, 483, 484, 485, 486, 487, 488, 489, 490, 491, 492, 493, 494, 495, 496, 497, 498, 499, 500, 501, 502, 503, 504, 505, 506, 507, 508, 509, 510, 511, 512, 513, 514, 515, 516, 517, 518, 519, 520, 521, 522, 523, 524, 525, 526, 527, 528, 529, 530, 531, 532, 533, 534, 535, 536, 537, 538, 539, 540, 541, 542, 543, 544, 545, 546, 547, 548, 549, 550, 551, 552, 553, 554, 555, 556, 557, 558, 559, 560, 561, 562, 563, 564, 565, 566, 567, 568, 569, 570, 571, 572, 573, 574, 575, 576, 577, 578, 579, 580, 581],
      "AcquisitionTime": ["120331.685000", "120332.472500", "120333.260000", "120334.050000", "120334.837500", "120335.625000", "120336.412500", "120337.202500", "120337.990000", "120338.777500", "120339.565000", "120340.355000", "120341.142500", "120341.930000", "120342.720000", "120343.507500", "120344.295000", "120345.082500", "120345.872500", "120346.660000", "120347.447500", "120348.235000", "120349.025000", "120349.812500", "120350.600000", "120351.387500", "120352.177500", "120352.965000", "120353.752500", "120354.540000", "120355.330000", "120356.117500", "120356.905000", "120357.692500", "120358.482500", "120359.270000", "120400.057500", "120400.847500", "120401.635000", "120402.422500", "120403.210000", "120404.000000", "120404.787500", "120405.575000", "120406.362500", "120407.152500", "120407.940000", "120408.727500", "120409.515000", "120410.305000", "120411.092500", "120411.880000", "120412.667500", "120413.457500", "120414.245000", "120415.032500", "120415.820000", "120416.610000", "120417.397500", "120418.185000", "120418.975000", "120419.762500", "120420.550000", "120421.337500", "120422.127500", "120422.915000", "120423.702500", "120424.490000", "120425.280000", "120426.067500", "120426.855000", "120427.642500", "120428.432500", "120429.220000", "120430.007500", "120430.795000", "120431.585000", "120432.372500", "120433.160000", "120433.947500", "120434.737500", "120435.525000", "120436.312500", "120437.102500", "120437.890000", "120438.677500", "120439.465000", "120440.255000", "120441.042500", "120441.830000", "120442.617500", "120443.407500", "120444.195000", "120444.982500", "120445.770000", "120446.560000", "120447.347500", "120448.135000", "120448.922500", "120449.712500", "120450.500000", "120451.287500", "120452.077500", "120452.865000", "120453.652500", "120454.440000", "120455.230000", "120456.017500", "120456.805000", "120457.592500", "120458.382500", "120459.170000", "120459.957500", "120500.745000", "120501.535000", "120502.322500", "120503.110000", "120503.897500", "120504.687500", "120505.475000", "120506.262500", "120507.050000", "120507.840000", "120508.627500", "120509.415000", "120510.205000", "120510.992500", "120511.780000", "120512.567500", "120513.357500", "120514.145000", "120514.932500", "120515.720000", "120516.510000", "120517.297500", "120518.085000", "120518.872500", "120519.662500", "120520.450000", "120521.237500", "120522.025000", "120522.815000", "120523.602500", "120524.390000", "120525.177500", "120525.967500", "120526.755000", "120527.542500", "120528.332500", "120529.120000", "120529.907500", "120530.695000", "120531.485000", "120532.272500", "120533.060000", "120533.847500", "120534.637500", "120535.425000", "120536.212500", "120537.000000", "120537.790000", "120538.577500", "120539.365000", "120540.152500", "120540.942500", "120541.730000", "120542.517500", "120543.305000", "120544.095000", "120544.882500", "120545.670000", "120546.460000", "120547.247500", "120548.035000", "120548.822500", "120549.612500", "120550.400000", "120551.187500", "120551.975000", "120552.765000", "120553.552500", "120554.340000", "120555.127500", "120555.917500", "120556.705000", "120557.492500", "120558.280000", "120559.070000", "120559.857500", "120600.645000", "120601.432500", "120602.222500", "120603.010000", "120603.797500", "120604.587500", "120605.375000", "120606.162500", "120606.950000", "120607.740000", "120608.527500", "120609.315000", "120610.102500", "120610.892500", "120611.680000", "120612.467500", "120613.255000", "120614.045000", "120614.832500", "120615.620000", "120616.407500", "120617.197500", "120617.985000", "120618.772500", "120619.560000", "120620.350000", "120621.137500", "120621.925000", "120622.715000", "120623.502500", "120624.290000", "120625.077500", "120625.867500", "120626.655000", "120627.442500", "120628.230000", "120629.020000", "120629.807500", "120630.595000", "120631.382500", "120632.172500", "120632.960000", "120633.747500", "120634.535000", "120635.325000", "120636.112500", "120636.900000", "120637.687500", "120638.477500", "120639.265000", "120640.052500", "120640.842500", "120641.630000", "120642.417500", "120643.205000", "120643.995000", "120644.782500", "120645.570000", "120646.357500", "120647.147500", "120647.935000", "120648.722500", "120649.510000", "120650.300000", "120651.087500", "120651.875000", "120652.662500", "120653.452500", "120654.240000", "120655.027500", "120655.815000", "120656.605000", "120657.392500", "120658.180000", "120658.970000", "120659.757500", "120700.545000", "120701.332500", "120702.122500", "120702.910000", "120703.697500", "120704.485000", "120705.275000", "120706.062500", "120706.850000", "120707.637500", "120708.427500", "120709.215000", "120710.002500", "120710.790000", "120711.580000", "120712.367500", "120713.155000", "120713.942500", "120714.732500", "120715.520000", "120716.307500", "120717.097500", "120717.885000", "120718.672500", "120719.460000", "120720.250000", "120721.037500", "120721.825000", "120722.612500", "120723.402500", "120724.190000", "120724.977500", "120725.765000", "120726.555000", "120727.342500", "120728.130000", "120728.917500", "120729.707500", "120730.495000", "120731.282500", "120732.070000", "120732.860000", "120733.647500", "120734.435000", "120735.225000", "120736.012500", "120736.800000", "120737.587500", "120738.377500", "120739.165000", "120739.952500", "120740.740000", "120741.530000", "120742.317500", "120743.105000", "120743.892500", "120744.682500", "120745.470000", "120746.257500", "120747.045000", "120747.835000", "120748.622500", "120749.410000", "120750.197500", "120750.987500", "120751.775000", "120752.562500", "120753.352500", "120754.140000", "120754.927500", "120755.715000", "120756.505000", "120757.292500", "120758.080000", "120758.867500", "120759.657500", "120800.445000", "120801.232500", "120802.020000", "120802.810000", "120803.597500", "120804.385000", "120805.172500", "120805.962500", "120806.750000", "120807.537500", "120808.327500", "120809.115000", "120809.902500", "120810.690000", "120811.480000", "120812.267500", "120813.055000", "120813.842500", "120814.632500", "120815.420000", "120816.207500", "120816.995000", "120817.785000", "120818.572500", "120819.360000", "120820.147500", "120820.937500", "120821.725000", "120822.512500", "120823.300000", "120824.090000", "120824.877500", "120825.665000", "120826.455000", "120827.242500", "120828.030000", "120828.817500", "120829.607500", "120830.395000", "120831.182500", "120831.970000", "120832.760000", "120833.547500", "120834.335000", "120835.122500", "120835.912500", "120836.700000", "120837.487500", "120838.275000", "120839.065000", "120839.852500", "120840.640000", "120841.427500", "120842.217500", "120843.005000", "120843.792500", "120844.582500", "120845.370000", "120846.157500", "120846.945000", "120847.735000", "120848.522500", "120849.310000", "120850.097500", "120850.887500", "120851.675000", "120852.462500", "120853.250000", "120854.040000", "120854.827500", "120855.615000", "120856.402500", "120857.192500", "120857.980000", "120858.767500", "120859.555000", "120900.345000", "120901.132500", "120901.920000", "120902.710000", "120903.497500", "120904.285000", "120905.072500", "120905.862500", "120906.650000", "120907.437500", "120908.225000", "120909.015000", "120909.802500", "120910.590000", "120911.377500", "120912.167500", "120912.955000", "120913.742500", "120914.530000", "120915.320000", "120916.107500", "120916.895000", "120917.682500", "120918.472500", "120919.260000", "120920.047500", "120920.837500", "120921.625000", "120922.412500", "120923.200000", "120923.990000", "120924.777500", "120925.565000", "120926.352500", "120927.142500", "120927.930000", "120928.717500", "120929.505000", "120930.295000", "120931.082500", "120931.870000", "120932.657500", "120933.447500", "120934.235000", "120935.022500", "120935.810000", "120936.600000", "120937.387500", "120938.175000", "120938.965000", "120939.752500", "120940.540000", "120941.327500", "120942.117500", "120942.905000", "120943.692500", "120944.480000", "120945.270000", "120946.057500", "120946.845000", "120947.632500", "120948.422500", "120949.210000", "120949.997500", "120950.785000", "120951.575000", "120952.362500", "120953.150000", "120953.937500", "120954.727500", "120955.515000", "120956.302500", "120957.092500", "120957.880000", "120958.667500", "120959.455000", "121000.245000", "121001.032500", "121001.820000", "121002.607500", "121003.397500", "121004.185000", "121004.972500", "121005.760000", "121006.550000", "121007.337500", "121008.125000", "121008.912500", "121009.702500", "121010.490000", "121011.277500", "121012.065000", "121012.855000", "121013.642500", "121014.430000", "121015.220000", "121016.007500", "121016.795000", "121017.582500", "121018.372500", "121019.160000", "121019.947500", "121020.735000", "121021.525000", "121022.312500", "121023.100000", "121023.887500", "121024.677500", "121025.465000", "121026.252500", "121027.040000", "121027.830000", "121028.617500", "121029.405000", "121030.192500", "121030.982500", "121031.770000", "121032.557500", "121033.347500", "121034.135000", "121034.922500", "121035.710000", "121036.500000", "121037.287500", "121038.075000", "121038.862500", "121039.652500", "121040.440000", "121041.227500", "121042.015000", "121042.805000", "121043.592500", "121044.380000", "121045.167500", "121045.957500", "121046.745000", "121047.532500", "121048.320000", "121049.110000", "121049.897500", "121050.685000", "121051.475000", "121052.262500", "121053.050000", "121053.837500", "121054.627500", "121055.415000", "121056.202500", "121056.990000", "121057.780000", "121058.567500", "121059.355000", "121100.142500", "121100.932500", "121101.720000", "121102.507500", "121103.295000", "121104.085000", "121104.872500", "121105.660000", "121106.447500", "121107.237500", "121108.025000", "121108.812500"],
      "ContentTime": ["120352.718000", "120352.718000", "120352.718000", "120352.718000", "120352.734000", "120352.734000", "120352.734000", "120352.734000", "120352.734000", "120352.734000", "120352.734000", "120352.734000", "120352.750000", "120352.750000", "120352.750000", "120352.750000", "120352.750000", "120352.750000", "120352.750000", "120352.750000", "120352.765000", "120352.765000", "120352.765000", "120412.687000", "120412.687000", "120412.687000", "120412.687000", "120412.703000", "120412.703000", "120412.703000", "120412.703000", "120412.703000", "120412.703000", "120412.703000", "120412.703000", "120412.718000", "120412.718000", "120412.718000", "120412.718000", "120412.718000", "120412.718000", "120412.718000", "120412.734000", "120412.734000", "120412.734000", "120412.734000", "120412.734000", "120412.734000", "120412.734000", "120432.687000", "120432.687000", "120432.687000", "120432.687000", "120432.703000", "120432.703000", "120432.703000", "120432.703000", "120432.703000", "120432.703000", "120432.703000", "120432.718000", "120432.718000", "120432.718000", "120432.718000", "120432.718000", "120432.718000", "120432.718000", "120432.734000", "120432.734000", "120432.734000", "120432.734000", "120432.734000", "120432.734000", "120432.734000", "120452.687000", "120452.687000", "120452.687000", "120452.687000", "120452.703000", "120452.703000", "120452.703000", "120452.703000", "120452.703000", "120452.703000", "120452.703000", "120452.718000", "120452.718000", "120452.718000", "120452.718000", "120452.718000", "120452.718000", "120452.718000", "120452.734000", "120452.734000", "120452.734000", "120452.734000", "120452.734000", "120452.734000", "120452.734000", "120452.750000", "120512.687000", "120512.687000", "120512.687000", "120512.687000", "120512.703000", "120512.703000", "120512.703000", "120512.703000", "120512.703000", "120512.703000", "120512.703000", "120512.718000", "120512.718000", "120512.718000", "120512.718000", "120512.718000", "120512.718000", "120512.718000", "120512.718000", "120512.734000", "120512.734000", "120512.734000", "120512.734000", "120512.734000", "120512.734000", "120532.687000", "120532.687000", "120532.687000", "120532.703000", "120532.703000", "120532.703000", "120532.703000", "120532.703000", "120532.703000", "120532.703000", "120532.718000", "120532.718000", "120532.718000", "120532.718000", "120532.718000", "120532.718000", "120532.718000", "120532.718000", "120532.734000", "120532.734000", "120532.734000", "120532.734000", "120532.734000", "120532.734000", "120532.734000", "120532.750000", "120552.687000", "120552.687000", "120552.687000", "120552.687000", "120552.703000", "120552.703000", "120552.703000", "120552.703000", "120552.703000", "120552.703000", "120552.703000", "120552.718000", "120552.718000", "120552.718000", "120552.718000", "120552.718000", "120552.718000", "120552.718000", "120552.734000", "120552.734000", "120552.734000", "120552.734000", "120552.734000", "120552.734000", "120552.734000", "120612.687000", "120612.687000", "120612.687000", "120612.687000", "120612.703000", "120612.703000", "120612.703000", "120612.703000", "120612.703000", "120612.703000", "120612.703000", "120612.703000", "120612.718000", "120612.718000", "120612.718000", "120612.718000", "120612.718000", "120612.718000", "120612.718000", "120612.734000", "120612.734000", "120612.734000", "120612.734000", "120612.734000", "120612.734000", "120612.734000", "120632.687000", "120632.687000", "120632.687000", "120632.687000", "120632.703000", "120632.703000", "120632.703000", "120632.703000", "120632.703000", "120632.703000", "120632.703000", "120632.703000", "120632.718000", "120632.718000", "120632.718000", "120632.718000", "120632.718000", "120632.718000", "120632.718000", "120632.734000", "120632.734000", "120632.734000", "120632.734000", "120632.734000", "120632.734000", "120652.687000", "120652.687000", "120652.687000", "120652.687000", "120652.703000", "120652.718000", "120652.718000", "120652.718000", "120652.718000", "120652.718000", "120652.734000", "120652.734000", "120652.734000", "120652.734000", "120652.734000", "120652.734000", "120652.734000", "120652.734000", "120652.750000", "120652.750000", "120652.750000", "120652.750000", "120652.750000", "120652.765000", "120652.765000", "120712.687000", "120712.687000", "120712.687000", "120712.687000", "120712.703000", "120712.703000", "120712.703000", "120712.703000", "120712.703000", "120712.703000", "120712.703000", "120712.703000", "120712.718000", "120712.718000", "120712.718000", "120712.718000", "120712.718000", "120712.718000", "120712.718000", "120712.734000", "120712.734000", "120712.734000", "120712.734000", "120712.734000", "120712.734000", "120712.734000", "120732.687000", "120732.687000", "120732.687000", "120732.687000", "120732.703000", "120732.703000", "120732.703000", "120732.703000", "120732.703000", "120732.703000", "120732.703000", "120732.703000", "120732.718000", "120732.718000", "120732.718000", "120732.718000", "120732.718000", "120732.718000", "120732.734000", "120732.734000", "120732.734000", "120732.734000", "120732.734000", "120732.734000", "120732.734000", "120752.687000", "120752.687000", "120752.687000", "120752.687000", "120752.703000", "120752.703000", "120752.703000", "120752.703000", "120752.703000", "120752.703000", "120752.703000", "120752.703000", "120752.718000", "120752.718000", "120752.718000", "120752.718000", "120752.718000", "120752.718000", "120752.718000", "120752.734000", "120752.734000", "120752.734000", "120752.734000", "120752.734000", "120752.734000", "120752.734000", "120812.687000", "120812.687000", "120812.687000", "120812.687000", "120812.703000", "120812.703000", "120812.703000", "120812.703000", "120812.703000", "120812.703000", "120812.703000", "120812.718000", "120812.718000", "120812.718000", "120812.718000", "120812.718000", "120812.718000", "120812.718000", "120812.734000", "120812.734000", "120812.734000", "120812.734000", "120812.734000", "120812.734000", "120812.734000", "120832.687000", "120832.687000", "120832.687000", "120832.687000", "120832.703000", "120832.703000", "120832.703000", "120832.703000", "120832.703000", "120832.703000", "120832.703000", "120832.703000", "120832.718000", "120832.718000", "120832.718000", "120832.718000", "120832.718000", "120832.718000", "120832.718000", "120832.734000", "120832.734000", "120832.734000", "120832.734000", "120832.734000", "120832.734000", "120832.750000", "120852.687000", "120852.687000", "120852.687000", "120852.687000", "120852.703000", "120852.703000", "120852.703000", "120852.703000", "120852.703000", "120852.703000", "120852.703000", "120852.718000", "120852.718000", "120852.718000", "120852.718000", "120852.718000", "120852.718000", "120852.718000", "120852.734000", "120852.734000", "120852.734000", "120852.734000", "120852.734000", "120852.734000", "120852.750000", "120912.687000", "120912.687000", "120912.687000", "120912.687000", "120912.703000", "120912.703000", "120912.703000", "120912.703000", "120912.703000", "120912.703000", "120912.703000", "120912.703000", "120912.718000", "120912.718000", "120912.718000", "120912.718000", "120912.718000", "120912.718000", "120912.718000", "120912.734000", "120912.734000", "120912.734000", "120912.734000", "120912.734000", "120912.734000", "120912.734000", "120932.687000", "120932.687000", "120932.687000", "120932.687000", "120932.703000", "120932.703000", "120932.703000", "120932.703000", "120932.703000", "120932.718000", "120932.718000", "120932.718000", "120932.718000", "120932.718000", "120932.718000", "120932.718000", "120932.718000", "120932.734000", "120932.734000", "120932.734000", "120932.734000", "120932.734000", "120932.734000", "120932.734000", "120932.750000", "120952.687000", "120952.687000", "120952.687000", "120952.687000", "120952.703000", "120952.703000", "120952.703000", "120952.703000", "120952.703000", "120952.703000", "120952.703000", "120952.718000", "120952.718000", "120952.718000", "120952.718000", "120952.718000", "120952.718000", "120952.718000", "120952.734000", "120952.734000", "120952.734000", "120952.734000", "120952.734000", "120952.734000", "120952.750000", "120952.750000", "121012.687000", "121012.687000", "121012.687000", "121012.687000", "121012.703000", "121012.703000", "121012.703000", "121012.703000", "121012.703000", "121012.703000", "121012.703000", "121012.703000", "121012.718000", "121012.718000", "121012.718000", "121012.718000", "121012.718000", "121012.718000", "121012.718000", "121012.734000", "121012.734000", "121012.734000", "121012.734000", "121012.734000", "121012.734000", "121032.687000", "121032.687000", "121032.687000", "121032.703000", "121032.703000", "121032.703000", "121032.703000", "121032.703000", "121032.703000", "121032.718000", "121032.718000", "121032.718000", "121032.718000", "121032.718000", "121032.718000", "121032.718000", "121032.718000", "121032.734000", "121032.734000", "121032.734000", "121032.734000", "121032.734000", "121032.750000", "121032.750000", "121032.750000", "121032.750000", "121052.687000", "121052.687000", "121052.687000", "121052.687000", "121052.703000", "121052.703000", "121052.703000", "121052.703000", "121052.703000", "121052.718000", "121052.718000", "121052.718000", "121052.718000", "121052.718000", "121052.718000", "121052.718000", "121052.734000", "121052.734000", "121052.734000", "121052.734000", "121052.734000", "121052.734000", "121052.734000", "121052.750000", "121052.750000", "121110.265000", "121110.265000", "121110.265000", "121110.265000", "121110.265000", "121110.281000", "121110.281000", "121110.281000", "121110.281000", "121110.281000", "121110.281000", "121110.281000", "121110.281000", "121110.296000", "121110.296000", "121110.296000", "121110.296000", "121110.296000", "121110.296000", "121110.312000", "121110.312000", "121110.312000", "121110.312000"],
