{
  "AcquisitionMatrixPE": 104,
  "AcquisitionNumber": 1,
  "AcquisitionTime": "10:36:39.007500",
  "BandwidthPerPixelPhaseEncode": 13.935,
  "BaseResolution": 104,
  "CoilString": "C:HEA;HEP",
  "ConversionSoftware": "dcm2niix",
  "ConversionSoftwareVersion": "v1.0.20210317",
  "DerivedVendorReportedEchoSpacing": 0.000690017,
  "DeviceSerialNumber": "35450",
  "DwellTime": 2.5e-06,
  "EchoTime": 0.0348,
  "EffectiveEchoSpacing": 0.000690017,
  "FlipAngle": 55,
  "ImageComments": "Unaliased MB8/PE3 (remote)",
  "ImageOrientationPatientDICOM": [1, -1.74543e-05, -6.82193e-05, -5.94602e-08, 0.968583, -0.248689],
  "ImageType": [
    "ORIGINAL",
    "PRIMARY",
    "M",
    "MB",
    "ND",
    "MOSAIC"
],
  "ImagingFrequency": 123.234,
  "InPlanePhaseEncodingDirectionDICOM": "COL",
  "InstitutionAddress": "Univeristy Ave. 197,Newark,North East,US,07102-1814",
  "InstitutionName": "RUBIC",
  "InstitutionalDepartmentName": "Department",
  "MRAcquisitionType": "2D",
  "MagneticFieldStrength": 3,
  "Manufacturer": "Siemens",
  "ManufacturersModelName": "TrioTim",
  "Modality": "MR",
  "MultibandAccelerationFactor": 8,
  "PartialFourier": 0.875,
  "PatientPosition": "HFS",
  "PercentPhaseFOV": 100,
  "PercentSampling": 100,
  "PhaseEncodingDirection": "j-",
  "PhaseEncodingSteps": 91,
  "PhaseResolution": 1,
  "PixelBandwidth": 1923,
  "ProcedureStepDescription": "Cole^Michael",
  "ProtocolName": "cmrr_mbep2d_bold_2mm_MB8_Rest",
  "PulseSequenceDetails": "%CustomerSeq%\\cmrr_mbep2d_bold",
  "ReceiveCoilName": "32Ch_Head",
  "ReconMatrixPE": 104,
  "RepetitionTime": 0.785,
  "SAR": 0.149918,
  "ScanOptions": "PFP\\FS",
  "ScanningSequence": "EP",
  "SequenceName": "epfid2d1_104",
  "SequenceVariant": "SK\\SS",
  "SeriesDescription": "cmrr_mbep2d_bold_2mm_MB8_Rest",
  "SeriesNumber": 9,
  "ShimSetting": [2133, -299, -7271, 496, 152, -502, -192, 16],
  "SliceThickness": 2,
  "SliceTiming": [0, 0.4375, 0.0875, 0.525, 0.175, 0.6125, 0.2625, 0.7, 0.35, 0, 0.4375, 0.0875, 0.525, 0.175, 0.6125, 0.2625, 0.7, 0.35, 0, 0.4375, 0.0875, 0.525, 0.175, 0.6125, 0.2625, 0.7, 0.35, 0, 0.4375, 0.0875, 0.525, 0.175, 0.6125, 0.2625, 0.7, 0.35, 0, 0.4375, 0.0875, 0.525, 0.175, 0.6125, 0.2625, 0.7, 0.35, 0, 0.4375, 0.0875, 0.525, 0.175, 0.6125, 0.2625, 0.7, 0.35, 0, 0.4375, 0.0875, 0.525, 0.175, 0.6125, 0.2625, 0.7, 0.35, 0, 0.4375, 0.0875, 0.525, 0.175, 0.6125, 0.2625, 0.7, 0.35],
  "SoftwareVersions": "syngo MR B19",
  "SpacingBetweenSlices": 2,
  "StationName": "MRC35450",
  "TaskName": "rest",
  "TotalReadoutTime": 0.0710717,
  "TxRefAmp": 330.163,
  "dcmmeta_affine": [
    [-2.0, -1.1892039708527591e-07, -0.00014083347923588008, 101.982421875],
    [3.490859307930805e-05, 1.937166690826416, -0.49737855792045593, -71.7582015991211],
    [-0.00013643853890243918, 0.49737855792045593, 1.937166690826416, -120.71822357177734],
    [0.0, 0.0, 0.0, 1.0]
],
  "dcmmeta_reorient_transform": [
    [0.0, -1.0, 0.0, 103.0],
    [1.0, 0.0, 0.0, 0.0],
    [0.0, 0.0, 1.0, 0.0],
    [0.0, 0.0, 0.0, 1.0]
],
  "dcmmeta_shape": [104, 104, 72, 1070],
  "dcmmeta_slice_dim": 2,
  "dcmmeta_version": 0.6,
  "global": {
    "const": {
      "AcquisitionMatrix": [104, 0, 0, 104],
      "AngioFlag": "N",
      "BitsAllocated": 16,
      "BitsStored": 12,
      "Columns": 936,
      "EchoNumbers": 1,
      "EchoTime": 34.8,
      "EchoTrainLength": 1,
      "FlipAngle": 55.0,
      "HighBit": 11,
      "ImageOrientationPatient": [0.99999999752074, -1.74542964e-05, -6.82192675e-05, -5.9460198e-08, 0.96858331704981, -0.2486892798912],
      "ImagePositionPatient": [-933.98235627027, -933.6167577209, 137.47801042343],
      "ImageType": [
        "ORIGINAL",
        "PRIMARY",
        "M",
        "MB",
        "ND",
        "MOSAIC"
],
      "ImagedNucleus": "1H",
      "ImagingFrequency": 123.234459,
      "InPlanePhaseEncodingDirection": "COL",
      "MRAcquisitionType": "2D",
      "MagneticFieldStrength": 3.0,
      "Manufacturer": "SIEMENS",
      "ManufacturerModelName": "TrioTim",
      "Modality": "MR",
      "NumberOfAverages": 1.0,
      "NumberOfPhaseEncodingSteps": 91,
      "PercentPhaseFieldOfView": 100.0,
      "PercentSampling": 100.0,
      "PerformedProcedureStepStartTime": "100106.750000",
      "PhotometricInterpretation": "MONOCHROME2",
      "PixelBandwidth": 1923.0,
      "PixelRepresentation": 0,
      "PixelSpacing": [2.0, 2.0],
      "ProtocolName": "cmrr_mbep2d_bold_2mm_MB8_Rest",
      "RepetitionTime": 785.0,
      "Rows": 936,
      "SAR": 0.14991784154243,
      "SamplesPerPixel": 1,
      "ScanOptions": [
        "PFP",
        "FS"
],
      "ScanningSequence": "EP",
      "SequenceName": "epfid2d1_104",
      "SequenceVariant": [
        "SK",
        "SS"
],
      "SeriesDescription": "cmrr_mbep2d_bold_2mm_MB8_Rest",
      "SeriesNumber": 9,
      "SeriesTime": "103702.125000",
      "SliceLocation": -99.087339566512,
      "SliceThickness": 2.0,
      "SmallestImagePixelValue": 0,
      "SoftwareVersions": "syngo MR B19",
      "SpacingBetweenSlices": 2.000000041491,
      "SpecificCharacterSet": "ISO_IR 100",
      "StudyID": "1",
      "StudyTime": "100106.687000",
      "TransmitCoilName": "Body",
      "VariableFlipAngleFlag": "N",
      "WindowCenterWidthExplanation": "Algo1",
      "dBdt": 0.0},
    "slices": {}
  },
  "time": {
    "samples": {
      "AcquisitionNumber": [1, 2, 3, 4, 5, 6, 7, 8, 9, 10, 11, 12, 13, 14, 15, 16, 17, 18, 19, 20, 21, 22, 23, 24, 25, 26, 27, 28, 29, 30, 31, 32, 33, 34, 35, 36, 37, 38, 39, 40, 41, 42, 43, 44, 45, 46, 47, 48, 49, 50, 51, 52, 53, 54, 55, 56, 57, 58, 59, 60, 61, 62, 63, 64, 65, 66, 67, 68, 69, 70, 71, 72, 73, 74, 75, 76, 77, 78, 79, 80, 81, 82, 83, 84, 85, 86, 87, 88, 89, 90, 91, 92, 93, 94, 95, 96, 97, 98, 99, 100, 101, 102, 103, 104, 105, 106, 107, 108, 109, 110, 111, 112, 113, 114, 115, 116, 117, 118, 119, 120, 121, 122, 123, 124, 125, 126, 127, 128, 129, 130, 131, 132, 133, 134, 135, 136, 137, 138, 139, 140, 141, 142, 143, 144, 145, 146, 147, 148, 149, 150, 151, 152, 153, 154, 155, 156, 157, 158, 159, 160, 161, 162, 163, 164, 165, 166, 167, 168, 169, 170, 171, 172, 173, 174, 175, 176, 177, 178, 179, 180, 181, 182, 183, 184, 185, 186, 187, 188, 189, 190, 191, 192, 193, 194, 195, 196, 197, 198, 199, 200, 201, 202, 203, 204, 205, 206, 207, 208, 209, 210, 211, 212, 213, 214, 215, 216, 217, 218, 219, 220, 221, 222, 223, 224, 225, 226, 227, 228, 229, 230, 231, 232, 233, 234, 235, 236, 237, 238, 239, 240, 241, 242, 243, 244, 245, 246, 247, 248, 249, 250, 251, 252, 253, 254, 255, 256, 257, 258, 259, 260, 261, 262, 263, 264, 265, 266, 267, 268, 269, 270, 271, 272, 273, 274, 275, 276, 277, 278, 279, 280, 281, 282, 283, 284, 285, 286, 287, 288, 289, 290, 291, 292, 293, 294, 295, 296, 297, 298, 299, 300, 301, 302, 303, 304, 305, 306, 307, 308, 309, 310, 311, 312, 313, 314, 315, 316, 317, 318, 319, 320, 321, 322, 323, 324, 325, 326, 327, 328, 329, 330, 331, 332, 333, 334, 335, 336, 337, 338, 339, 340, 341, 342, 343, 344, 345, 346, 347, 348, 349, 350, 351, 352, 353, 354, 355, 356, 357, 358, 359, 360, 361, 362, 363, 364, 365, 366, 367, 368, 369, 370, 371, 372, 373, 374, 375, 376, 377, 378, 379, 380, 381, 382, 383, 384, 385, 386, 387, 388, 389, 390, 391, 392, 393, 394, 395, 396, 397, 398, 399, 400, 401, 402, 403, 404, 405, 406, 407, 408, 409, 410, 411, 412, 413, 414, 415, 416, 417, 418, 419, 420, 421, 422, 423, 424, 425, 426, 427, 428, 429, 430, 431, 432, 433, 434, 435, 436, 437, 438, 439, 440, 441, 442, 443, 444, 445, 446, 447, 448, 449, 450, 451, 452, 453, 454, 455, 456, 457, 458, 459, 460, 461, 462, 463, 464, 465, 466, 467, 468, 469, 470, 471, 472, 473, 474, 475, 476, 477, 478, 479, 480, 481, 482, 483, 484, 485, 486, 487, 488, 489, 490, 491, 492, 493, 494, 495, 496, 497, 498, 499, 500, 501, 502, 503, 504, 505, 506, 507, 508, 509, 510, 511, 512, 513, 514, 515, 516, 517, 518, 519, 520, 521, 522, 523, 524, 525, 526, 527, 528, 529, 530, 531, 532, 533, 534, 535, 536, 537, 538, 539, 540, 541, 542, 543, 544, 545, 546, 547, 548, 549, 550, 551, 552, 553, 554, 555, 556, 557, 558, 559, 560, 561, 562, 563, 564, 565, 566, 567, 568, 569, 570, 571, 572, 573, 574, 575, 576, 577, 578, 579, 580, 581, 582, 583, 584, 585, 586, 587, 588, 589, 590, 591, 592, 593, 594, 595, 596, 597, 598, 599, 600, 601, 602, 603, 604, 605, 606, 607, 608, 609, 610, 611, 612, 613, 614, 615, 616, 617, 618, 619, 620, 621, 622, 623, 624, 625, 626, 627, 628, 629, 630, 631, 632, 633, 634, 635, 636, 637, 638, 639, 640, 641, 642, 643, 644, 645, 646, 647, 648, 649, 650, 651, 652, 653, 654, 655, 656, 657, 658, 659, 660, 661, 662, 663, 664, 665, 666, 667, 668, 669, 670, 671, 672, 673, 674, 675, 676, 677, 678, 679, 680, 681, 682, 683, 684, 685, 686, 687, 688, 689, 690, 691, 692, 693, 694, 695, 696, 697, 698, 699, 700, 701, 702, 703, 704, 705, 706, 707, 708, 709, 710, 711, 712, 713, 714, 715, 716, 717, 718, 719, 720, 721, 722, 723, 724, 725, 726, 727, 728, 729, 730, 731, 732, 733, 734, 735, 736, 737, 738, 739, 740, 741, 742, 743, 744, 745, 746, 747, 748, 749, 750, 751, 752, 753, 754, 755, 756, 757, 758, 759, 760, 761, 762, 763, 764, 765, 766, 767, 768, 769, 770, 771, 772, 773, 774, 775, 776, 777, 778, 779, 780, 781, 782, 783, 784, 785, 786, 787, 788, 789, 790, 791, 792, 793, 794, 795, 796, 797, 798, 799, 800, 801, 802, 803, 804, 805, 806, 807, 808, 809, 810, 811, 812, 813, 814, 815, 816, 817, 818, 819, 820, 821, 822, 823, 824, 825, 826, 827, 828, 829, 830, 831, 832, 833, 834, 835, 836, 837, 838, 839, 840, 841, 842, 843, 844, 845, 846, 847, 848, 849, 850, 851, 852, 853, 854, 855, 856, 857, 858, 859, 860, 861, 862, 863, 864, 865, 866, 867, 868, 869, 870, 871, 872, 873, 874, 875, 876, 877, 878, 879, 880, 881, 882, 883, 884, 885, 886, 887, 888, 889, 890, 891, 892, 893, 894, 895, 896, 897, 898, 899, 900, 901, 902, 903, 904, 905, 906, 907, 908, 909, 910, 911, 912, 913, 914, 915, 916, 917, 918, 919, 920, 921, 922, 923, 924, 925, 926, 927, 928, 929, 930, 931, 932, 933, 934, 935, 936, 937, 938, 939, 940, 941, 942, 943, 944, 945, 946, 947, 948, 949, 950, 951, 952, 953, 954, 955, 956, 957, 958, 959, 960, 961, 962, 963, 964, 965, 966, 967, 968, 969, 970, 971, 972, 973, 974, 975, 976, 977, 978, 979, 980, 981, 982, 983, 984, 985, 986, 987, 988, 989, 990, 991, 992, 993, 994, 995, 996, 997, 998, 999, 1000, 1001, 1002, 1003, 1004, 1005, 1006, 1007, 1008, 1009, 1010, 1011, 1012, 1013, 1014, 1015, 1016, 1017, 1018, 1019, 1020, 1021, 1022, 1023, 1024, 1025, 1026, 1027, 1028, 1029, 1030, 1031, 1032, 1033, 1034, 1035, 1036, 1037, 1038, 1039, 1040, 1041, 1042, 1043, 1044, 1045, 1046, 1047, 1048, 1049, 1050, 1051, 1052, 1053, 1054, 1055, 1056, 1057, 1058, 1059, 1060, 1061, 1062, 1063, 1064, 1065, 1066, 1067, 1068, 1069, 1070],
      "AcquisitionTime": ["103639.007500", "103639.795000", "103640.582500", "103641.370000", "103642.160000", "103642.947500", "103643.735000", "103644.522500", "103645.312500", "103646.100000", "103646.887500", "103647.677500", "103648.465000", "103649.252500", "103650.040000", "103650.830000", "103651.617500", "103652.405000", "103653.192500", "103653.982500", "103654.770000", "103655.557500", "103656.345000", "103657.135000", "103657.922500", "103658.710000", "103659.497500", "103700.287500", "103701.075000", "103701.862500", "103702.650000", "103703.440000", "103704.227500", "103705.015000", "103705.805000", "103706.592500", "103707.380000", "103708.167500", "103708.957500", "103709.745000", "103710.532500", "103711.320000", "103712.110000", "103712.897500", "103713.685000", "103714.472500", "103715.262500", "103716.050000", "103716.837500", "103717.625000", "103718.415000", "103719.202500", "103719.990000", "103720.777500", "103721.567500", "103722.355000", "103723.142500", "103723.932500", "103724.720000", "103725.507500", "103726.295000", "103727.085000", "103727.872500", "103728.660000", "103729.447500", "103730.237500", "103731.025000", "103731.812500", "103732.600000", "103733.390000", "103734.177500", "103734.965000", "103735.752500", "103736.542500", "103737.330000", "103738.117500", "103738.905000", "103739.695000", "103740.482500", "103741.270000", "103742.060000", "103742.847500", "103743.635000", "103744.422500", "103745.212500", "103746.000000", "103746.787500", "103747.575000", "103748.365000", "103749.152500", "103749.940000", "103750.727500", "103751.517500", "103752.305000", "103753.092500", "103753.880000", "103754.670000", "103755.457500", "103756.245000", "103757.032500", "103757.822500", "103758.610000", "103759.397500", "103800.187500", "103800.975000", "103801.762500", "103802.550000", "103803.340000", "103804.127500", "103804.915000", "103805.702500", "103806.492500", "103807.280000", "103808.067500", "103808.855000", "103809.645000", "103810.432500", "103811.220000", "103812.007500", "103812.797500", "103813.585000", "103814.372500", "103815.160000", "103815.950000", "103816.737500", "103817.525000", "103818.315000", "103819.102500", "103819.890000", "103820.677500", "103821.467500", "103822.255000", "103823.042500", "103823.830000", "103824.620000", "103825.407500", "103826.195000", "103826.982500", "103827.772500", "103828.560000", "103829.347500", "103830.135000", "103830.925000", "103831.712500", "103832.500000", "103833.287500", "103834.077500", "103834.865000", "103835.652500", "103836.442500", "103837.230000", "103838.017500", "103838.805000", "103839.595000", "103840.382500", "103841.170000", "103841.957500", "103842.747500", "103843.535000", "103844.322500", "103845.110000", "103845.900000", "103846.687500", "103847.475000", "103848.262500", "103849.052500", "103849.840000", "103850.627500", "103851.415000", "103852.205000", "103852.992500", "103853.780000", "103854.570000", "103855.357500", "103856.145000", "103856.932500", "103857.722500", "103858.510000", "103859.297500", "103900.085000", "103900.875000", "103901.662500", "103902.450000", "103903.237500", "103904.027500", "103904.815000", "103905.602500", "103906.390000", "103907.180000", "103907.967500", "103908.755000", "103909.545000", "103910.332500", "103911.120000", "103911.907500", "103912.697500", "103913.485000", "103914.272500", "103915.060000", "103915.850000", "103916.637500", "103917.425000", "103918.212500", "103919.002500", "103919.790000", "103920.577500", "103921.365000", "103922.155000", "103922.942500", "103923.730000", "103924.517500", "103925.307500", "103926.095000", "103926.882500", "103927.672500", "103928.460000", "103929.247500", "103930.035000", "103930.825000", "103931.612500", "103932.400000", "103933.187500", "103933.977500", "103934.765000", "103935.552500", "103936.340000", "103937.130000", "103937.917500", "103938.705000", "103939.492500", "103940.282500", "103941.070000", "103941.857500", "103942.645000", "103943.435000", "103944.222500", "103945.010000", "103945.800000", "103946.587500", "103947.375000", "103948.162500", "103948.952500", "103949.740000", "103950.527500", "103951.315000", "103952.105000", "103952.892500", "103953.680000", "103954.467500", "103955.257500", "103956.045000", "103956.832500", "103957.620000", "103958.410000", "103959.197500", "103959.985000", "104000.772500", "104001.562500", "104002.350000", "104003.137500", "104003.927500", "104004.715000", "104005.502500", "104006.290000", "104007.080000", "104007.867500", "104008.655000", "104009.442500", "104010.232500", "104011.020000", "104011.807500", "104012.595000", "104013.385000", "104014.172500", "104014.960000", "104015.747500", "104016.537500", "104017.325000", "104018.112500", "104018.900000", "104019.690000", "104020.477500", "104021.265000", "104022.055000", "104022.842500", "104023.630000", "104024.417500", "104025.207500", "104025.995000", "104026.782500", "104027.570000", "104028.360000", "104029.147500", "104029.935000", "104030.722500", "104031.512500", "104032.300000", "104033.087500", "104033.875000", "104034.665000", "104035.452500", "104036.240000", "104037.027500", "104037.817500", "104038.605000", "104039.392500", "104040.182500", "104040.970000", "104041.757500", "104042.545000", "104043.335000", "104044.122500", "104044.910000", "104045.697500", "104046.487500", "104047.275000", "104048.062500", "104048.850000", "104049.640000", "104050.427500", "104051.215000", "104052.002500", "104052.792500", "104053.580000", "104054.367500", "104055.155000", "104055.945000", "104056.732500", "104057.520000", "104058.310000", "104059.097500", "104059.885000", "104100.672500", "104101.462500", "104102.250000", "104103.037500", "104103.825000", "104104.615000", "104105.402500", "104106.190000", "104106.977500", "104107.767500", "104108.555000", "104109.342500", "104110.130000", "104110.920000", "104111.707500", "104112.495000", "104113.282500", "104114.072500", "104114.860000", "104115.647500", "104116.437500", "104117.225000", "104118.012500", "104118.800000", "104119.590000", "104120.377500", "104121.165000", "104121.952500", "104122.742500", "104123.530000", "104124.317500", "104125.105000", "104125.895000", "104126.682500", "104127.470000", "104128.257500", "104129.047500", "104129.835000", "104130.622500", "104131.410000", "104132.200000", "104132.987500", "104133.775000", "104134.565000", "104135.352500", "104136.140000", "104136.927500", "104137.717500", "104138.505000", "104139.292500", "104140.080000", "104140.870000", "104141.657500", "104142.445000", "104143.232500", "104144.022500", "104144.810000", "104145.597500", "104146.385000", "104147.175000", "104147.962500", "104148.750000", "104149.537500", "104150.327500", "104151.115000", "104151.902500", "104152.692500", "104153.480000", "104154.267500", "104155.055000", "104155.845000", "104156.632500", "104157.420000", "104158.207500", "104158.997500", "104159.785000", "104200.572500", "104201.360000", "104202.150000", "104202.937500", "104203.725000", "104204.512500", "104205.302500", "104206.090000", "104206.877500", "104207.665000", "104208.455000", "104209.242500", "104210.030000", "104210.820000", "104211.607500", "104212.395000", "104213.182500", "104213.972500", "104214.760000", "104215.547500", "104216.335000", "104217.125000", "104217.912500", "104218.700000", "104219.487500", "104220.277500", "104221.065000", "104221.852500", "104222.640000", "104223.430000", "104224.217500", "104225.005000", "104225.795000", "104226.582500", "104227.370000", "104228.157500", "104228.947500", "104229.735000", "104230.522500", "104231.310000", "104232.100000", "104232.887500", "104233.675000", "104234.462500", "104235.252500", "104236.040000", "104236.827500", "104237.615000", "104238.405000", "104239.192500", "104239.980000", "104240.767500", "104241.557500", "104242.345000", "104243.132500", "104243.922500", "104244.710000", "104245.497500", "104246.285000", "104247.075000", "104247.862500", "104248.650000", "104249.437500", "104250.227500", "104251.015000", "104251.802500", "104252.590000", "104253.380000", "104254.167500", "104254.955000", "104255.742500", "104256.532500", "104257.320000", "104258.107500", "104258.895000", "104259.685000", "104300.472500", "104301.260000", "104302.050000", "104302.837500", "104303.625000", "104304.412500", "104305.202500", "104305.990000", "104306.777500", "104307.565000", "104308.355000", "104309.142500", "104309.930000", "104310.717500", "104311.507500", "104312.295000", "104313.082500", "104313.870000", "104314.660000", "104315.447500", "104316.235000", "104317.022500", "104317.812500", "104318.600000", "104319.387500", "104320.177500", "104320.965000", "104321.752500", "104322.540000", "104323.330000", "104324.117500", "104324.905000", "104325.692500", "104326.482500", "104327.270000", "104328.057500", "104328.845000", "104329.635000", "104330.422500", "104331.210000", "104331.997500", "104332.787500", "104333.575000", "104334.362500", "104335.150000", "104335.940000", "104336.727500", "104337.515000", "104338.305000", "104339.092500", "104339.880000", "104340.667500", "104341.457500", "104342.245000", "104343.032500", "104343.820000", "104344.610000", "104345.397500", "104346.185000", "104346.972500", "104347.762500", "104348.550000", "104349.337500", "104350.125000", "104350.915000", "104351.702500", "104352.490000", "104353.277500", "104354.067500", "104354.855000", "104355.642500", "104356.432500", "104357.220000", "104358.007500", "104358.795000", "104359.585000", "104400.372500", "104401.160000", "104401.947500", "104402.737500", "104403.525000", "104404.312500", "104405.100000", "104405.890000", "104406.677500", "104407.465000", "104408.252500", "104409.042500", "104409.830000", "104410.617500", "104411.405000", "104412.195000", "104412.982500", "104413.770000", "104414.560000", "104415.347500", "104416.135000", "104416.922500", "104417.712500", "104418.500000", "104419.287500", "104420.075000", "104420.865000", "104421.652500", "104422.440000", "104423.227500", "104424.017500", "104424.805000", "104425.592500", "104426.380000", "104427.170000", "104427.957500", "104428.745000", "104429.532500", "104430.322500", "104431.110000", "104431.897500", "104432.687500", "104433.475000", "104434.262500", "104435.050000", "104435.840000", "104436.627500", "104437.415000", "104438.202500", "104438.992500", "104439.780000", "104440.567500", "104441.355000", "104442.145000", "104442.932500", "104443.720000", "104444.507500", "104445.297500", "104446.085000", "104446.872500", "104447.660000", "104448.450000", "104449.237500", "104450.025000", "104450.815000", "104451.602500", "104452.390000", "104453.177500", "104453.967500", "104454.755000", "104455.542500", "104456.330000", "104457.120000", "104457.907500", "104458.695000", "104459.482500", "104500.272500", "104501.060000", "104501.847500", "104502.635000", "104503.425000", "104504.212500", "104505.000000", "104505.787500", "104506.577500", "104507.365000", "104508.152500", "104508.942500", "104509.730000", "104510.517500", "104511.305000", "104512.095000", "104512.882500", "104513.670000", "104514.457500", "104515.247500", "104516.035000", "104516.822500", "104517.610000", "104518.400000", "104519.187500", "104519.975000", "104520.762500", "104521.552500", "104522.340000", "104523.127500", "104523.915000", "104524.705000", "104525.492500", "104526.280000", "104527.070000", "104527.857500", "104528.645000", "104529.432500", "104530.222500", "104531.010000", "104531.797500", "104532.585000", "104533.375000", "104534.162500", "104534.950000", "104535.737500", "104536.527500", "104537.315000", "104538.102500", "104538.890000", "104539.680000", "104540.467500", "104541.255000", "104542.045000", "104542.832500", "104543.620000", "104544.407500", "104545.197500", "104545.985000", "104546.772500", "104547.560000", "104548.350000", "104549.137500", "104549.925000", "104550.712500", "104551.502500", "104552.290000", "104553.077500", "104553.865000", "104554.655000", "104555.442500", "104556.230000", "104557.017500", "104557.807500", "104558.595000", "104559.382500", "104600.172500", "104600.960000", "104601.747500", "104602.535000", "104603.325000", "104604.112500", "104604.900000", "104605.687500", "104606.477500", "104607.265000", "104608.052500", "104608.840000", "104609.630000", "104610.417500", "104611.205000", "104611.992500", "104612.782500", "104613.570000", "104614.357500", "104615.145000", "104615.935000", "104616.722500", "104617.510000", "104618.300000", "104619.087500", "104619.875000", "104620.662500", "104621.452500", "104622.240000", "104623.027500", "104623.815000", "104624.605000", "104625.392500", "104626.180000", "104626.967500", "104627.757500", "104628.545000", "104629.332500", "104630.120000", "104630.910000", "104631.697500", "104632.485000", "104633.272500", "104634.062500", "104634.850000", "104635.637500", "104636.427500", "104637.215000", "104638.002500", "104638.790000", "104639.580000", "104640.367500", "104641.155000", "104641.942500", "104642.732500", "104643.520000", "104644.307500", "104645.095000", "104645.885000", "104646.672500", "104647.460000", "104648.247500", "104649.037500", "104649.825000", "104650.612500", "104651.400000", "104652.190000", "104652.977500", "104653.765000", "104654.555000", "104655.342500", "104656.130000", "104656.917500", "104657.707500", "104658.495000", "104659.282500", "104700.070000", "104700.860000", "104701.647500", "104702.435000", "104703.222500", "104704.012500", "104704.800000", "104705.587500", "104706.375000", "104707.165000", "104707.952500", "104708.740000", "104709.527500", "104710.317500", "104711.105000", "104711.892500", "104712.682500", "104713.470000", "104714.257500", "104715.045000", "104715.835000", "104716.622500", "104717.410000", "104718.197500", "104718.987500", "104719.775000", "104720.562500", "104721.350000", "104722.140000", "104722.927500", "104723.715000", "104724.502500", "104725.292500", "104726.080000", "104726.867500", "104727.655000", "104728.445000", "104729.232500", "104730.020000", "104730.810000", "104731.597500", "104732.385000", "104733.172500", "104733.962500", "104734.750000", "104735.537500", "104736.325000", "104737.115000", "104737.902500", "104738.690000", "104739.477500", "104740.267500", "104741.055000", "104741.842500", "104742.630000", "104743.420000", "104744.207500", "104744.995000", "104745.782500", "104746.572500", "104747.360000", "104748.147500", "104748.937500", "104749.725000", "104750.512500", "104751.300000", "104752.090000", "104752.877500", "104753.665000", "104754.452500", "104755.242500", "104756.030000", "104756.817500", "104757.605000", "104758.395000", "104759.182500", "104759.970000", "104800.757500", "104801.547500", "104802.335000", "104803.122500", "104803.910000", "104804.700000", "104805.487500", "104806.275000", "104807.065000", "104807.852500", "104808.640000", "104809.427500", "104810.217500", "104811.005000", "104811.792500", "104812.580000", "104813.370000", "104814.157500", "104814.945000", "104815.732500", "104816.522500", "104817.310000", "104818.097500", "104818.885000", "104819.675000", "104820.462500", "104821.250000", "104822.037500", "104822.827500", "104823.615000", "104824.402500", "104825.192500", "104825.980000", "104826.767500", "104827.555000", "104828.345000", "104829.132500", "104829.920000", "104830.707500", "104831.497500", "104832.285000", "104833.072500", "104833.860000", "104834.650000", "104835.437500", "104836.225000", "104837.012500", "104837.802500", "104838.590000", "104839.377500", "104840.165000", "104840.955000", "104841.742500", "104842.530000", "104843.320000", "104844.107500", "104844.895000", "104845.682500", "104846.472500", "104847.260000", "104848.047500", "104848.835000", "104849.625000", "104850.412500", "104851.200000", "104851.987500", "104852.777500", "104853.565000", "104854.352500", "104855.140000", "104855.930000", "104856.717500", "104857.505000", "104858.295000", "104859.082500", "104859.870000", "104900.657500", "104901.447500", "104902.235000", "104903.022500", "104903.810000", "104904.600000", "104905.387500", "104906.175000", "104906.962500", "104907.752500", "104908.540000", "104909.327500", "104910.115000", "104910.905000", "104911.692500", "104912.480000", "104913.267500", "104914.057500", "104914.845000", "104915.632500", "104916.422500", "104917.210000", "104917.997500", "104918.785000", "104919.575000", "104920.362500", "104921.150000", "104921.937500", "104922.727500", "104923.515000", "104924.302500", "104925.090000", "104925.880000", "104926.667500", "104927.455000", "104928.242500", "104929.032500", "104929.820000", "104930.607500", "104931.395000", "104932.185000", "104932.972500", "104933.760000", "104934.550000", "104935.337500", "104936.125000", "104936.912500", "104937.702500", "104938.490000", "104939.277500", "104940.065000", "104940.855000", "104941.642500", "104942.430000", "104943.217500", "104944.007500", "104944.795000", "104945.582500", "104946.370000", "104947.160000", "104947.947500", "104948.735000", "104949.522500", "104950.312500", "104951.100000", "104951.887500", "104952.677500", "104953.465000", "104954.252500", "104955.040000", "104955.830000", "104956.617500", "104957.405000", "104958.192500", "104958.982500", "104959.770000", "105000.557500", "105001.345000", "105002.135000", "105002.922500", "105003.710000", "105004.497500", "105005.287500", "105006.075000", "105006.862500", "105007.650000", "105008.440000", "105009.227500", "105010.015000", "105010.805000", "105011.592500", "105012.380000", "105013.167500", "105013.957500", "105014.745000", "105015.532500", "105016.320000", "105017.110000", "105017.897500", "105018.685000", "105019.472500", "105020.262500", "105021.050000", "105021.837500", "105022.625000", "105023.415000", "105024.202500", "105024.990000", "105025.777500", "105026.567500", "105027.355000", "105028.142500", "105028.932500", "105029.720000", "105030.507500", "105031.295000", "105032.085000", "105032.872500", "105033.660000", "105034.447500", "105035.237500", "105036.025000", "105036.812500", "105037.600000", "105038.390000", "105039.177500", "105039.965000", "105040.752500", "105041.542500"],
