{
  "AcquisitionMatrixPE": 104,
  "AcquisitionNumber": 1,
  "AcquisitionTime": "14:00:45.722500",
  "BandwidthPerPixelPhaseEncode": 13.935,
  "BaseResolution": 104,
  "CoilString": "C:HEA;HEP",
  "ConversionSoftware": "dcm2niix",
  "ConversionSoftwareVersion": "v1.0.20210317",
  "DerivedVendorReportedEchoSpacing": 0.000690017,
  "DeviceSerialNumber": "35450",
  "DwellTime": 2.5e-06,
  "EchoTime": 0.0348,
  "EffectiveEchoSpacing": 0.000690017,
  "FlipAngle": 55,
  "ImageComments": "Unaliased MB8/PE3 (remote)",
  "ImageOrientationPatientDICOM": [0.999952, 6.85377e-05, -0.00979667, -7.61244e-08, 0.999976, 0.00698808],
  "ImageType": [
    "ORIGINAL",
    "PRIMARY",
    "M",
    "MB",
    "ND",
    "MOSAIC"
],
  "ImagingFrequency": 123.235,
  "InPlanePhaseEncodingDirectionDICOM": "COL",
  "InstitutionAddress": "Univeristy Ave. 197,Newark,North East,US,07102-1814",
  "InstitutionName": "RUBIC",
  "InstitutionalDepartmentName": "Department",
  "MRAcquisitionType": "2D",
  "MagneticFieldStrength": 3,
  "Manufacturer": "Siemens",
  "ManufacturersModelName": "TrioTim",
  "Modality": "MR",
  "MultibandAccelerationFactor": 8,
  "PartialFourier": 0.875,
  "PatientPosition": "HFS",
  "PercentPhaseFOV": 100,
  "PercentSampling": 100,
  "PhaseEncodingDirection": "j-",
  "PhaseEncodingSteps": 91,
  "PhaseResolution": 1,
  "PixelBandwidth": 1923,
  "ProcedureStepDescription": "Cole^Michael",
  "ProtocolName": "cmrr_mbep2d_bold_2mm_MB8_Task_8x",
  "PulseSequenceDetails": "%CustomerSeq%\\cmrr_mbep2d_bold",
  "ReceiveCoilName": "32Ch_Head",
  "ReconMatrixPE": 104,
  "RepetitionTime": 0.785,
  "SAR": 0.123555,
  "ScanOptions": "PFP\\FS",
  "ScanningSequence": "EP",
  "SequenceName": "epfid2d1_104",
  "SequenceVariant": "SK\\SS",
  "SeriesDescription": "cmrr_mbep2d_bold_2mm_MB8_Task_8x",
  "SeriesNumber": 23,
  "ShimSetting": [2078, -482, -7459, 619, -44, -313, -387, 80],
  "SliceThickness": 2,
  "SliceTiming": [0, 0.4375, 0.0875, 0.525, 0.175, 0.6125, 0.2625, 0.7025, 0.35, 0, 0.4375, 0.0875, 0.525, 0.175, 0.6125, 0.2625, 0.7025, 0.35, 0, 0.4375, 0.0875, 0.525, 0.175, 0.6125, 0.2625, 0.7025, 0.35, 0, 0.4375, 0.0875, 0.525, 0.175, 0.6125, 0.2625, 0.7025, 0.35, 0, 0.4375, 0.0875, 0.525, 0.175, 0.6125, 0.2625, 0.7025, 0.35, 0, 0.4375, 0.0875, 0.525, 0.175, 0.6125, 0.2625, 0.7025, 0.35, 0, 0.4375, 0.0875, 0.525, 0.175, 0.6125, 0.2625, 0.7025, 0.35, 0, 0.4375, 0.0875, 0.525, 0.175, 0.6125, 0.2625, 0.7025, 0.35],
  "SoftwareVersions": "syngo MR B19",
  "SpacingBetweenSlices": 2,
  "StationName": "MRC35450",
  "TaskName": "cpro",
  "TotalReadoutTime": 0.0710717,
  "TxRefAmp": 325.176,
  "dcmmeta_affine": [
    [-1.9999040365219116, -1.522488588534543e-07, -0.019593825563788414, 106.03229522705078],
    [-0.00013707540347240865, 1.9999511241912842, 0.013975482434034348, -80.07144165039062],
    [-0.01959334686398506, -0.013976153917610645, 1.9998551607131958, -81.74139404296875],
    [0.0, 0.0, 0.0, 1.0]
],
  "dcmmeta_reorient_transform": [
    [0.0, -1.0, 0.0, 103.0],
    [1.0, 0.0, 0.0, 0.0],
    [0.0, 0.0, 1.0, 0.0],
    [0.0, 0.0, 0.0, 1.0]
],
  "dcmmeta_shape": [104, 104, 72, 581],
  "dcmmeta_slice_dim": 2,
  "dcmmeta_version": 0.6,
  "global": {
    "const": {
      "AcquisitionMatrix": [104, 0, 0, 104],
      "AngioFlag": "N",
      "BitsAllocated": 16,
      "BitsStored": 12,
      "Columns": 936,
      "EchoNumbers": 1,
      "EchoTime": 34.8,
      "EchoTrainLength": 1,
      "FlipAngle": 55.0,
      "HighBit": 11,
      "ImageOrientationPatient": [0.99995200909575, 6.853770261e-05, -0.0097966733102, -7.6124429e-08, 0.99997558309117, 0.00698807709422],
      "ImagePositionPatient": [-937.99228743651, -957.96024046813, -80.844184032141],
      "ImageType": [
        "ORIGINAL",
        "PRIMARY",
        "M",
        "MB",
        "ND",
        "MOSAIC"
],
      "ImagedNucleus": "1H",
      "ImagingFrequency": 123.23454,
      "InPlanePhaseEncodingDirection": "COL",
      "MRAcquisitionType": "2D",
      "MagneticFieldStrength": 3.0,
      "Manufacturer": "SIEMENS",
      "ManufacturerModelName": "TrioTim",
      "Modality": "MR",
      "NumberOfAverages": 1.0,
      "NumberOfPhaseEncodingSteps": 91,
      "PercentPhaseFieldOfView": 100.0,
      "PercentSampling": 100.0,
      "PerformedProcedureStepStartTime": "120805.421000",
      "PhotometricInterpretation": "MONOCHROME2",
      "PixelBandwidth": 1923.0,
      "PixelRepresentation": 0,
      "PixelSpacing": [2.0, 2.0],
      "ProtocolName": "cmrr_mbep2d_bold_2mm_MB8_Task_8x",
      "RepetitionTime": 785.0,
      "Rows": 936,
      "SAR": 0.12355460809801,
      "SamplesPerPixel": 1,
      "ScanOptions": [
        "PFP",
        "FS"
],
      "ScanningSequence": "EP",
      "SequenceName": "epfid2d1_104",
      "SequenceVariant": [
        "SK",
        "SS"
],
      "SeriesDescription": "cmrr_mbep2d_bold_2mm_MB8_Task_8x",
      "SeriesNumber": 23,
      "SeriesTime": "140123.875000",
      "SliceLocation": -83.333781227003,
      "SliceThickness": 2.0,
      "SmallestImagePixelValue": 0,
      "SoftwareVersions": "syngo MR B19",
      "SpacingBetweenSlices": 2.0000000160377,
      "SpecificCharacterSet": "ISO_IR 100",
      "StudyID": "1",
      "StudyTime": "120805.375000",
      "TransmitCoilName": "Body",
      "VariableFlipAngleFlag": "N",
      "WindowCenterWidthExplanation": "Algo1",
      "dBdt": 0.0},
    "slices": {}
  },
  "time": {
    "samples": {
      "AcquisitionNumber": [1, 2, 3, 4, 5, 6, 7, 8, 9, 10, 11, 12, 13, 14, 15, 16, 17, 18, 19, 20, 21, 22, 23, 24, 25, 26, 27, 28, 29, 30, 31, 32, 33, 34, 35, 36, 37, 38, 39, 40, 41, 42, 43, 44, 45, 46, 47, 48, 49, 50, 51, 52, 53, 54, 55, 56, 57, 58, 59, 60, 61, 62, 63, 64, 65, 66, 67, 68, 69, 70, 71, 72, 73, 74, 75, 76, 77, 78, 79, 80, 81, 82, 83, 84, 85, 86, 87, 88, 89, 90, 91, 92, 93, 94, 95, 96, 97, 98, 99, 100, 101, 102, 103, 104, 105, 106, 107, 108, 109, 110, 111, 112, 113, 114, 115, 116, 117, 118, 119, 120, 121, 122, 123, 124, 125, 126, 127, 128, 129, 130, 131, 132, 133, 134, 135, 136, 137, 138, 139, 140, 141, 142, 143, 144, 145, 146, 147, 148, 149, 150, 151, 152, 153, 154, 155, 156, 157, 158, 159, 160, 161, 162, 163, 164, 165, 166, 167, 168, 169, 170, 171, 172, 173, 174, 175, 176, 177, 178, 179, 180, 181, 182, 183, 184, 185, 186, 187, 188, 189, 190, 191, 192, 193, 194, 195, 196, 197, 198, 199, 200, 201, 202, 203, 204, 205, 206, 207, 208, 209, 210, 211, 212, 213, 214, 215, 216, 217, 218, 219, 220, 221, 222, 223, 224, 225, 226, 227, 228, 229, 230, 231, 232, 233, 234, 235, 236, 237, 238, 239, 240, 241, 242, 243, 244, 245, 246, 247, 248, 249, 250, 251, 252, 253, 254, 255, 256, 257, 258, 259, 260, 261, 262, 263, 264, 265, 266, 267, 268, 269, 270, 271, 272, 273, 274, 275, 276, 277, 278, 279, 280, 281, 282, 283, 284, 285, 286, 287, 288, 289, 290, 291, 292, 293, 294, 295, 296, 297, 298, 299, 300, 301, 302, 303, 304, 305, 306, 307, 308, 309, 310, 311, 312, 313, 314, 315, 316, 317, 318, 319, 320, 321, 322, 323, 324, 325, 326, 327, 328, 329, 330, 331, 332, 333, 334, 335, 336, 337, 338, 339, 340, 341, 342, 343, 344, 345, 346, 347, 348, 349, 350, 351, 352, 353, 354, 355, 356, 357, 358, 359, 360, 361, 362, 363, 364, 365, 366, 367, 368, 369, 370, 371, 372, 373, 374, 375, 376, 377, 378, 379, 380, 381, 382, 383, 384, 385, 386, 387, 388, 389, 390, 391, 392, 393, 394, 395, 396, 397, 398, 399, 400, 401, 402, 403, 404, 405, 406, 407, 408, 409, 410, 411, 412, 413, 414, 415, 416, 417, 418, 419, 420, 421, 422, 423, 424, 425, 426, 427, 428, 429, 430, 431, 432, 433, 434, 435, 436, 437, 438, 439, 440, 441, 442, 443, 444, 445, 446, 447, 448, 449, 450, 451, 452, 453, 454, 455, 456, 457, 458, 459, 460, 461, 462, 463, 464, 465, 466, 467, 468, 469, 470, 471, 472, 473, 474, 475, 476, 477, 478, 479, 480, 481, 482, 483, 484, 485, 486, 487, 488, 489, 490, 491, 492, 493, 494, 495, 496, 497, 498, 499, 500, 501, 502, 503, 504, 505, 506, 507, 508, 509, 510, 511, 512, 513, 514, 515, 516, 517, 518, 519, 520, 521, 522, 523, 524, 525, 526, 527, 528, 529, 530, 531, 532, 533, 534, 535, 536, 537, 538, 539, 540, 541, 542, 543, 544, 545, 546, 547, 548, 549, 550, 551, 552, 553, 554, 555, 556, 557, 558, 559, 560, 561, 562, 563, 564, 565, 566, 567, 568, 569, 570, 571, 572, 573, 574, 575, 576, 577, 578, 579, 580, 581],
      "AcquisitionTime": ["140045.722500", "140046.512500", "140047.300000", "140048.087500", "140048.875000", "140049.665000", "140050.452500", "140051.240000", "140052.027500", "140052.817500", "140053.605000", "140054.392500", "140055.182500", "140055.970000", "140056.757500", "140057.545000", "140058.335000", "140059.122500", "140059.910000", "140100.697500", "140101.487500", "140102.275000", "140103.062500", "140103.850000", "140104.640000", "140105.427500", "140106.215000", "140107.002500", "140107.792500", "140108.580000", "140109.367500", "140110.157500", "140110.945000", "140111.732500", "140112.520000", "140113.310000", "140114.097500", "140114.885000", "140115.672500", "140116.462500", "140117.250000", "140118.037500", "140118.825000", "140119.615000", "140120.402500", "140121.190000", "140121.977500", "140122.767500", "140123.555000", "140124.342500", "140125.130000", "140125.920000", "140126.707500", "140127.495000", "140128.285000", "140129.072500", "140129.860000", "140130.647500", "140131.437500", "140132.225000", "140133.012500", "140133.800000", "140134.590000", "140135.377500", "140136.165000", "140136.952500", "140137.742500", "140138.530000", "140139.317500", "140140.105000", "140140.895000", "140141.682500", "140142.470000", "140143.257500", "140144.047500", "140144.835000", "140145.622500", "140146.412500", "140147.200000", "140147.987500", "140148.775000", "140149.565000", "140150.352500", "140151.140000", "140151.927500", "140152.717500", "140153.505000", "140154.292500", "140155.080000", "140155.870000", "140156.657500", "140157.445000", "140158.232500", "140159.022500", "140159.810000", "140200.597500", "140201.385000", "140202.175000", "140202.962500", "140203.750000", "140204.540000", "140205.327500", "140206.115000", "140206.902500", "140207.692500", "140208.480000", "140209.267500", "140210.055000", "140210.845000", "140211.632500", "140212.420000", "140213.207500", "140213.997500", "140214.785000", "140215.572500", "140216.360000", "140217.150000", "140217.937500", "140218.725000", "140219.512500", "140220.302500", "140221.090000", "140221.877500", "140222.667500", "140223.455000", "140224.242500", "140225.030000", "140225.820000", "140226.607500", "140227.395000", "140228.182500", "140228.972500", "140229.760000", "140230.547500", "140231.335000", "140232.125000", "140232.912500", "140233.700000", "140234.487500", "140235.277500", "140236.065000", "140236.852500", "140237.640000", "140238.430000", "140239.217500", "140240.005000", "140240.795000", "140241.582500", "140242.370000", "140243.157500", "140243.947500", "140244.735000", "140245.522500", "140246.310000", "140247.100000", "140247.887500", "140248.675000", "140249.462500", "140250.252500", "140251.040000", "140251.827500", "140252.615000", "140253.405000", "140254.192500", "140254.980000", "140255.767500", "140256.557500", "140257.345000", "140258.132500", "140258.922500", "140259.710000", "140300.497500", "140301.285000", "140302.075000", "140302.862500", "140303.650000", "140304.437500", "140305.227500", "140306.015000", "140306.802500", "140307.590000", "140308.380000", "140309.167500", "140309.955000", "140310.742500", "140311.532500", "140312.320000", "140313.107500", "140313.895000", "140314.685000", "140315.472500", "140316.260000", "140317.050000", "140317.837500", "140318.625000", "140319.412500", "140320.202500", "140320.990000", "140321.777500", "140322.565000", "140323.355000", "140324.142500", "140324.930000", "140325.717500", "140326.507500", "140327.295000", "140328.082500", "140328.870000", "140329.660000", "140330.447500", "140331.235000", "140332.022500", "140332.812500", "140333.600000", "140334.387500", "140335.177500", "140335.965000", "140336.752500", "140337.540000", "140338.330000", "140339.117500", "140339.905000", "140340.692500", "140341.482500", "140342.270000", "140343.057500", "140343.845000", "140344.635000", "140345.422500", "140346.210000", "140346.997500", "140347.787500", "140348.575000", "140349.362500", "140350.150000", "140350.940000", "140351.727500", "140352.515000", "140353.305000", "140354.092500", "140354.880000", "140355.667500", "140356.457500", "140357.245000", "140358.032500", "140358.820000", "140359.610000", "140400.397500", "140401.185000", "140401.972500", "140402.762500", "140403.550000", "140404.337500", "140405.125000", "140405.915000", "140406.702500", "140407.490000", "140408.277500", "140409.067500", "140409.855000", "140410.642500", "140411.432500", "140412.220000", "140413.007500", "140413.795000", "140414.585000", "140415.372500", "140416.160000", "140416.947500", "140417.737500", "140418.525000", "140419.312500", "140420.100000", "140420.890000", "140421.677500", "140422.465000", "140423.252500", "140424.042500", "140424.830000", "140425.617500", "140426.407500", "140427.195000", "140427.982500", "140428.770000", "140429.560000", "140430.347500", "140431.135000", "140431.922500", "140432.712500", "140433.500000", "140434.287500", "140435.075000", "140435.865000", "140436.652500", "140437.440000", "140438.227500", "140439.017500", "140439.805000", "140440.592500", "140441.380000", "140442.170000", "140442.957500", "140443.745000", "140444.535000", "140445.322500", "140446.110000", "140446.897500", "140447.687500", "140448.475000", "140449.262500", "140450.050000", "140450.840000", "140451.627500", "140452.415000", "140453.202500", "140453.992500", "140454.780000", "140455.567500", "140456.355000", "140457.145000", "140457.932500", "140458.720000", "140459.507500", "140500.297500", "140501.085000", "140501.872500", "140502.662500", "140503.450000", "140504.237500", "140505.025000", "140505.815000", "140506.602500", "140507.390000", "140508.177500", "140508.967500", "140509.755000", "140510.542500", "140511.330000", "140512.120000", "140512.907500", "140513.695000", "140514.482500", "140515.272500", "140516.060000", "140516.847500", "140517.635000", "140518.425000", "140519.212500", "140520.000000", "140520.790000", "140521.577500", "140522.365000", "140523.152500", "140523.942500", "140524.730000", "140525.517500", "140526.305000", "140527.095000", "140527.882500", "140528.670000", "140529.457500", "140530.247500", "140531.035000", "140531.822500", "140532.610000", "140533.400000", "140534.187500", "140534.975000", "140535.762500", "140536.552500", "140537.340000", "140538.127500", "140538.917500", "140539.705000", "140540.492500", "140541.280000", "140542.070000", "140542.857500", "140543.645000", "140544.432500", "140545.222500", "140546.010000", "140546.797500", "140547.585000", "140548.375000", "140549.162500", "140549.950000", "140550.737500", "140551.527500", "140552.315000", "140553.102500", "140553.890000", "140554.680000", "140555.467500", "140556.255000", "140557.045000", "140557.832500", "140558.620000", "140559.407500", "140600.197500", "140600.985000", "140601.772500", "140602.560000", "140603.350000", "140604.137500", "140604.925000", "140605.712500", "140606.502500", "140607.290000", "140608.077500", "140608.865000", "140609.655000", "140610.442500", "140611.230000", "140612.017500", "140612.807500", "140613.595000", "140614.382500", "140615.172500", "140615.960000", "140616.747500", "140617.535000", "140618.325000", "140619.112500", "140619.900000", "140620.687500", "140621.477500", "140622.265000", "140623.052500", "140623.840000", "140624.630000", "140625.417500", "140626.205000", "140626.992500", "140627.782500", "140628.570000", "140629.357500", "140630.145000", "140630.935000", "140631.722500", "140632.510000", "140633.300000", "140634.087500", "140634.875000", "140635.662500", "140636.452500", "140637.240000", "140638.027500", "140638.815000", "140639.605000", "140640.392500", "140641.180000", "140641.967500", "140642.757500", "140643.545000", "140644.332500", "140645.120000", "140645.910000", "140646.697500", "140647.485000", "140648.272500", "140649.062500", "140649.850000", "140650.637500", "140651.427500", "140652.215000", "140653.002500", "140653.790000", "140654.580000", "140655.367500", "140656.155000", "140656.942500", "140657.732500", "140658.520000", "140659.307500", "140700.095000", "140700.885000", "140701.672500", "140702.460000", "140703.247500", "140704.037500", "140704.825000", "140705.612500", "140706.400000", "140707.190000", "140707.977500", "140708.765000", "140709.555000", "140710.342500", "140711.130000", "140711.917500", "140712.707500", "140713.495000", "140714.282500", "140715.070000", "140715.860000", "140716.647500", "140717.435000", "140718.222500", "140719.012500", "140719.800000", "140720.587500", "140721.375000", "140722.165000", "140722.952500", "140723.740000", "140724.527500", "140725.317500", "140726.105000", "140726.892500", "140727.682500", "140728.470000", "140729.257500", "140730.045000", "140730.835000", "140731.622500", "140732.410000", "140733.197500", "140733.987500", "140734.775000", "140735.562500", "140736.350000", "140737.140000", "140737.927500", "140738.715000", "140739.502500", "140740.292500", "140741.080000", "140741.867500", "140742.657500", "140743.445000", "140744.232500", "140745.020000", "140745.810000", "140746.597500", "140747.385000", "140748.172500", "140748.962500", "140749.750000", "140750.537500", "140751.325000", "140752.115000", "140752.902500", "140753.690000", "140754.477500", "140755.267500", "140756.055000", "140756.842500", "140757.630000", "140758.420000", "140759.207500", "140759.995000", "140800.785000", "140801.572500", "140802.360000", "140803.147500", "140803.937500", "140804.725000", "140805.512500", "140806.300000", "140807.090000", "140807.877500", "140808.665000", "140809.452500", "140810.242500", "140811.030000", "140811.817500", "140812.605000", "140813.395000", "140814.182500", "140814.970000", "140815.757500", "140816.547500", "140817.335000", "140818.122500", "140818.912500", "140819.700000", "140820.487500", "140821.275000", "140822.065000", "140822.852500"],
      "ContentTime": ["140123.890000", "140123.890000", "140123.890000", "140123.890000", "140123.890000", "140123.890000", "140123.906000", "140123.906000", "140123.906000", "140123.906000", "140123.906000", "140123.906000", "140123.906000", "140123.921000", "140123.921000", "140123.921000", "140123.921000", "140123.921000", "140123.921000", "140123.921000", "140123.937000", "140123.937000", "140123.937000", "140123.937000", "140123.937000", "140123.937000", "140123.937000", "140123.953000", "140123.953000", "140123.953000", "140123.953000", "140123.953000", "140123.953000", "140123.953000", "140123.968000", "140123.968000", "140123.968000", "140123.968000", "140123.968000", "140123.968000", "140123.984000", "140123.984000", "140123.984000", "140123.984000", "140123.984000", "140143.859000", "140143.859000", "140143.859000", "140143.859000", "140143.875000", "140143.875000", "140143.875000", "140143.875000", "140143.875000", "140143.875000", "140143.875000", "140143.890000", "140143.890000", "140143.890000", "140143.890000", "140143.890000", "140143.890000", "140143.906000", "140143.906000", "140143.906000", "140143.906000", "140143.906000", "140143.921000", "140143.921000", "140143.921000", "140203.859000", "140203.859000", "140203.859000", "140203.859000", "140203.875000", "140203.875000", "140203.875000", "140203.875000", "140203.875000", "140203.875000", "140203.875000", "140203.890000", "140203.890000", "140203.890000", "140203.890000", "140203.890000", "140203.890000", "140203.890000", "140203.906000", "140203.906000", "140203.906000", "140203.906000", "140203.906000", "140203.906000", "140203.921000", "140203.921000", "140223.859000", "140223.859000", "140223.859000", "140223.859000", "140223.875000", "140223.875000", "140223.875000", "140223.875000", "140223.875000", "140223.875000", "140223.875000", "140223.890000", "140223.890000", "140223.890000", "140223.890000", "140223.890000", "140223.890000", "140223.890000", "140223.906000", "140223.906000", "140223.906000", "140223.906000", "140223.906000", "140223.906000", "140223.921000", "140243.859000", "140243.859000", "140243.859000", "140243.859000", "140243.875000", "140243.875000", "140243.875000", "140243.875000", "140243.875000", "140243.875000", "140243.875000", "140243.890000", "140243.890000", "140243.890000", "140243.890000", "140243.890000", "140243.890000", "140243.890000", "140243.906000", "140243.906000", "140243.906000", "140243.906000", "140243.906000", "140243.906000", "140243.906000", "140243.921000", "140303.859000", "140303.859000", "140303.859000", "140303.859000", "140303.875000", "140303.875000", "140303.875000", "140303.875000", "140303.875000", "140303.875000", "140303.875000", "140303.890000", "140303.890000", "140303.890000", "140303.890000", "140303.890000", "140303.890000", "140303.890000", "140303.906000", "140303.906000", "140303.906000", "140303.906000", "140303.906000", "140303.906000", "140303.921000", "140323.859000", "140323.859000", "140323.859000", "140323.859000", "140323.875000", "140323.875000", "140323.875000", "140323.875000", "140323.875000", "140323.875000", "140323.875000", "140323.890000", "140323.890000", "140323.890000", "140323.890000", "140323.890000", "140323.890000", "140323.890000", "140323.906000", "140323.906000", "140323.906000", "140323.906000", "140323.906000", "140323.906000", "140323.906000", "140323.921000", "140343.859000", "140343.859000", "140343.859000", "140343.859000", "140343.875000", "140343.875000", "140343.875000", "140343.875000", "140343.875000", "140343.875000", "140343.875000", "140343.890000", "140343.890000", "140343.890000", "140343.890000", "140343.890000", "140343.890000", "140343.890000", "140343.906000", "140343.906000", "140343.906000", "140343.906000", "140343.906000", "140343.906000", "140343.921000", "140403.859000", "140403.859000", "140403.859000", "140403.859000", "140403.875000", "140403.875000", "140403.875000", "140403.875000", "140403.875000", "140403.875000", "140403.875000", "140403.890000", "140403.890000", "140403.890000", "140403.890000", "140403.890000", "140403.890000", "140403.890000", "140403.906000", "140403.906000", "140403.906000", "140403.906000", "140403.906000", "140403.906000", "140403.906000", "140403.921000", "140423.859000", "140423.859000", "140423.859000", "140423.859000", "140423.875000", "140423.875000", "140423.875000", "140423.875000", "140423.875000", "140423.875000", "140423.875000", "140423.890000", "140423.890000", "140423.890000", "140423.890000", "140423.890000", "140423.890000", "140423.890000", "140423.906000", "140423.906000", "140423.906000", "140423.906000", "140423.906000", "140423.906000", "140423.906000", "140443.859000", "140443.859000", "140443.859000", "140443.859000", "140443.875000", "140443.875000", "140443.875000", "140443.875000", "140443.875000", "140443.875000", "140443.875000", "140443.890000", "140443.890000", "140443.890000", "140443.890000", "140443.890000", "140443.890000", "140443.890000", "140443.906000", "140443.906000", "140443.906000", "140443.906000", "140443.906000", "140443.906000", "140443.906000", "140443.921000", "140503.859000", "140503.859000", "140503.859000", "140503.859000", "140503.875000", "140503.875000", "140503.875000", "140503.875000", "140503.875000", "140503.875000", "140503.875000", "140503.890000", "140503.890000", "140503.890000", "140503.890000", "140503.890000", "140503.890000", "140503.890000", "140503.906000", "140503.906000", "140503.906000", "140503.906000", "140503.906000", "140503.921000", "140503.921000", "140523.859000", "140523.859000", "140523.859000", "140523.859000", "140523.875000", "140523.875000", "140523.875000", "140523.875000", "140523.875000", "140523.875000", "140523.875000", "140523.890000", "140523.890000", "140523.890000", "140523.890000", "140523.890000", "140523.890000", "140523.890000", "140523.906000", "140523.906000", "140523.906000", "140523.906000", "140523.906000", "140523.906000", "140523.921000", "140523.921000", "140543.859000", "140543.859000", "140543.859000", "140543.859000", "140543.875000", "140543.875000", "140543.875000", "140543.875000", "140543.875000", "140543.875000", "140543.890000", "140543.890000", "140543.890000", "140543.890000", "140543.890000", "140543.890000", "140543.906000", "140543.906000", "140543.906000", "140543.906000", "140543.906000", "140543.906000", "140543.906000", "140543.921000", "140543.921000", "140603.859000", "140603.859000", "140603.859000", "140603.859000", "140603.875000", "140603.875000", "140603.875000", "140603.875000", "140603.875000", "140603.875000", "140603.875000", "140603.890000", "140603.890000", "140603.890000", "140603.890000", "140603.890000", "140603.890000", "140603.890000", "140603.906000", "140603.906000", "140603.906000", "140603.906000", "140603.906000", "140603.906000", "140603.906000", "140603.921000", "140623.859000", "140623.859000", "140623.859000", "140623.859000", "140623.875000", "140623.875000", "140623.875000", "140623.875000", "140623.875000", "140623.875000", "140623.875000", "140623.890000", "140623.890000", "140623.890000", "140623.890000", "140623.890000", "140623.890000", "140623.890000", "140623.906000", "140623.906000", "140623.906000", "140623.906000", "140623.906000", "140623.906000", "140623.921000", "140643.859000", "140643.859000", "140643.859000", "140643.859000", "140643.875000", "140643.875000", "140643.875000", "140643.875000", "140643.875000", "140643.875000", "140643.875000", "140643.890000", "140643.890000", "140643.890000", "140643.890000", "140643.890000", "140643.890000", "140643.890000", "140643.906000", "140643.906000", "140643.906000", "140643.906000", "140643.906000", "140643.906000", "140643.921000", "140643.921000", "140703.859000", "140703.859000", "140703.859000", "140703.859000", "140703.875000", "140703.875000", "140703.875000", "140703.875000", "140703.875000", "140703.875000", "140703.875000", "140703.890000", "140703.890000", "140703.890000", "140703.890000", "140703.890000", "140703.890000", "140703.890000", "140703.906000", "140703.906000", "140703.906000", "140703.906000", "140703.906000", "140703.906000", "140703.906000", "140723.859000", "140723.859000", "140723.859000", "140723.875000", "140723.875000", "140723.875000", "140723.875000", "140723.875000", "140723.875000", "140723.875000", "140723.890000", "140723.890000", "140723.890000", "140723.890000", "140723.890000", "140723.890000", "140723.890000", "140723.906000", "140723.906000", "140723.906000", "140723.906000", "140723.906000", "140723.906000", "140723.906000", "140723.921000", "140743.859000", "140743.859000", "140743.859000", "140743.859000", "140743.875000", "140743.875000", "140743.875000", "140743.875000", "140743.875000", "140743.875000", "140743.875000", "140743.890000", "140743.890000", "140743.890000", "140743.890000", "140743.890000", "140743.890000", "140743.890000", "140743.906000", "140743.906000", "140743.906000", "140743.906000", "140743.906000", "140743.906000", "140743.906000", "140743.921000", "140803.859000", "140803.859000", "140803.859000", "140803.875000", "140803.875000", "140803.875000", "140803.875000", "140803.875000", "140803.875000", "140803.890000", "140803.890000", "140803.890000", "140803.890000", "140803.890000", "140803.890000", "140803.906000", "140803.906000", "140803.906000", "140803.906000", "140803.906000", "140803.906000", "140803.921000", "140803.921000", "140803.921000", "140803.921000", "140823.859000", "140823.859000", "140823.859000", "140823.859000", "140823.875000", "140823.875000", "140823.875000", "140823.875000", "140823.875000", "140823.875000", "140823.875000", "140823.890000", "140823.890000", "140823.890000", "140823.890000", "140823.890000", "140823.890000", "140823.890000", "140823.906000", "140823.906000", "140823.906000", "140823.906000", "140823.906000", "140823.906000", "140823.906000", "140823.921000", "140824.359000"],
      "DataSetTrailingPadding": [
