{
  "AcquisitionMatrixPE": 104,
  "AcquisitionNumber": 1,
  "AcquisitionTime": "14:09:2.725000",
  "BandwidthPerPixelPhaseEncode": 13.935,
  "BaseResolution": 104,
  "CoilString": "C:HEA;HEP",
  "ConversionSoftware": "dcm2niix",
  "ConversionSoftwareVersion": "v1.0.20210317",
  "DerivedVendorReportedEchoSpacing": 0.000690017,
  "DeviceSerialNumber": "35450",
  "DwellTime": 2.5e-06,
  "EchoTime": 0.0348,
  "EffectiveEchoSpacing": 0.000690017,
  "FlipAngle": 55,
  "ImageComments": "Unaliased MB8/PE3 (remote)",
  "ImageOrientationPatientDICOM": [0.999952, 6.85377e-05, -0.00979667, -7.61244e-08, 0.999976, 0.00698808],
  "ImageType": [
    "ORIGINAL",
    "PRIMARY",
    "M",
    "MB",
    "ND",
    "MOSAIC"
],
  "ImagingFrequency": 123.235,
  "InPlanePhaseEncodingDirectionDICOM": "COL",
  "InstitutionAddress": "Univeristy Ave. 197,Newark,North East,US,07102-1814",
  "InstitutionName": "RUBIC",
  "InstitutionalDepartmentName": "Department",
  "MRAcquisitionType": "2D",
  "MagneticFieldStrength": 3,
  "Manufacturer": "Siemens",
  "ManufacturersModelName": "TrioTim",
  "Modality": "MR",
  "MultibandAccelerationFactor": 8,
  "PartialFourier": 0.875,
  "PatientPosition": "HFS",
  "PercentPhaseFOV": 100,
  "PercentSampling": 100,
  "PhaseEncodingDirection": "j-",
  "PhaseEncodingSteps": 91,
  "PhaseResolution": 1,
  "PixelBandwidth": 1923,
  "ProcedureStepDescription": "Cole^Michael",
  "ProtocolName": "cmrr_mbep2d_bold_2mm_MB8_Task_8x",
  "PulseSequenceDetails": "%CustomerSeq%\\cmrr_mbep2d_bold",
  "ReceiveCoilName": "32Ch_Head",
  "ReconMatrixPE": 104,
  "RepetitionTime": 0.785,
  "SAR": 0.123555,
  "ScanOptions": "PFP\\FS",
  "ScanningSequence": "EP",
  "SequenceName": "epfid2d1_104",
  "SequenceVariant": "SK\\SS",
  "SeriesDescription": "cmrr_mbep2d_bold_2mm_MB8_Task_8x",
  "SeriesNumber": 25,
  "ShimSetting": [2078, -482, -7459, 619, -44, -313, -387, 80],
  "SliceThickness": 2,
  "SliceTiming": [0, 0.4375, 0.0875, 0.525, 0.175, 0.6125, 0.2625, 0.7, 0.35, 0, 0.4375, 0.0875, 0.525, 0.175, 0.6125, 0.2625, 0.7, 0.35, 0, 0.4375, 0.0875, 0.525, 0.175, 0.6125, 0.2625, 0.7, 0.35, 0, 0.4375, 0.0875, 0.525, 0.175, 0.6125, 0.2625, 0.7, 0.35, 0, 0.4375, 0.0875, 0.525, 0.175, 0.6125, 0.2625, 0.7, 0.35, 0, 0.4375, 0.0875, 0.525, 0.175, 0.6125, 0.2625, 0.7, 0.35, 0, 0.4375, 0.0875, 0.525, 0.175, 0.6125, 0.2625, 0.7, 0.35, 0, 0.4375, 0.0875, 0.525, 0.175, 0.6125, 0.2625, 0.7, 0.35],
  "SoftwareVersions": "syngo MR B19",
  "SpacingBetweenSlices": 2,
  "StationName": "MRC35450",
  "TaskName": "cpro",
  "TotalReadoutTime": 0.0710717,
  "TxRefAmp": 325.176,
  "dcmmeta_affine": [
    [-1.9999040365219116, -1.522488588534543e-07, -0.019593825563788414, 106.03229522705078],
    [-0.00013707540347240865, 1.9999511241912842, 0.013975482434034348, -80.07144165039062],
    [-0.01959334686398506, -0.013976153917610645, 1.9998551607131958, -81.74139404296875],
    [0.0, 0.0, 0.0, 1.0]
],
  "dcmmeta_reorient_transform": [
    [0.0, -1.0, 0.0, 103.0],
    [1.0, 0.0, 0.0, 0.0],
    [0.0, 0.0, 1.0, 0.0],
    [0.0, 0.0, 0.0, 1.0]
],
  "dcmmeta_shape": [104, 104, 72, 581],
  "dcmmeta_slice_dim": 2,
  "dcmmeta_version": 0.6,
  "global": {
    "const": {
      "AcquisitionMatrix": [104, 0, 0, 104],
      "AngioFlag": "N",
      "BitsAllocated": 16,
      "BitsStored": 12,
      "Columns": 936,
      "EchoNumbers": 1,
      "EchoTime": 34.8,
      "EchoTrainLength": 1,
      "FlipAngle": 55.0,
      "HighBit": 11,
      "ImageOrientationPatient": [0.99995200909575, 6.853770261e-05, -0.0097966733102, -7.6124429e-08, 0.99997558309117, 0.00698807709422],
      "ImagePositionPatient": [-937.99228743651, -957.96024046813, -80.844184032141],
      "ImageType": [
        "ORIGINAL",
        "PRIMARY",
        "M",
        "MB",
        "ND",
        "MOSAIC"
],
      "ImagedNucleus": "1H",
      "ImagingFrequency": 123.23454,
      "InPlanePhaseEncodingDirection": "COL",
      "MRAcquisitionType": "2D",
      "MagneticFieldStrength": 3.0,
      "Manufacturer": "SIEMENS",
      "ManufacturerModelName": "TrioTim",
      "Modality": "MR",
      "NumberOfAverages": 1.0,
      "NumberOfPhaseEncodingSteps": 91,
      "PercentPhaseFieldOfView": 100.0,
      "PercentSampling": 100.0,
      "PerformedProcedureStepStartTime": "120805.421000",
      "PhotometricInterpretation": "MONOCHROME2",
      "PixelBandwidth": 1923.0,
      "PixelRepresentation": 0,
      "PixelSpacing": [2.0, 2.0],
      "ProtocolName": "cmrr_mbep2d_bold_2mm_MB8_Task_8x",
      "RepetitionTime": 785.0,
      "Rows": 936,
      "SAR": 0.12355460809801,
      "SamplesPerPixel": 1,
      "ScanOptions": [
        "PFP",
        "FS"
],
      "ScanningSequence": "EP",
      "SequenceName": "epfid2d1_104",
      "SequenceVariant": [
        "SK",
        "SS"
],
      "SeriesDescription": "cmrr_mbep2d_bold_2mm_MB8_Task_8x",
      "SeriesNumber": 25,
      "SeriesTime": "140922.609000",
      "SliceLocation": -83.333781227003,
      "SliceThickness": 2.0,
      "SmallestImagePixelValue": 0,
      "SoftwareVersions": "syngo MR B19",
      "SpacingBetweenSlices": 2.0000000160377,
      "SpecificCharacterSet": "ISO_IR 100",
      "StudyID": "1",
      "StudyTime": "120805.375000",
      "TransmitCoilName": "Body",
      "VariableFlipAngleFlag": "N",
      "WindowCenterWidthExplanation": "Algo1",
      "dBdt": 0.0},
    "slices": {}
  },
  "time": {
    "samples": {
      "AcquisitionNumber": [1, 2, 3, 4, 5, 6, 7, 8, 9, 10, 11, 12, 13, 14, 15, 16, 17, 18, 19, 20, 21, 22, 23, 24, 25, 26, 27, 28, 29, 30, 31, 32, 33, 34, 35, 36, 37, 38, 39, 40, 41, 42, 43, 44, 45, 46, 47, 48, 49, 50, 51, 52, 53, 54, 55, 56, 57, 58, 59, 60, 61, 62, 63, 64, 65, 66, 67, 68, 69, 70, 71, 72, 73, 74, 75, 76, 77, 78, 79, 80, 81, 82, 83, 84, 85, 86, 87, 88, 89, 90, 91, 92, 93, 94, 95, 96, 97, 98, 99, 100, 101, 102, 103, 104, 105, 106, 107, 108, 109, 110, 111, 112, 113, 114, 115, 116, 117, 118, 119, 120, 121, 122, 123, 124, 125, 126, 127, 128, 129, 130, 131, 132, 133, 134, 135, 136, 137, 138, 139, 140, 141, 142, 143, 144, 145, 146, 147, 148, 149, 150, 151, 152, 153, 154, 155, 156, 157, 158, 159, 160, 161, 162, 163, 164, 165, 166, 167, 168, 169, 170, 171, 172, 173, 174, 175, 176, 177, 178, 179, 180, 181, 182, 183, 184, 185, 186, 187, 188, 189, 190, 191, 192, 193, 194, 195, 196, 197, 198, 199, 200, 201, 202, 203, 204, 205, 206, 207, 208, 209, 210, 211, 212, 213, 214, 215, 216, 217, 218, 219, 220, 221, 222, 223, 224, 225, 226, 227, 228, 229, 230, 231, 232, 233, 234, 235, 236, 237, 238, 239, 240, 241, 242, 243, 244, 245, 246, 247, 248, 249, 250, 251, 252, 253, 254, 255, 256, 257, 258, 259, 260, 261, 262, 263, 264, 265, 266, 267, 268, 269, 270, 271, 272, 273, 274, 275, 276, 277, 278, 279, 280, 281, 282, 283, 284, 285, 286, 287, 288, 289, 290, 291, 292, 293, 294, 295, 296, 297, 298, 299, 300, 301, 302, 303, 304, 305, 306, 307, 308, 309, 310, 311, 312, 313, 314, 315, 316, 317, 318, 319, 320, 321, 322, 323, 324, 325, 326, 327, 328, 329, 330, 331, 332, 333, 334, 335, 336, 337, 338, 339, 340, 341, 342, 343, 344, 345, 346, 347, 348, 349, 350, 351, 352, 353, 354, 355, 356, 357, 358, 359, 360, 361, 362, 363, 364, 365, 366, 367, 368, 369, 370, 371, 372, 373, 374, 375, 376, 377, 378, 379, 380, 381, 382, 383, 384, 385, 386, 387, 388, 389, 390, 391, 392, 393, 394, 395, 396, 397, 398, 399, 400, 401, 402, 403, 404, 405, 406, 407, 408, 409, 410, 411, 412, 413, 414, 415, 416, 417, 418, 419, 420, 421, 422, 423, 424, 425, 426, 427, 428, 429, 430, 431, 432, 433, 434, 435, 436, 437, 438, 439, 440, 441, 442, 443, 444, 445, 446, 447, 448, 449, 450, 451, 452, 453, 454, 455, 456, 457, 458, 459, 460, 461, 462, 463, 464, 465, 466, 467, 468, 469, 470, 471, 472, 473, 474, 475, 476, 477, 478, 479, 480, 481, 482, 483, 484, 485, 486, 487, 488, 489, 490, 491, 492, 493, 494, 495, 496, 497, 498, 499, 500, 501, 502, 503, 504, 505, 506, 507, 508, 509, 510, 511, 512, 513, 514, 515, 516, 517, 518, 519, 520, 521, 522, 523, 524, 525, 526, 527, 528, 529, 530, 531, 532, 533, 534, 535, 536, 537, 538, 539, 540, 541, 542, 543, 544, 545, 546, 547, 548, 549, 550, 551, 552, 553, 554, 555, 556, 557, 558, 559, 560, 561, 562, 563, 564, 565, 566, 567, 568, 569, 570, 571, 572, 573, 574, 575, 576, 577, 578, 579, 580, 581],
      "AcquisitionTime": ["140902.725000", "140903.512500", "140904.302500", "140905.090000", "140905.877500", "140906.665000", "140907.455000", "140908.242500", "140909.030000", "140909.817500", "140910.607500", "140911.395000", "140912.182500", "140912.970000", "140913.760000", "140914.547500", "140915.335000", "140916.122500", "140916.912500", "140917.700000", "140918.487500", "140919.277500", "140920.065000", "140920.852500", "140921.640000", "140922.430000", "140923.217500", "140924.005000", "140924.792500", "140925.582500", "140926.370000", "140927.157500", "140927.945000", "140928.735000", "140929.522500", "140930.310000", "140931.097500", "140931.887500", "140932.675000", "140933.462500", "140934.250000", "140935.040000", "140935.827500", "140936.615000", "140937.405000", "140938.192500", "140938.980000", "140939.767500", "140940.557500", "140941.345000", "140942.132500", "140942.920000", "140943.710000", "140944.497500", "140945.285000", "140946.072500", "140946.862500", "140947.650000", "140948.437500", "140949.225000", "140950.015000", "140950.802500", "140951.590000", "140952.377500", "140953.167500", "140953.955000", "140954.742500", "140955.532500", "140956.320000", "140957.107500", "140957.895000", "140958.685000", "140959.472500", "141000.260000", "141001.047500", "141001.837500", "141002.625000", "141003.412500", "141004.200000", "141004.990000", "141005.777500", "141006.565000", "141007.352500", "141008.142500", "141008.930000", "141009.717500", "141010.507500", "141011.295000", "141012.082500", "141012.870000", "141013.660000", "141014.447500", "141015.235000", "141016.022500", "141016.812500", "141017.600000", "141018.387500", "141019.175000", "141019.965000", "141020.752500", "141021.540000", "141022.327500", "141023.117500", "141023.905000", "141024.692500", "141025.480000", "141026.270000", "141027.057500", "141027.845000", "141028.635000", "141029.422500", "141030.210000", "141030.997500", "141031.787500", "141032.575000", "141033.362500", "141034.150000", "141034.940000", "141035.727500", "141036.515000", "141037.302500", "141038.092500", "141038.880000", "141039.667500", "141040.455000", "141041.245000", "141042.032500", "141042.820000", "141043.607500", "141044.397500", "141045.185000", "141045.972500", "141046.762500", "141047.550000", "141048.337500", "141049.125000", "141049.915000", "141050.702500", "141051.490000", "141052.277500", "141053.067500", "141053.855000", "141054.642500", "141055.430000", "141056.220000", "141057.007500", "141057.795000", "141058.582500", "141059.372500", "141100.160000", "141100.947500", "141101.735000", "141102.525000", "141103.312500", "141104.100000", "141104.890000", "141105.677500", "141106.465000", "141107.252500", "141108.042500", "141108.830000", "141109.617500", "141110.405000", "141111.195000", "141111.982500", "141112.770000", "141113.557500", "141114.347500", "141115.135000", "141115.922500", "141116.710000", "141117.500000", "141118.287500", "141119.075000", "141119.862500", "141120.652500", "141121.440000", "141122.227500", "141123.017500", "141123.805000", "141124.592500", "141125.380000", "141126.170000", "141126.957500", "141127.745000", "141128.532500", "141129.322500", "141130.110000", "141130.897500", "141131.685000", "141132.475000", "141133.262500", "141134.050000", "141134.837500", "141135.627500", "141136.415000", "141137.202500", "141137.990000", "141138.780000", "141139.567500", "141140.355000", "141141.145000", "141141.932500", "141142.720000", "141143.507500", "141144.297500", "141145.085000", "141145.872500", "141146.660000", "141147.450000", "141148.237500", "141149.025000", "141149.812500", "141150.602500", "141151.390000", "141152.177500", "141152.965000", "141153.755000", "141154.542500", "141155.330000", "141156.117500", "141156.907500", "141157.695000", "141158.482500", "141159.272500", "141200.060000", "141200.847500", "141201.635000", "141202.425000", "141203.212500", "141204.000000", "141204.787500", "141205.577500", "141206.365000", "141207.152500", "141207.940000", "141208.730000", "141209.517500", "141210.305000", "141211.092500", "141211.882500", "141212.670000", "141213.457500", "141214.245000", "141215.035000", "141215.822500", "141216.610000", "141217.400000", "141218.187500", "141218.975000", "141219.762500", "141220.552500", "141221.340000", "141222.127500", "141222.915000", "141223.705000", "141224.492500", "141225.280000", "141226.067500", "141226.857500", "141227.645000", "141228.432500", "141229.220000", "141230.010000", "141230.797500", "141231.585000", "141232.372500", "141233.162500", "141233.950000", "141234.737500", "141235.527500", "141236.315000", "141237.102500", "141237.890000", "141238.680000", "141239.467500", "141240.255000", "141241.042500", "141241.832500", "141242.620000", "141243.407500", "141244.195000", "141244.985000", "141245.772500", "141246.560000", "141247.347500", "141248.137500", "141248.925000", "141249.712500", "141250.500000", "141251.290000", "141252.077500", "141252.865000", "141253.655000", "141254.442500", "141255.230000", "141256.017500", "141256.807500", "141257.595000", "141258.382500", "141259.170000", "141259.960000", "141300.747500", "141301.535000", "141302.322500", "141303.112500", "141303.900000", "141304.687500", "141305.475000", "141306.265000", "141307.052500", "141307.840000", "141308.627500", "141309.417500", "141310.205000", "141310.992500", "141311.782500", "141312.570000", "141313.357500", "141314.145000", "141314.935000", "141315.722500", "141316.510000", "141317.297500", "141318.087500", "141318.875000", "141319.662500", "141320.450000", "141321.240000", "141322.027500", "141322.815000", "141323.602500", "141324.392500", "141325.180000", "141325.967500", "141326.757500", "141327.545000", "141328.332500", "141329.120000", "141329.910000", "141330.697500", "141331.485000", "141332.272500", "141333.062500", "141333.850000", "141334.637500", "141335.425000", "141336.215000", "141337.002500", "141337.790000", "141338.577500", "141339.367500", "141340.155000", "141340.942500", "141341.730000", "141342.520000", "141343.307500", "141344.095000", "141344.885000", "141345.672500", "141346.460000", "141347.247500", "141348.037500", "141348.825000", "141349.612500", "141350.400000", "141351.190000", "141351.977500", "141352.765000", "141353.552500", "141354.342500", "141355.130000", "141355.917500", "141356.705000", "141357.495000", "141358.282500", "141359.070000", "141359.857500", "141400.647500", "141401.435000", "141402.222500", "141403.012500", "141403.800000", "141404.587500", "141405.375000", "141406.165000", "141406.952500", "141407.740000", "141408.527500", "141409.317500", "141410.105000", "141410.892500", "141411.680000", "141412.470000", "141413.257500", "141414.045000", "141414.832500", "141415.622500", "141416.410000", "141417.197500", "141417.985000", "141418.775000", "141419.562500", "141420.350000", "141421.140000", "141421.927500", "141422.715000", "141423.502500", "141424.292500", "141425.080000", "141425.867500", "141426.655000", "141427.445000", "141428.232500", "141429.020000", "141429.807500", "141430.597500", "141431.385000", "141432.172500", "141432.960000", "141433.750000", "141434.537500", "141435.325000", "141436.112500", "141436.902500", "141437.690000", "141438.477500", "141439.267500", "141440.055000", "141440.842500", "141441.630000", "141442.420000", "141443.207500", "141443.995000", "141444.782500", "141445.572500", "141446.360000", "141447.147500", "141447.935000", "141448.725000", "141449.512500", "141450.300000", "141451.087500", "141451.877500", "141452.665000", "141453.452500", "141454.240000", "141455.030000", "141455.817500", "141456.605000", "141457.395000", "141458.182500", "141458.970000", "141459.757500", "141500.547500", "141501.335000", "141502.122500", "141502.910000", "141503.700000", "141504.487500", "141505.275000", "141506.062500", "141506.852500", "141507.640000", "141508.427500", "141509.215000", "141510.005000", "141510.792500", "141511.580000", "141512.367500", "141513.157500", "141513.945000", "141514.732500", "141515.522500", "141516.310000", "141517.097500", "141517.885000", "141518.675000", "141519.462500", "141520.250000", "141521.037500", "141521.827500", "141522.615000", "141523.402500", "141524.190000", "141524.980000", "141525.767500", "141526.555000", "141527.342500", "141528.132500", "141528.920000", "141529.707500", "141530.495000", "141531.285000", "141532.072500", "141532.860000", "141533.650000", "141534.437500", "141535.225000", "141536.012500", "141536.802500", "141537.590000", "141538.377500", "141539.165000", "141539.955000", "141540.742500", "141541.530000", "141542.317500", "141543.107500", "141543.895000", "141544.682500", "141545.470000", "141546.260000", "141547.047500", "141547.835000", "141548.622500", "141549.412500", "141550.200000", "141550.987500", "141551.777500", "141552.565000", "141553.352500", "141554.140000", "141554.930000", "141555.717500", "141556.505000", "141557.292500", "141558.082500", "141558.870000", "141559.657500", "141600.445000", "141601.235000", "141602.022500", "141602.810000", "141603.597500", "141604.387500", "141605.175000", "141605.962500", "141606.750000", "141607.540000", "141608.327500", "141609.115000", "141609.905000", "141610.692500", "141611.480000", "141612.267500", "141613.057500", "141613.845000", "141614.632500", "141615.420000", "141616.210000", "141616.997500", "141617.785000", "141618.572500", "141619.362500", "141620.150000", "141620.937500", "141621.725000", "141622.515000", "141623.302500", "141624.090000", "141624.877500", "141625.667500", "141626.455000", "141627.242500", "141628.032500", "141628.820000", "141629.607500", "141630.395000", "141631.185000", "141631.972500", "141632.760000", "141633.547500", "141634.337500", "141635.125000", "141635.912500", "141636.700000", "141637.490000", "141638.277500", "141639.065000", "141639.852500"],
      "ContentTime": ["140922.609000", "140922.609000", "140922.625000", "140922.625000", "140922.625000", "140922.625000", "140922.625000", "140922.625000", "140922.625000", "140922.640000", "140922.640000", "140922.640000", "140922.640000", "140922.640000", "140922.640000", "140922.656000", "140922.656000", "140922.656000", "140922.656000", "140922.656000", "140922.656000", "140922.671000", "140942.593000", "140942.593000", "140942.593000", "140942.593000", "140942.609000", "140942.609000", "140942.609000", "140942.609000", "140942.609000", "140942.609000", "140942.609000", "140942.625000", "140942.625000", "140942.625000", "140942.625000", "140942.625000", "140942.640000", "140942.640000", "140942.640000", "140942.640000", "140942.640000", "140942.640000", "140942.656000", "140942.656000", "140942.656000", "141002.593000", "141002.593000", "141002.593000", "141002.593000", "141002.609000", "141002.609000", "141002.609000", "141002.609000", "141002.609000", "141002.609000", "141002.609000", "141002.625000", "141002.625000", "141002.625000", "141002.625000", "141002.625000", "141002.625000", "141002.625000", "141002.640000", "141002.640000", "141002.640000", "141002.640000", "141002.640000", "141002.640000", "141002.640000", "141002.656000", "141022.593000", "141022.593000", "141022.593000", "141022.609000", "141022.609000", "141022.609000", "141022.609000", "141022.609000", "141022.609000", "141022.609000", "141022.625000", "141022.625000", "141022.625000", "141022.625000", "141022.625000", "141022.625000", "141022.640000", "141022.640000", "141022.640000", "141022.640000", "141022.640000", "141022.656000", "141022.656000", "141022.656000", "141022.656000", "141042.593000", "141042.593000", "141042.593000", "141042.609000", "141042.609000", "141042.609000", "141042.609000", "141042.609000", "141042.609000", "141042.625000", "141042.625000", "141042.625000", "141042.625000", "141042.625000", "141042.625000", "141042.625000", "141042.640000", "141042.640000", "141042.640000", "141042.640000", "141042.640000", "141042.640000", "141042.640000", "141042.656000", "141042.656000", "141042.656000", "141102.593000", "141102.593000", "141102.593000", "141102.593000", "141102.609000", "141102.609000", "141102.609000", "141102.609000", "141102.609000", "141102.609000", "141102.609000", "141102.625000", "141102.625000", "141102.625000", "141102.625000", "141102.625000", "141102.625000", "141102.625000", "141102.640000", "141102.640000", "141102.640000", "141102.640000", "141102.640000", "141102.656000", "141102.656000", "141122.593000", "141122.593000", "141122.593000", "141122.593000", "141122.609000", "141122.609000", "141122.609000", "141122.609000", "141122.609000", "141122.609000", "141122.609000", "141122.625000", "141122.625000", "141122.625000", "141122.625000", "141122.625000", "141122.625000", "141122.625000", "141122.640000", "141122.640000", "141122.656000", "141122.656000", "141122.656000", "141122.656000", "141122.656000", "141122.656000", "141142.593000", "141142.593000", "141142.593000", "141142.593000", "141142.609000", "141142.609000", "141142.609000", "141142.609000", "141142.609000", "141142.609000", "141142.609000", "141142.625000", "141142.625000", "141142.625000", "141142.625000", "141142.625000", "141142.625000", "141142.640000", "141142.640000", "141142.640000", "141142.640000", "141142.640000", "141142.640000", "141142.656000", "141142.656000", "141202.593000", "141202.593000", "141202.593000", "141202.593000", "141202.609000", "141202.609000", "141202.609000", "141202.609000", "141202.609000", "141202.609000", "141202.609000", "141202.625000", "141202.625000", "141202.625000", "141202.625000", "141202.625000", "141202.625000", "141202.625000", "141202.640000", "141202.640000", "141202.640000", "141202.640000", "141202.640000", "141202.656000", "141202.656000", "141202.656000", "141222.593000", "141222.593000", "141222.593000", "141222.593000", "141222.609000", "141222.609000", "141222.609000", "141222.609000", "141222.609000", "141222.609000", "141222.609000", "141222.625000", "141222.625000", "141222.625000", "141222.625000", "141222.625000", "141222.625000", "141222.625000", "141222.640000", "141222.640000", "141222.640000", "141222.640000", "141222.640000", "141222.640000", "141222.656000", "141242.593000", "141242.593000", "141242.593000", "141242.593000", "141242.609000", "141242.609000", "141242.609000", "141242.609000", "141242.609000", "141242.625000", "141242.625000", "141242.625000", "141242.625000", "141242.625000", "141242.640000", "141242.640000", "141242.640000", "141242.640000", "141242.640000", "141242.640000", "141242.640000", "141242.656000", "141242.656000", "141242.656000", "141242.656000", "141242.656000", "141302.593000", "141302.593000", "141302.593000", "141302.593000", "141302.609000", "141302.609000", "141302.609000", "141302.609000", "141302.609000", "141302.609000", "141302.609000", "141302.625000", "141302.625000", "141302.625000", "141302.625000", "141302.625000", "141302.625000", "141302.625000", "141302.640000", "141302.640000", "141302.640000", "141302.640000", "141302.640000", "141302.640000", "141302.640000", "141322.593000", "141322.593000", "141322.593000", "141322.593000", "141322.609000", "141322.609000", "141322.609000", "141322.609000", "141322.609000", "141322.625000", "141322.625000", "141322.625000", "141322.625000", "141322.625000", "141322.640000", "141322.640000", "141322.640000", "141322.640000", "141322.640000", "141322.656000", "141322.656000", "141322.656000", "141322.656000", "141322.656000", "141322.656000", "141322.656000", "141342.593000", "141342.593000", "141342.593000", "141342.593000", "141342.609000", "141342.609000", "141342.609000", "141342.609000", "141342.609000", "141342.609000", "141342.609000", "141342.625000", "141342.625000", "141342.625000", "141342.625000", "141342.625000", "141342.625000", "141342.625000", "141342.640000", "141342.640000", "141342.640000", "141342.640000", "141342.640000", "141342.640000", "141342.656000", "141402.593000", "141402.593000", "141402.593000", "141402.593000", "141402.609000", "141402.609000", "141402.609000", "141402.609000", "141402.609000", "141402.609000", "141402.609000", "141402.625000", "141402.625000", "141402.625000", "141402.625000", "141402.625000", "141402.625000", "141402.640000", "141402.640000", "141402.640000", "141402.640000", "141402.640000", "141402.640000", "141402.640000", "141402.656000", "141402.656000", "141422.593000", "141422.609000", "141422.609000", "141422.609000", "141422.625000", "141422.625000", "141422.640000", "141422.640000", "141422.640000", "141422.640000", "141422.640000", "141422.640000", "141422.656000", "141422.656000", "141422.656000", "141422.656000", "141422.656000", "141422.656000", "141422.671000", "141422.671000", "141422.671000", "141422.671000", "141422.671000", "141422.671000", "141422.671000", "141442.593000", "141442.593000", "141442.593000", "141442.593000", "141442.609000", "141442.609000", "141442.609000", "141442.609000", "141442.609000", "141442.609000", "141442.609000", "141442.625000", "141442.625000", "141442.625000", "141442.625000", "141442.625000", "141442.625000", "141442.625000", "141442.640000", "141442.640000", "141442.640000", "141442.640000", "141442.640000", "141442.640000", "141442.640000", "141442.656000", "141502.593000", "141502.593000", "141502.593000", "141502.593000", "141502.609000", "141502.609000", "141502.609000", "141502.609000", "141502.609000", "141502.609000", "141502.609000", "141502.625000", "141502.625000", "141502.625000", "141502.625000", "141502.625000", "141502.625000", "141502.625000", "141502.640000", "141502.640000", "141502.640000", "141502.640000", "141502.640000", "141502.640000", "141502.656000", "141522.593000", "141522.593000", "141522.593000", "141522.593000", "141522.609000", "141522.609000", "141522.609000", "141522.609000", "141522.609000", "141522.609000", "141522.609000", "141522.625000", "141522.625000", "141522.625000", "141522.625000", "141522.625000", "141522.625000", "141522.640000", "141522.640000", "141522.640000", "141522.640000", "141522.640000", "141522.640000", "141522.640000", "141522.656000", "141522.656000", "141542.593000", "141542.593000", "141542.593000", "141542.593000", "141542.609000", "141542.609000", "141542.609000", "141542.609000", "141542.609000", "141542.609000", "141542.609000", "141542.625000", "141542.625000", "141542.625000", "141542.625000", "141542.625000", "141542.625000", "141542.625000", "141542.640000", "141542.640000", "141542.640000", "141542.640000", "141542.640000", "141542.656000", "141542.656000", "141602.593000", "141602.593000", "141602.593000", "141602.593000", "141602.609000", "141602.609000", "141602.609000", "141602.609000", "141602.609000", "141602.609000", "141602.609000", "141602.625000", "141602.625000", "141602.625000", "141602.625000", "141602.625000", "141602.625000", "141602.625000", "141602.640000", "141602.640000", "141602.640000", "141602.640000", "141602.640000", "141602.640000", "141602.640000", "141602.656000", "141622.593000", "141622.593000", "141622.593000", "141622.593000", "141622.609000", "141622.609000", "141622.609000", "141622.609000", "141622.609000", "141622.609000", "141622.609000", "141622.625000", "141622.625000", "141622.625000", "141622.625000", "141622.625000", "141622.625000", "141622.625000", "141622.640000", "141622.640000", "141622.640000", "141622.640000", "141622.640000", "141622.640000", "141622.656000", "141641.125000", "141641.125000", "141641.125000", "141641.125000", "141641.125000", "141641.140000", "141641.140000", "141641.140000", "141641.140000", "141641.140000", "141641.140000", "141641.140000", "141641.156000", "141641.156000", "141641.156000", "141641.156000", "141641.156000", "141641.171000", "141641.171000", "141641.171000", "141641.171000", "141641.171000", "141641.171000", "141641.187000"],
      "DataSetTrailingPadding": [
