{
  "AcquisitionMatrixPE": 104,
  "AcquisitionNumber": 1,
  "AcquisitionTime": "13:52:20.722500",
  "BandwidthPerPixelPhaseEncode": 13.935,
  "BaseResolution": 104,
  "CoilString": "C:HEA;HEP",
  "ConversionSoftware": "dcm2niix",
  "ConversionSoftwareVersion": "v1.0.20210317",
  "DerivedVendorReportedEchoSpacing": 0.000690017,
  "DeviceSerialNumber": "35450",
  "DwellTime": 2.5e-06,
  "EchoTime": 0.0348,
  "EffectiveEchoSpacing": 0.000690017,
  "FlipAngle": 55,
  "ImageComments": "Unaliased MB8/PE3 (remote)",
  "ImageOrientationPatientDICOM": [0.999952, 6.85377e-05, -0.00979667, -7.61244e-08, 0.999976, 0.00698808],
  "ImageType": [
    "ORIGINAL",
    "PRIMARY",
    "M",
    "MB",
    "ND",
    "MOSAIC"
],
  "ImagingFrequency": 123.235,
  "InPlanePhaseEncodingDirectionDICOM": "COL",
  "InstitutionAddress": "Univeristy Ave. 197,Newark,North East,US,07102-1814",
  "InstitutionName": "RUBIC",
  "InstitutionalDepartmentName": "Department",
  "MRAcquisitionType": "2D",
  "MagneticFieldStrength": 3,
  "Manufacturer": "Siemens",
  "ManufacturersModelName": "TrioTim",
  "Modality": "MR",
  "MultibandAccelerationFactor": 8,
  "PartialFourier": 0.875,
  "PatientPosition": "HFS",
  "PercentPhaseFOV": 100,
  "PercentSampling": 100,
  "PhaseEncodingDirection": "j-",
  "PhaseEncodingSteps": 91,
  "PhaseResolution": 1,
  "PixelBandwidth": 1923,
  "ProcedureStepDescription": "Cole^Michael",
  "ProtocolName": "cmrr_mbep2d_bold_2mm_MB8_Task_8x",
  "PulseSequenceDetails": "%CustomerSeq%\\cmrr_mbep2d_bold",
  "ReceiveCoilName": "32Ch_Head",
  "ReconMatrixPE": 104,
  "RepetitionTime": 0.785,
  "SAR": 0.123555,
  "ScanOptions": "PFP\\FS",
  "ScanningSequence": "EP",
  "SequenceName": "epfid2d1_104",
  "SequenceVariant": "SK\\SS",
  "SeriesDescription": "cmrr_mbep2d_bold_2mm_MB8_Task_8x",
  "SeriesNumber": 21,
  "ShimSetting": [2078, -482, -7459, 619, -44, -313, -387, 80],
  "SliceThickness": 2,
  "SliceTiming": [0, 0.4375, 0.0875, 0.525, 0.175, 0.6125, 0.2625, 0.7, 0.35, 0, 0.4375, 0.0875, 0.525, 0.175, 0.6125, 0.2625, 0.7, 0.35, 0, 0.4375, 0.0875, 0.525, 0.175, 0.6125, 0.2625, 0.7, 0.35, 0, 0.4375, 0.0875, 0.525, 0.175, 0.6125, 0.2625, 0.7, 0.35, 0, 0.4375, 0.0875, 0.525, 0.175, 0.6125, 0.2625, 0.7, 0.35, 0, 0.4375, 0.0875, 0.525, 0.175, 0.6125, 0.2625, 0.7, 0.35, 0, 0.4375, 0.0875, 0.525, 0.175, 0.6125, 0.2625, 0.7, 0.35, 0, 0.4375, 0.0875, 0.525, 0.175, 0.6125, 0.2625, 0.7, 0.35],
  "SoftwareVersions": "syngo MR B19",
  "SpacingBetweenSlices": 2,
  "StationName": "MRC35450",
  "TaskName": "cpro",
  "TotalReadoutTime": 0.0710717,
  "TxRefAmp": 325.176,
  "dcmmeta_affine": [
    [-1.9999040365219116, -1.522488588534543e-07, -0.019593825563788414, 106.03229522705078],
    [-0.00013707540347240865, 1.9999511241912842, 0.013975482434034348, -80.07144165039062],
    [-0.01959334686398506, -0.013976153917610645, 1.9998551607131958, -81.74139404296875],
    [0.0, 0.0, 0.0, 1.0]
],
  "dcmmeta_reorient_transform": [
    [0.0, -1.0, 0.0, 103.0],
    [1.0, 0.0, 0.0, 0.0],
    [0.0, 0.0, 1.0, 0.0],
    [0.0, 0.0, 0.0, 1.0]
],
  "dcmmeta_shape": [104, 104, 72, 581],
  "dcmmeta_slice_dim": 2,
  "dcmmeta_version": 0.6,
  "global": {
    "const": {
      "AcquisitionMatrix": [104, 0, 0, 104],
      "AngioFlag": "N",
      "BitsAllocated": 16,
      "BitsStored": 12,
      "Columns": 936,
      "EchoNumbers": 1,
      "EchoTime": 34.8,
      "EchoTrainLength": 1,
      "FlipAngle": 55.0,
      "HighBit": 11,
      "ImageOrientationPatient": [0.99995200909575, 6.853770261e-05, -0.0097966733102, -7.6124429e-08, 0.99997558309117, 0.00698807709422],
      "ImagePositionPatient": [-937.99228743651, -957.96024046813, -80.844184032141],
      "ImageType": [
        "ORIGINAL",
        "PRIMARY",
        "M",
        "MB",
        "ND",
        "MOSAIC"
],
      "ImagedNucleus": "1H",
      "ImagingFrequency": 123.23454,
      "InPlanePhaseEncodingDirection": "COL",
      "MRAcquisitionType": "2D",
      "MagneticFieldStrength": 3.0,
      "Manufacturer": "SIEMENS",
      "ManufacturerModelName": "TrioTim",
      "Modality": "MR",
      "NumberOfAverages": 1.0,
      "NumberOfPhaseEncodingSteps": 91,
      "PercentPhaseFieldOfView": 100.0,
      "PercentSampling": 100.0,
      "PerformedProcedureStepStartTime": "120805.421000",
      "PhotometricInterpretation": "MONOCHROME2",
      "PixelBandwidth": 1923.0,
      "PixelRepresentation": 0,
      "PixelSpacing": [2.0, 2.0],
      "ProtocolName": "cmrr_mbep2d_bold_2mm_MB8_Task_8x",
      "RepetitionTime": 785.0,
      "Rows": 936,
      "SAR": 0.12355460809801,
      "SamplesPerPixel": 1,
      "ScanOptions": [
        "PFP",
        "FS"
],
      "ScanningSequence": "EP",
      "SequenceName": "epfid2d1_104",
      "SequenceVariant": [
        "SK",
        "SS"
],
      "SeriesDescription": "cmrr_mbep2d_bold_2mm_MB8_Task_8x",
      "SeriesNumber": 21,
      "SeriesTime": "135253.218000",
      "SliceLocation": -83.333781227003,
      "SliceThickness": 2.0,
      "SmallestImagePixelValue": 0,
      "SoftwareVersions": "syngo MR B19",
      "SpacingBetweenSlices": 2.0000000160377,
      "SpecificCharacterSet": "ISO_IR 100",
      "StudyID": "1",
      "StudyTime": "120805.375000",
      "TransmitCoilName": "Body",
      "VariableFlipAngleFlag": "N",
      "WindowCenterWidthExplanation": "Algo1",
      "dBdt": 0.0},
    "slices": {}
  },
  "time": {
    "samples": {
      "AcquisitionNumber": [1, 2, 3, 4, 5, 6, 7, 8, 9, 10, 11, 12, 13, 14, 15, 16, 17, 18, 19, 20, 21, 22, 23, 24, 25, 26, 27, 28, 29, 30, 31, 32, 33, 34, 35, 36, 37, 38, 39, 40, 41, 42, 43, 44, 45, 46, 47, 48, 49, 50, 51, 52, 53, 54, 55, 56, 57, 58, 59, 60, 61, 62, 63, 64, 65, 66, 67, 68, 69, 70, 71, 72, 73, 74, 75, 76, 77, 78, 79, 80, 81, 82, 83, 84, 85, 86, 87, 88, 89, 90, 91, 92, 93, 94, 95, 96, 97, 98, 99, 100, 101, 102, 103, 104, 105, 106, 107, 108, 109, 110, 111, 112, 113, 114, 115, 116, 117, 118, 119, 120, 121, 122, 123, 124, 125, 126, 127, 128, 129, 130, 131, 132, 133, 134, 135, 136, 137, 138, 139, 140, 141, 142, 143, 144, 145, 146, 147, 148, 149, 150, 151, 152, 153, 154, 155, 156, 157, 158, 159, 160, 161, 162, 163, 164, 165, 166, 167, 168, 169, 170, 171, 172, 173, 174, 175, 176, 177, 178, 179, 180, 181, 182, 183, 184, 185, 186, 187, 188, 189, 190, 191, 192, 193, 194, 195, 196, 197, 198, 199, 200, 201, 202, 203, 204, 205, 206, 207, 208, 209, 210, 211, 212, 213, 214, 215, 216, 217, 218, 219, 220, 221, 222, 223, 224, 225, 226, 227, 228, 229, 230, 231, 232, 233, 234, 235, 236, 237, 238, 239, 240, 241, 242, 243, 244, 245, 246, 247, 248, 249, 250, 251, 252, 253, 254, 255, 256, 257, 258, 259, 260, 261, 262, 263, 264, 265, 266, 267, 268, 269, 270, 271, 272, 273, 274, 275, 276, 277, 278, 279, 280, 281, 282, 283, 284, 285, 286, 287, 288, 289, 290, 291, 292, 293, 294, 295, 296, 297, 298, 299, 300, 301, 302, 303, 304, 305, 306, 307, 308, 309, 310, 311, 312, 313, 314, 315, 316, 317, 318, 319, 320, 321, 322, 323, 324, 325, 326, 327, 328, 329, 330, 331, 332, 333, 334, 335, 336, 337, 338, 339, 340, 341, 342, 343, 344, 345, 346, 347, 348, 349, 350, 351, 352, 353, 354, 355, 356, 357, 358, 359, 360, 361, 362, 363, 364, 365, 366, 367, 368, 369, 370, 371, 372, 373, 374, 375, 376, 377, 378, 379, 380, 381, 382, 383, 384, 385, 386, 387, 388, 389, 390, 391, 392, 393, 394, 395, 396, 397, 398, 399, 400, 401, 402, 403, 404, 405, 406, 407, 408, 409, 410, 411, 412, 413, 414, 415, 416, 417, 418, 419, 420, 421, 422, 423, 424, 425, 426, 427, 428, 429, 430, 431, 432, 433, 434, 435, 436, 437, 438, 439, 440, 441, 442, 443, 444, 445, 446, 447, 448, 449, 450, 451, 452, 453, 454, 455, 456, 457, 458, 459, 460, 461, 462, 463, 464, 465, 466, 467, 468, 469, 470, 471, 472, 473, 474, 475, 476, 477, 478, 479, 480, 481, 482, 483, 484, 485, 486, 487, 488, 489, 490, 491, 492, 493, 494, 495, 496, 497, 498, 499, 500, 501, 502, 503, 504, 505, 506, 507, 508, 509, 510, 511, 512, 513, 514, 515, 516, 517, 518, 519, 520, 521, 522, 523, 524, 525, 526, 527, 528, 529, 530, 531, 532, 533, 534, 535, 536, 537, 538, 539, 540, 541, 542, 543, 544, 545, 546, 547, 548, 549, 550, 551, 552, 553, 554, 555, 556, 557, 558, 559, 560, 561, 562, 563, 564, 565, 566, 567, 568, 569, 570, 571, 572, 573, 574, 575, 576, 577, 578, 579, 580, 581],
      "AcquisitionTime": ["135220.722500", "135221.510000", "135222.300000", "135223.087500", "135223.875000", "135224.662500", "135225.452500", "135226.240000", "135227.027500", "135227.815000", "135228.605000", "135229.392500", "135230.180000", "135230.970000", "135231.757500", "135232.545000", "135233.332500", "135234.122500", "135234.910000", "135235.697500", "135236.485000", "135237.275000", "135238.062500", "135238.850000", "135239.637500", "135240.427500", "135241.215000", "135242.002500", "135242.790000", "135243.580000", "135244.367500", "135245.155000", "135245.942500", "135246.732500", "135247.520000", "135248.307500", "135249.097500", "135249.885000", "135250.672500", "135251.460000", "135252.250000", "135253.037500", "135253.825000", "135254.612500", "135255.402500", "135256.190000", "135256.977500", "135257.765000", "135258.555000", "135259.342500", "135300.130000", "135300.917500", "135301.707500", "135302.495000", "135303.282500", "135304.070000", "135304.860000", "135305.647500", "135306.435000", "135307.225000", "135308.012500", "135308.800000", "135309.587500", "135310.377500", "135311.165000", "135311.952500", "135312.740000", "135313.530000", "135314.317500", "135315.105000", "135315.892500", "135316.682500", "135317.470000", "135318.257500", "135319.045000", "135319.835000", "135320.622500", "135321.410000", "135322.197500", "135322.987500", "135323.775000", "135324.562500", "135325.352500", "135326.140000", "135326.927500", "135327.715000", "135328.505000", "135329.292500", "135330.080000", "135330.867500", "135331.657500", "135332.445000", "135333.232500", "135334.020000", "135334.810000", "135335.597500", "135336.385000", "135337.172500", "135337.962500", "135338.750000", "135339.537500", "135340.327500", "135341.115000", "135341.902500", "135342.690000", "135343.480000", "135344.267500", "135345.055000", "135345.842500", "135346.632500", "135347.420000", "135348.207500", "135348.995000", "135349.785000", "135350.572500", "135351.360000", "135352.147500", "135352.937500", "135353.725000", "135354.512500", "135355.300000", "135356.090000", "135356.877500", "135357.665000", "135358.455000", "135359.242500", "135400.030000", "135400.817500", "135401.607500", "135402.395000", "135403.182500", "135403.970000", "135404.760000", "135405.547500", "135406.335000", "135407.122500", "135407.912500", "135408.700000", "135409.487500", "135410.275000", "135411.065000", "135411.852500", "135412.640000", "135413.427500", "135414.217500", "135415.005000", "135415.792500", "135416.582500", "135417.370000", "135418.157500", "135418.945000", "135419.735000", "135420.522500", "135421.310000", "135422.097500", "135422.887500", "135423.675000", "135424.462500", "135425.250000", "135426.040000", "135426.827500", "135427.615000", "135428.402500", "135429.192500", "135429.980000", "135430.767500", "135431.555000", "135432.345000", "135433.132500", "135433.920000", "135434.710000", "135435.497500", "135436.285000", "135437.072500", "135437.862500", "135438.650000", "135439.437500", "135440.225000", "135441.015000", "135441.802500", "135442.590000", "135443.377500", "135444.167500", "135444.955000", "135445.742500", "135446.530000", "135447.320000", "135448.107500", "135448.895000", "135449.682500", "135450.472500", "135451.260000", "135452.047500", "135452.837500", "135453.625000", "135454.412500", "135455.200000", "135455.990000", "135456.777500", "135457.565000", "135458.352500", "135459.142500", "135459.930000", "135500.717500", "135501.505000", "135502.295000", "135503.082500", "135503.870000", "135504.657500", "135505.447500", "135506.235000", "135507.022500", "135507.810000", "135508.600000", "135509.387500", "135510.175000", "135510.965000", "135511.752500", "135512.540000", "135513.327500", "135514.117500", "135514.905000", "135515.692500", "135516.480000", "135517.270000", "135518.057500", "135518.845000", "135519.632500", "135520.422500", "135521.210000", "135521.997500", "135522.785000", "135523.575000", "135524.362500", "135525.150000", "135525.937500", "135526.727500", "135527.515000", "135528.302500", "135529.092500", "135529.880000", "135530.667500", "135531.455000", "135532.245000", "135533.032500", "135533.820000", "135534.607500", "135535.397500", "135536.185000", "135536.972500", "135537.760000", "135538.550000", "135539.337500", "135540.125000", "135540.912500", "135541.702500", "135542.490000", "135543.277500", "135544.065000", "135544.855000", "135545.642500", "135546.430000", "135547.220000", "135548.007500", "135548.795000", "135549.582500", "135550.372500", "135551.160000", "135551.947500", "135552.735000", "135553.525000", "135554.312500", "135555.100000", "135555.887500", "135556.677500", "135557.465000", "135558.252500", "135559.040000", "135559.830000", "135600.617500", "135601.405000", "135602.192500", "135602.982500", "135603.770000", "135604.557500", "135605.347500", "135606.135000", "135606.922500", "135607.710000", "135608.500000", "135609.287500", "135610.075000", "135610.862500", "135611.652500", "135612.440000", "135613.227500", "135614.015000", "135614.805000", "135615.592500", "135616.380000", "135617.167500", "135617.957500", "135618.745000", "135619.532500", "135620.320000", "135621.110000", "135621.897500", "135622.685000", "135623.475000", "135624.262500", "135625.050000", "135625.837500", "135626.627500", "135627.415000", "135628.202500", "135628.990000", "135629.780000", "135630.567500", "135631.355000", "135632.142500", "135632.932500", "135633.720000", "135634.507500", "135635.295000", "135636.085000", "135636.872500", "135637.660000", "135638.447500", "135639.237500", "135640.025000", "135640.812500", "135641.602500", "135642.390000", "135643.177500", "135643.965000", "135644.755000", "135645.542500", "135646.330000", "135647.117500", "135647.907500", "135648.695000", "135649.482500", "135650.270000", "135651.060000", "135651.847500", "135652.635000", "135653.422500", "135654.212500", "135655.000000", "135655.787500", "135656.577500", "135657.365000", "135658.152500", "135658.940000", "135659.730000", "135700.517500", "135701.305000", "135702.092500", "135702.882500", "135703.670000", "135704.457500", "135705.245000", "135706.035000", "135706.822500", "135707.610000", "135708.397500", "135709.187500", "135709.975000", "135710.762500", "135711.550000", "135712.340000", "135713.127500", "135713.915000", "135714.705000", "135715.492500", "135716.280000", "135717.067500", "135717.857500", "135718.645000", "135719.432500", "135720.220000", "135721.010000", "135721.797500", "135722.585000", "135723.372500", "135724.162500", "135724.950000", "135725.737500", "135726.525000", "135727.315000", "135728.102500", "135728.890000", "135729.677500", "135730.467500", "135731.255000", "135732.042500", "135732.832500", "135733.620000", "135734.407500", "135735.195000", "135735.985000", "135736.772500", "135737.560000", "135738.347500", "135739.137500", "135739.925000", "135740.712500", "135741.500000", "135742.290000", "135743.077500", "135743.865000", "135744.652500", "135745.442500", "135746.230000", "135747.017500", "135747.805000", "135748.595000", "135749.382500", "135750.170000", "135750.960000", "135751.747500", "135752.535000", "135753.322500", "135754.112500", "135754.900000", "135755.687500", "135756.475000", "135757.265000", "135758.052500", "135758.840000", "135759.627500", "135800.417500", "135801.205000", "135801.992500", "135802.780000", "135803.570000", "135804.357500", "135805.145000", "135805.932500", "135806.722500", "135807.510000", "135808.297500", "135809.087500", "135809.875000", "135810.662500", "135811.450000", "135812.240000", "135813.027500", "135813.815000", "135814.602500", "135815.392500", "135816.180000", "135816.967500", "135817.755000", "135818.545000", "135819.332500", "135820.120000", "135820.907500", "135821.697500", "135822.485000", "135823.272500", "135824.060000", "135824.850000", "135825.637500", "135826.425000", "135827.215000", "135828.002500", "135828.790000", "135829.577500", "135830.367500", "135831.155000", "135831.942500", "135832.730000", "135833.520000", "135834.307500", "135835.095000", "135835.882500", "135836.672500", "135837.460000", "135838.247500", "135839.035000", "135839.825000", "135840.612500", "135841.400000", "135842.187500", "135842.977500", "135843.765000", "135844.552500", "135845.342500", "135846.130000", "135846.917500", "135847.705000", "135848.495000", "135849.282500", "135850.070000", "135850.857500", "135851.647500", "135852.435000", "135853.222500", "135854.010000", "135854.800000", "135855.587500", "135856.375000", "135857.162500", "135857.952500", "135858.740000", "135859.527500", "135900.315000", "135901.105000", "135901.892500", "135902.680000", "135903.470000", "135904.257500", "135905.045000", "135905.832500", "135906.622500", "135907.410000", "135908.197500", "135908.985000", "135909.775000", "135910.562500", "135911.350000", "135912.137500", "135912.927500", "135913.715000", "135914.502500", "135915.290000", "135916.080000", "135916.867500", "135917.655000", "135918.442500", "135919.232500", "135920.020000", "135920.807500", "135921.597500", "135922.385000", "135923.172500", "135923.960000", "135924.750000", "135925.537500", "135926.325000", "135927.112500", "135927.902500", "135928.690000", "135929.477500", "135930.265000", "135931.055000", "135931.842500", "135932.630000", "135933.417500", "135934.207500", "135934.995000", "135935.782500", "135936.570000", "135937.360000", "135938.147500", "135938.935000", "135939.725000", "135940.512500", "135941.300000", "135942.087500", "135942.877500", "135943.665000", "135944.452500", "135945.240000", "135946.030000", "135946.817500", "135947.605000", "135948.392500", "135949.182500", "135949.970000", "135950.757500", "135951.545000", "135952.335000", "135953.122500", "135953.910000", "135954.697500", "135955.487500", "135956.275000", "135957.062500", "135957.852500"],
      "ContentTime": ["135253.218000", "135253.218000", "135253.234000", "135253.234000", "135253.234000", "135253.234000", "135253.234000", "135253.234000", "135253.234000", "135253.250000", "135253.250000", "135253.250000", "135253.250000", "135253.250000", "135253.250000", "135253.250000", "135253.265000", "135253.265000", "135253.265000", "135253.265000", "135253.265000", "135253.281000", "135253.281000", "135253.281000", "135253.281000", "135253.281000", "135253.281000", "135253.281000", "135253.296000", "135253.296000", "135253.296000", "135253.296000", "135253.296000", "135253.296000", "135253.296000", "135253.312000", "135253.312000", "135253.312000", "135313.203000", "135313.203000", "135313.203000", "135313.203000", "135313.218000", "135313.218000", "135313.218000", "135313.218000", "135313.218000", "135313.218000", "135313.234000", "135313.234000", "135313.234000", "135313.234000", "135313.234000", "135313.234000", "135313.234000", "135313.250000", "135313.250000", "135313.250000", "135313.250000", "135313.250000", "135313.250000", "135313.250000", "135313.265000", "135313.265000", "135333.203000", "135333.203000", "135333.203000", "135333.203000", "135333.218000", "135333.218000", "135333.218000", "135333.218000", "135333.218000", "135333.218000", "135333.218000", "135333.234000", "135333.234000", "135333.234000", "135333.234000", "135333.234000", "135333.234000", "135333.234000", "135333.250000", "135333.250000", "135333.250000", "135333.250000", "135333.250000", "135333.250000", "135333.265000", "135353.203000", "135353.203000", "135353.203000", "135353.203000", "135353.218000", "135353.218000", "135353.218000", "135353.218000", "135353.218000", "135353.218000", "135353.218000", "135353.234000", "135353.234000", "135353.234000", "135353.234000", "135353.234000", "135353.234000", "135353.234000", "135353.250000", "135353.250000", "135353.250000", "135353.250000", "135353.250000", "135353.250000", "135353.250000", "135353.265000", "135413.203000", "135413.203000", "135413.203000", "135413.203000", "135413.218000", "135413.218000", "135413.218000", "135413.218000", "135413.218000", "135413.218000", "135413.218000", "135413.234000", "135413.234000", "135413.234000", "135413.234000", "135413.234000", "135413.234000", "135413.234000", "135413.250000", "135413.250000", "135413.250000", "135413.250000", "135413.250000", "135413.250000", "135413.265000", "135433.203000", "135433.203000", "135433.203000", "135433.203000", "135433.218000", "135433.218000", "135433.218000", "135433.218000", "135433.218000", "135433.218000", "135433.234000", "135433.234000", "135433.234000", "135433.234000", "135433.234000", "135433.234000", "135433.250000", "135433.250000", "135433.250000", "135433.250000", "135433.250000", "135433.265000", "135433.265000", "135433.265000", "135433.265000", "135433.265000", "135453.203000", "135453.203000", "135453.203000", "135453.203000", "135453.218000", "135453.218000", "135453.218000", "135453.218000", "135453.218000", "135453.218000", "135453.234000", "135453.234000", "135453.234000", "135453.234000", "135453.234000", "135453.234000", "135453.234000", "135453.250000", "135453.250000", "135453.250000", "135453.250000", "135453.265000", "135453.265000", "135453.265000", "135453.265000", "135513.203000", "135513.203000", "135513.203000", "135513.203000", "135513.218000", "135513.218000", "135513.218000", "135513.218000", "135513.218000", "135513.218000", "135513.218000", "135513.234000", "135513.234000", "135513.234000", "135513.234000", "135513.234000", "135513.234000", "135513.234000", "135513.250000", "135513.250000", "135513.250000", "135513.250000", "135513.250000", "135513.265000", "135513.265000", "135513.265000", "135533.203000", "135533.203000", "135533.203000", "135533.203000", "135533.218000", "135533.218000", "135533.218000", "135533.218000", "135533.218000", "135533.218000", "135533.218000", "135533.234000", "135533.234000", "135533.234000", "135533.234000", "135533.234000", "135533.234000", "135533.234000", "135533.250000", "135533.250000", "135533.250000", "135533.250000", "135533.250000", "135533.250000", "135533.265000", "135553.203000", "135553.203000", "135553.203000", "135553.218000", "135553.218000", "135553.218000", "135553.218000", "135553.218000", "135553.234000", "135553.234000", "135553.234000", "135553.234000", "135553.234000", "135553.234000", "135553.234000", "135553.250000", "135553.250000", "135553.250000", "135553.250000", "135553.250000", "135553.250000", "135553.265000", "135553.265000", "135553.265000", "135553.265000", "135613.203000", "135613.203000", "135613.203000", "135613.203000", "135613.218000", "135613.218000", "135613.218000", "135613.218000", "135613.218000", "135613.218000", "135613.218000", "135613.234000", "135613.234000", "135613.234000", "135613.234000", "135613.234000", "135613.234000", "135613.234000", "135613.250000", "135613.250000", "135613.250000", "135613.250000", "135613.250000", "135613.250000", "135613.250000", "135613.265000", "135633.203000", "135633.203000", "135633.203000", "135633.218000", "135633.218000", "135633.218000", "135633.234000", "135633.234000", "135633.234000", "135633.234000", "135633.250000", "135633.250000", "135633.250000", "135633.250000", "135633.250000", "135633.250000", "135633.265000", "135633.265000", "135633.265000", "135633.265000", "135633.265000", "135633.265000", "135633.265000", "135633.281000", "135633.281000", "135653.203000", "135653.203000", "135653.203000", "135653.203000", "135653.218000", "135653.218000", "135653.218000", "135653.218000", "135653.218000", "135653.218000", "135653.218000", "135653.234000", "135653.234000", "135653.234000", "135653.234000", "135653.234000", "135653.234000", "135653.234000", "135653.250000", "135653.250000", "135653.250000", "135653.250000", "135653.250000", "135653.250000", "135653.265000", "135653.265000", "135713.203000", "135713.203000", "135713.203000", "135713.203000", "135713.218000", "135713.218000", "135713.218000", "135713.218000", "135713.218000", "135713.218000", "135713.218000", "135713.234000", "135713.234000", "135713.234000", "135713.234000", "135713.234000", "135713.234000", "135713.250000", "135713.250000", "135713.250000", "135713.250000", "135713.250000", "135713.250000", "135713.250000", "135713.265000", "135733.203000", "135733.203000", "135733.203000", "135733.203000", "135733.218000", "135733.218000", "135733.218000", "135733.218000", "135733.218000", "135733.218000", "135733.218000", "135733.234000", "135733.234000", "135733.234000", "135733.234000", "135733.234000", "135733.234000", "135733.234000", "135733.250000", "135733.250000", "135733.250000", "135733.250000", "135733.250000", "135733.250000", "135733.265000", "135733.265000", "135753.203000", "135753.203000", "135753.203000", "135753.203000", "135753.218000", "135753.218000", "135753.218000", "135753.218000", "135753.218000", "135753.218000", "135753.218000", "135753.234000", "135753.234000", "135753.234000", "135753.234000", "135753.234000", "135753.234000", "135753.234000", "135753.250000", "135753.250000", "135753.250000", "135753.250000", "135753.250000", "135753.250000", "135753.250000", "135813.203000", "135813.203000", "135813.203000", "135813.203000", "135813.218000", "135813.218000", "135813.218000", "135813.218000", "135813.218000", "135813.218000", "135813.234000", "135813.234000", "135813.234000", "135813.234000", "135813.234000", "135813.234000", "135813.234000", "135813.250000", "135813.250000", "135813.250000", "135813.250000", "135813.250000", "135813.265000", "135813.265000", "135813.265000", "135813.265000", "135833.203000", "135833.203000", "135833.203000", "135833.203000", "135833.218000", "135833.218000", "135833.218000", "135833.218000", "135833.218000", "135833.218000", "135833.218000", "135833.234000", "135833.234000", "135833.234000", "135833.234000", "135833.234000", "135833.234000", "135833.234000", "135833.250000", "135833.250000", "135833.250000", "135833.250000", "135833.250000", "135833.250000", "135833.250000", "135853.203000", "135853.203000", "135853.203000", "135853.203000", "135853.218000", "135853.218000", "135853.218000", "135853.218000", "135853.218000", "135853.218000", "135853.218000", "135853.234000", "135853.234000", "135853.234000", "135853.234000", "135853.234000", "135853.234000", "135853.234000", "135853.250000", "135853.250000", "135853.250000", "135853.250000", "135853.250000", "135853.250000", "135853.265000", "135853.265000", "135913.203000", "135913.203000", "135913.203000", "135913.203000", "135913.218000", "135913.218000", "135913.218000", "135913.218000", "135913.218000", "135913.218000", "135913.234000", "135913.234000", "135913.234000", "135913.234000", "135913.234000", "135913.234000", "135913.234000", "135913.250000", "135913.250000", "135913.250000", "135913.250000", "135913.250000", "135913.250000", "135913.265000", "135913.265000", "135933.203000", "135933.203000", "135933.203000", "135933.203000", "135933.218000", "135933.218000", "135933.218000", "135933.218000", "135933.218000", "135933.218000", "135933.218000", "135933.234000", "135933.234000", "135933.234000", "135933.234000", "135933.234000", "135933.234000", "135933.234000", "135933.250000", "135933.250000", "135933.250000", "135933.250000", "135933.250000", "135933.265000", "135933.265000", "135933.265000", "135953.203000", "135953.203000", "135953.203000", "135953.203000", "135953.218000", "135953.218000", "135953.218000", "135953.218000", "135953.218000", "135953.218000", "135953.218000", "135953.234000", "135953.234000", "135953.234000", "135953.234000", "135953.234000", "135953.234000", "135953.234000", "135953.250000", "135953.250000", "135953.250000", "135953.250000", "135953.250000", "135953.250000", "135953.250000", "135959.000000", "135959.000000", "135959.000000", "135959.000000", "135959.000000", "135959.000000", "135959.000000", "135959.015000"],
      "DataSetTrailingPadding": [
