{
  "AcquisitionMatrixPE": 104,
  "AcquisitionNumber": 1,
  "AcquisitionTime": "13:44:4.722500",
  "BandwidthPerPixelPhaseEncode": 13.935,
  "BaseResolution": 104,
  "CoilString": "C:HEA;HEP",
  "ConversionSoftware": "dcm2niix",
  "ConversionSoftwareVersion": "v1.0.20210317",
  "DerivedVendorReportedEchoSpacing": 0.000690017,
  "DeviceSerialNumber": "35450",
  "DwellTime": 2.5e-06,
  "EchoTime": 0.0348,
  "EffectiveEchoSpacing": 0.000690017,
  "FlipAngle": 55,
  "ImageComments": "Unaliased MB8/PE3 (remote)",
  "ImageOrientationPatientDICOM": [0.999952, 6.85377e-05, -0.00979667, -7.61244e-08, 0.999976, 0.00698808],
  "ImageType": [
    "ORIGINAL",
    "PRIMARY",
    "M",
    "MB",
    "ND",
    "MOSAIC"
],
  "ImagingFrequency": 123.235,
  "InPlanePhaseEncodingDirectionDICOM": "COL",
  "InstitutionAddress": "Univeristy Ave. 197,Newark,North East,US,07102-1814",
  "InstitutionName": "RUBIC",
  "InstitutionalDepartmentName": "Department",
  "MRAcquisitionType": "2D",
  "MagneticFieldStrength": 3,
  "Manufacturer": "Siemens",
  "ManufacturersModelName": "TrioTim",
  "Modality": "MR",
  "MultibandAccelerationFactor": 8,
  "PartialFourier": 0.875,
  "PatientPosition": "HFS",
  "PercentPhaseFOV": 100,
  "PercentSampling": 100,
  "PhaseEncodingDirection": "j-",
  "PhaseEncodingSteps": 91,
  "PhaseResolution": 1,
  "PixelBandwidth": 1923,
  "ProcedureStepDescription": "Cole^Michael",
  "ProtocolName": "cmrr_mbep2d_bold_2mm_MB8_Task_8x",
  "PulseSequenceDetails": "%CustomerSeq%\\cmrr_mbep2d_bold",
  "ReceiveCoilName": "32Ch_Head",
  "ReconMatrixPE": 104,
  "RepetitionTime": 0.785,
  "SAR": 0.123555,
  "ScanOptions": "PFP\\FS",
  "ScanningSequence": "EP",
  "SequenceName": "epfid2d1_104",
  "SequenceVariant": "SK\\SS",
  "SeriesDescription": "cmrr_mbep2d_bold_2mm_MB8_Task_8x",
  "SeriesNumber": 19,
  "ShimSetting": [2078, -482, -7459, 619, -44, -313, -387, 80],
  "SliceThickness": 2,
  "SliceTiming": [0, 0.4375, 0.0875, 0.525, 0.175, 0.6125, 0.2625, 0.7, 0.35, 0, 0.4375, 0.0875, 0.525, 0.175, 0.6125, 0.2625, 0.7, 0.35, 0, 0.4375, 0.0875, 0.525, 0.175, 0.6125, 0.2625, 0.7, 0.35, 0, 0.4375, 0.0875, 0.525, 0.175, 0.6125, 0.2625, 0.7, 0.35, 0, 0.4375, 0.0875, 0.525, 0.175, 0.6125, 0.2625, 0.7, 0.35, 0, 0.4375, 0.0875, 0.525, 0.175, 0.6125, 0.2625, 0.7, 0.35, 0, 0.4375, 0.0875, 0.525, 0.175, 0.6125, 0.2625, 0.7, 0.35, 0, 0.4375, 0.0875, 0.525, 0.175, 0.6125, 0.2625, 0.7, 0.35],
  "SoftwareVersions": "syngo MR B19",
  "SpacingBetweenSlices": 2,
  "StationName": "MRC35450",
  "TaskName": "cpro",
  "TotalReadoutTime": 0.0710717,
  "TxRefAmp": 325.176,
  "dcmmeta_affine": [
    [-1.9999040365219116, -1.522488588534543e-07, -0.019593825563788414, 106.03229522705078],
    [-0.00013707540347240865, 1.9999511241912842, 0.013975482434034348, -80.07144165039062],
    [-0.01959334686398506, -0.013976153917610645, 1.9998551607131958, -81.74139404296875],
    [0.0, 0.0, 0.0, 1.0]
],
  "dcmmeta_reorient_transform": [
    [0.0, -1.0, 0.0, 103.0],
    [1.0, 0.0, 0.0, 0.0],
    [0.0, 0.0, 1.0, 0.0],
    [0.0, 0.0, 0.0, 1.0]
],
  "dcmmeta_shape": [104, 104, 72, 581],
  "dcmmeta_slice_dim": 2,
  "dcmmeta_version": 0.6,
  "global": {
    "const": {
      "AcquisitionMatrix": [104, 0, 0, 104],
      "AngioFlag": "N",
      "BitsAllocated": 16,
      "BitsStored": 12,
      "Columns": 936,
      "EchoNumbers": 1,
      "EchoTime": 34.8,
      "EchoTrainLength": 1,
      "FlipAngle": 55.0,
      "HighBit": 11,
      "ImageOrientationPatient": [0.99995200909575, 6.853770261e-05, -0.0097966733102, -7.6124429e-08, 0.99997558309117, 0.00698807709422],
      "ImagePositionPatient": [-937.99228743651, -957.96024046813, -80.844184032141],
      "ImageType": [
        "ORIGINAL",
        "PRIMARY",
        "M",
        "MB",
        "ND",
        "MOSAIC"
],
      "ImagedNucleus": "1H",
      "ImagingFrequency": 123.23454,
      "InPlanePhaseEncodingDirection": "COL",
      "MRAcquisitionType": "2D",
      "MagneticFieldStrength": 3.0,
      "Manufacturer": "SIEMENS",
      "ManufacturerModelName": "TrioTim",
      "Modality": "MR",
      "NumberOfAverages": 1.0,
      "NumberOfPhaseEncodingSteps": 91,
      "PercentPhaseFieldOfView": 100.0,
      "PercentSampling": 100.0,
      "PerformedProcedureStepStartTime": "120805.421000",
      "PhotometricInterpretation": "MONOCHROME2",
      "PixelBandwidth": 1923.0,
      "PixelRepresentation": 0,
      "PixelSpacing": [2.0, 2.0],
      "ProtocolName": "cmrr_mbep2d_bold_2mm_MB8_Task_8x",
      "RepetitionTime": 785.0,
      "Rows": 936,
      "SAR": 0.12355460809801,
      "SamplesPerPixel": 1,
      "ScanOptions": [
        "PFP",
        "FS"
],
      "ScanningSequence": "EP",
      "SequenceName": "epfid2d1_104",
      "SequenceVariant": [
        "SK",
        "SS"
],
      "SeriesDescription": "cmrr_mbep2d_bold_2mm_MB8_Task_8x",
      "SeriesNumber": 19,
      "SeriesTime": "134422.609000",
      "SliceLocation": -83.333781227003,
      "SliceThickness": 2.0,
      "SmallestImagePixelValue": 0,
      "SoftwareVersions": "syngo MR B19",
      "SpacingBetweenSlices": 2.0000000160377,
      "SpecificCharacterSet": "ISO_IR 100",
      "StudyID": "1",
      "StudyTime": "120805.375000",
      "TransmitCoilName": "Body",
      "VariableFlipAngleFlag": "N",
      "WindowCenterWidthExplanation": "Algo1",
      "dBdt": 0.0},
    "slices": {}
  },
  "time": {
    "samples": {
      "AcquisitionNumber": [1, 2, 3, 4, 5, 6, 7, 8, 9, 10, 11, 12, 13, 14, 15, 16, 17, 18, 19, 20, 21, 22, 23, 24, 25, 26, 27, 28, 29, 30, 31, 32, 33, 34, 35, 36, 37, 38, 39, 40, 41, 42, 43, 44, 45, 46, 47, 48, 49, 50, 51, 52, 53, 54, 55, 56, 57, 58, 59, 60, 61, 62, 63, 64, 65, 66, 67, 68, 69, 70, 71, 72, 73, 74, 75, 76, 77, 78, 79, 80, 81, 82, 83, 84, 85, 86, 87, 88, 89, 90, 91, 92, 93, 94, 95, 96, 97, 98, 99, 100, 101, 102, 103, 104, 105, 106, 107, 108, 109, 110, 111, 112, 113, 114, 115, 116, 117, 118, 119, 120, 121, 122, 123, 124, 125, 126, 127, 128, 129, 130, 131, 132, 133, 134, 135, 136, 137, 138, 139, 140, 141, 142, 143, 144, 145, 146, 147, 148, 149, 150, 151, 152, 153, 154, 155, 156, 157, 158, 159, 160, 161, 162, 163, 164, 165, 166, 167, 168, 169, 170, 171, 172, 173, 174, 175, 176, 177, 178, 179, 180, 181, 182, 183, 184, 185, 186, 187, 188, 189, 190, 191, 192, 193, 194, 195, 196, 197, 198, 199, 200, 201, 202, 203, 204, 205, 206, 207, 208, 209, 210, 211, 212, 213, 214, 215, 216, 217, 218, 219, 220, 221, 222, 223, 224, 225, 226, 227, 228, 229, 230, 231, 232, 233, 234, 235, 236, 237, 238, 239, 240, 241, 242, 243, 244, 245, 246, 247, 248, 249, 250, 251, 252, 253, 254, 255, 256, 257, 258, 259, 260, 261, 262, 263, 264, 265, 266, 267, 268, 269, 270, 271, 272, 273, 274, 275, 276, 277, 278, 279, 280, 281, 282, 283, 284, 285, 286, 287, 288, 289, 290, 291, 292, 293, 294, 295, 296, 297, 298, 299, 300, 301, 302, 303, 304, 305, 306, 307, 308, 309, 310, 311, 312, 313, 314, 315, 316, 317, 318, 319, 320, 321, 322, 323, 324, 325, 326, 327, 328, 329, 330, 331, 332, 333, 334, 335, 336, 337, 338, 339, 340, 341, 342, 343, 344, 345, 346, 347, 348, 349, 350, 351, 352, 353, 354, 355, 356, 357, 358, 359, 360, 361, 362, 363, 364, 365, 366, 367, 368, 369, 370, 371, 372, 373, 374, 375, 376, 377, 378, 379, 380, 381, 382, 383, 384, 385, 386, 387, 388, 389, 390, 391, 392, 393, 394, 395, 396, 397, 398, 399, 400, 401, 402, 403, 404, 405, 406, 407, 408, 409, 410, 411, 412, 413, 414, 415, 416, 417, 418, 419, 420, 421, 422, 423, 424, 425, 426, 427, 428, 429, 430, 431, 432, 433, 434, 435, 436, 437, 438, 439, 440, 441, 442, 443, 444, 445, 446, 447, 448, 449, 450, 451, 452, 453, 454, 455, 456, 457, 458, 459, 460, 461, 462, 463, 464, 465, 466, 467, 468, 469, 470, 471, 472, 473, 474, 475, 476, 477, 478, 479, 480, 481, 482, 483, 484, 485, 486, 487, 488, 489, 490, 491, 492, 493, 494, 495, 496, 497, 498, 499, 500, 501, 502, 503, 504, 505, 506, 507, 508, 509, 510, 511, 512, 513, 514, 515, 516, 517, 518, 519, 520, 521, 522, 523, 524, 525, 526, 527, 528, 529, 530, 531, 532, 533, 534, 535, 536, 537, 538, 539, 540, 541, 542, 543, 544, 545, 546, 547, 548, 549, 550, 551, 552, 553, 554, 555, 556, 557, 558, 559, 560, 561, 562, 563, 564, 565, 566, 567, 568, 569, 570, 571, 572, 573, 574, 575, 576, 577, 578, 579, 580, 581],
      "AcquisitionTime": ["134404.722500", "134405.512500", "134406.300000", "134407.087500", "134407.875000", "134408.665000", "134409.452500", "134410.240000", "134411.027500", "134411.817500", "134412.605000", "134413.392500", "134414.180000", "134414.970000", "134415.757500", "134416.545000", "134417.332500", "134418.122500", "134418.910000", "134419.697500", "134420.485000", "134421.275000", "134422.062500", "134422.850000", "134423.640000", "134424.427500", "134425.215000", "134426.002500", "134426.792500", "134427.580000", "134428.367500", "134429.155000", "134429.945000", "134430.732500", "134431.520000", "134432.307500", "134433.097500", "134433.885000", "134434.672500", "134435.460000", "134436.250000", "134437.037500", "134437.825000", "134438.615000", "134439.402500", "134440.190000", "134440.977500", "134441.767500", "134442.555000", "134443.342500", "134444.130000", "134444.920000", "134445.707500", "134446.495000", "134447.282500", "134448.072500", "134448.860000", "134449.647500", "134450.435000", "134451.225000", "134452.012500", "134452.800000", "134453.587500", "134454.377500", "134455.165000", "134455.952500", "134456.742500", "134457.530000", "134458.317500", "134459.105000", "134459.895000", "134500.682500", "134501.470000", "134502.257500", "134503.047500", "134503.835000", "134504.622500", "134505.410000", "134506.200000", "134506.987500", "134507.775000", "134508.562500", "134509.352500", "134510.140000", "134510.927500", "134511.715000", "134512.505000", "134513.292500", "134514.080000", "134514.870000", "134515.657500", "134516.445000", "134517.232500", "134518.022500", "134518.810000", "134519.597500", "134520.385000", "134521.175000", "134521.962500", "134522.750000", "134523.537500", "134524.327500", "134525.115000", "134525.902500", "134526.690000", "134527.480000", "134528.267500", "134529.055000", "134529.842500", "134530.632500", "134531.420000", "134532.207500", "134532.997500", "134533.785000", "134534.572500", "134535.360000", "134536.150000", "134536.937500", "134537.725000", "134538.512500", "134539.302500", "134540.090000", "134540.877500", "134541.665000", "134542.455000", "134543.242500", "134544.030000", "134544.817500", "134545.607500", "134546.395000", "134547.182500", "134547.970000", "134548.760000", "134549.547500", "134550.335000", "134551.125000", "134551.912500", "134552.700000", "134553.487500", "134554.277500", "134555.065000", "134555.852500", "134556.640000", "134557.430000", "134558.217500", "134559.005000", "134559.792500", "134600.582500", "134601.370000", "134602.157500", "134602.945000", "134603.735000", "134604.522500", "134605.310000", "134606.097500", "134606.887500", "134607.675000", "134608.462500", "134609.252500", "134610.040000", "134610.827500", "134611.615000", "134612.405000", "134613.192500", "134613.980000", "134614.767500", "134615.557500", "134616.345000", "134617.132500", "134617.920000", "134618.710000", "134619.497500", "134620.285000", "134621.072500", "134621.862500", "134622.650000", "134623.437500", "134624.225000", "134625.015000", "134625.802500", "134626.590000", "134627.380000", "134628.167500", "134628.955000", "134629.742500", "134630.532500", "134631.320000", "134632.107500", "134632.895000", "134633.685000", "134634.472500", "134635.260000", "134636.047500", "134636.837500", "134637.625000", "134638.412500", "134639.200000", "134639.990000", "134640.777500", "134641.565000", "134642.352500", "134643.142500", "134643.930000", "134644.717500", "134645.507500", "134646.295000", "134647.082500", "134647.870000", "134648.660000", "134649.447500", "134650.235000", "134651.022500", "134651.812500", "134652.600000", "134653.387500", "134654.175000", "134654.965000", "134655.752500", "134656.540000", "134657.327500", "134658.117500", "134658.905000", "134659.692500", "134700.480000", "134701.270000", "134702.057500", "134702.845000", "134703.635000", "134704.422500", "134705.210000", "134705.997500", "134706.787500", "134707.575000", "134708.362500", "134709.150000", "134709.940000", "134710.727500", "134711.515000", "134712.302500", "134713.092500", "134713.880000", "134714.667500", "134715.455000", "134716.245000", "134717.032500", "134717.820000", "134718.607500", "134719.397500", "134720.185000", "134720.972500", "134721.762500", "134722.550000", "134723.337500", "134724.125000", "134724.915000", "134725.702500", "134726.490000", "134727.277500", "134728.067500", "134728.855000", "134729.642500", "134730.430000", "134731.220000", "134732.007500", "134732.795000", "134733.582500", "134734.372500", "134735.160000", "134735.947500", "134736.735000", "134737.525000", "134738.312500", "134739.100000", "134739.890000", "134740.677500", "134741.465000", "134742.252500", "134743.042500", "134743.830000", "134744.617500", "134745.405000", "134746.195000", "134746.982500", "134747.770000", "134748.557500", "134749.347500", "134750.135000", "134750.922500", "134751.710000", "134752.500000", "134753.287500", "134754.075000", "134754.865000", "134755.652500", "134756.440000", "134757.227500", "134758.017500", "134758.805000", "134759.592500", "134800.380000", "134801.170000", "134801.957500", "134802.745000", "134803.532500", "134804.322500", "134805.110000", "134805.897500", "134806.685000", "134807.475000", "134808.262500", "134809.050000", "134809.837500", "134810.627500", "134811.415000", "134812.202500", "134812.992500", "134813.780000", "134814.567500", "134815.355000", "134816.145000", "134816.932500", "134817.720000", "134818.507500", "134819.297500", "134820.085000", "134820.872500", "134821.660000", "134822.450000", "134823.237500", "134824.025000", "134824.812500", "134825.602500", "134826.390000", "134827.177500", "134827.965000", "134828.755000", "134829.542500", "134830.330000", "134831.120000", "134831.907500", "134832.695000", "134833.482500", "134834.272500", "134835.060000", "134835.847500", "134836.635000", "134837.425000", "134838.212500", "134839.000000", "134839.787500", "134840.577500", "134841.365000", "134842.152500", "134842.940000", "134843.730000", "134844.517500", "134845.305000", "134846.092500", "134846.882500", "134847.670000", "134848.457500", "134849.247500", "134850.035000", "134850.822500", "134851.610000", "134852.400000", "134853.187500", "134853.975000", "134854.762500", "134855.552500", "134856.340000", "134857.127500", "134857.915000", "134858.705000", "134859.492500", "134900.280000", "134901.067500", "134901.857500", "134902.645000", "134903.432500", "134904.220000", "134905.010000", "134905.797500", "134906.585000", "134907.375000", "134908.162500", "134908.950000", "134909.737500", "134910.527500", "134911.315000", "134912.102500", "134912.890000", "134913.680000", "134914.467500", "134915.255000", "134916.042500", "134916.832500", "134917.620000", "134918.407500", "134919.195000", "134919.985000", "134920.772500", "134921.560000", "134922.347500", "134923.137500", "134923.925000", "134924.712500", "134925.502500", "134926.290000", "134927.077500", "134927.865000", "134928.655000", "134929.442500", "134930.230000", "134931.017500", "134931.807500", "134932.595000", "134933.382500", "134934.170000", "134934.960000", "134935.747500", "134936.535000", "134937.322500", "134938.112500", "134938.900000", "134939.687500", "134940.475000", "134941.265000", "134942.052500", "134942.840000", "134943.630000", "134944.417500", "134945.205000", "134945.992500", "134946.782500", "134947.570000", "134948.357500", "134949.145000", "134949.935000", "134950.722500", "134951.510000", "134952.297500", "134953.087500", "134953.875000", "134954.662500", "134955.450000", "134956.240000", "134957.027500", "134957.815000", "134958.602500", "134959.392500", "135000.180000", "135000.967500", "135001.757500", "135002.545000", "135003.332500", "135004.120000", "135004.910000", "135005.697500", "135006.485000", "135007.272500", "135008.062500", "135008.850000", "135009.637500", "135010.425000", "135011.215000", "135012.002500", "135012.790000", "135013.577500", "135014.367500", "135015.155000", "135015.942500", "135016.730000", "135017.520000", "135018.307500", "135019.095000", "135019.885000", "135020.672500", "135021.460000", "135022.247500", "135023.037500", "135023.825000", "135024.612500", "135025.400000", "135026.190000", "135026.977500", "135027.765000", "135028.552500", "135029.342500", "135030.130000", "135030.917500", "135031.705000", "135032.495000", "135033.282500", "135034.070000", "135034.857500", "135035.647500", "135036.435000", "135037.222500", "135038.012500", "135038.800000", "135039.587500", "135040.375000", "135041.165000", "135041.952500", "135042.740000", "135043.527500", "135044.317500", "135045.105000", "135045.892500", "135046.680000", "135047.470000", "135048.257500", "135049.045000", "135049.832500", "135050.622500", "135051.410000", "135052.197500", "135052.985000", "135053.775000", "135054.562500", "135055.350000", "135056.140000", "135056.927500", "135057.715000", "135058.502500", "135059.292500", "135100.080000", "135100.867500", "135101.655000", "135102.445000", "135103.232500", "135104.020000", "135104.807500", "135105.597500", "135106.385000", "135107.172500", "135107.960000", "135108.750000", "135109.537500", "135110.325000", "135111.115000", "135111.902500", "135112.690000", "135113.477500", "135114.267500", "135115.055000", "135115.842500", "135116.630000", "135117.420000", "135118.207500", "135118.995000", "135119.782500", "135120.572500", "135121.360000", "135122.147500", "135122.935000", "135123.725000", "135124.512500", "135125.300000", "135126.087500", "135126.877500", "135127.665000", "135128.452500", "135129.242500", "135130.030000", "135130.817500", "135131.605000", "135132.395000", "135133.182500", "135133.970000", "135134.757500", "135135.547500", "135136.335000", "135137.122500", "135137.910000", "135138.700000", "135139.487500", "135140.275000", "135141.062500", "135141.852500"],
      "ContentTime": ["134422.609000", "134422.609000", "134422.625000", "134422.625000", "134422.625000", "134422.625000", "134422.625000", "134422.625000", "134422.625000", "134422.640000", "134422.640000", "134422.640000", "134422.640000", "134422.640000", "134422.640000", "134422.656000", "134422.656000", "134422.656000", "134422.656000", "134422.656000", "134442.593000", "134442.593000", "134442.593000", "134442.593000", "134442.609000", "134442.609000", "134442.609000", "134442.609000", "134442.609000", "134442.625000", "134442.625000", "134442.625000", "134442.625000", "134442.625000", "134442.625000", "134442.625000", "134442.640000", "134442.640000", "134442.640000", "134442.640000", "134442.640000", "134442.640000", "134442.656000", "134442.656000", "134442.656000", "134502.593000", "134502.593000", "134502.593000", "134502.593000", "134502.609000", "134502.609000", "134502.609000", "134502.609000", "134502.609000", "134502.609000", "134502.609000", "134502.625000", "134502.625000", "134502.625000", "134502.625000", "134502.625000", "134502.625000", "134502.640000", "134502.640000", "134502.640000", "134502.640000", "134502.640000", "134502.640000", "134502.640000", "134502.656000", "134502.656000", "134522.593000", "134522.593000", "134522.593000", "134522.593000", "134522.609000", "134522.609000", "134522.609000", "134522.609000", "134522.609000", "134522.625000", "134522.625000", "134522.625000", "134522.625000", "134522.625000", "134522.625000", "134522.640000", "134522.640000", "134522.640000", "134522.640000", "134522.640000", "134522.640000", "134522.640000", "134522.656000", "134522.656000", "134522.656000", "134542.593000", "134542.593000", "134542.593000", "134542.593000", "134542.609000", "134542.609000", "134542.609000", "134542.609000", "134542.609000", "134542.609000", "134542.609000", "134542.625000", "134542.625000", "134542.625000", "134542.625000", "134542.625000", "134542.625000", "134542.625000", "134542.640000", "134542.640000", "134542.640000", "134542.640000", "134542.640000", "134542.640000", "134542.656000", "134542.656000", "134602.593000", "134602.593000", "134602.593000", "134602.593000", "134602.609000", "134602.609000", "134602.609000", "134602.609000", "134602.609000", "134602.609000", "134602.609000", "134602.625000", "134602.625000", "134602.625000", "134602.625000", "134602.625000", "134602.625000", "134602.625000", "134602.640000", "134602.640000", "134602.640000", "134602.640000", "134602.640000", "134602.640000", "134602.656000", "134622.593000", "134622.593000", "134622.593000", "134622.593000", "134622.609000", "134622.609000", "134622.609000", "134622.609000", "134622.609000", "134622.609000", "134622.609000", "134622.625000", "134622.625000", "134622.625000", "134622.625000", "134622.625000", "134622.625000", "134622.625000", "134622.640000", "134622.640000", "134622.640000", "134622.640000", "134622.640000", "134622.640000", "134622.640000", "134622.656000", "134642.593000", "134642.593000", "134642.593000", "134642.609000", "134642.609000", "134642.609000", "134642.609000", "134642.625000", "134642.625000", "134642.625000", "134642.625000", "134642.625000", "134642.625000", "134642.625000", "134642.640000", "134642.640000", "134642.640000", "134642.640000", "134642.640000", "134642.640000", "134642.640000", "134642.656000", "134642.656000", "134642.656000", "134642.656000", "134702.593000", "134702.593000", "134702.593000", "134702.593000", "134702.609000", "134702.609000", "134702.609000", "134702.609000", "134702.609000", "134702.609000", "134702.609000", "134702.625000", "134702.625000", "134702.625000", "134702.625000", "134702.625000", "134702.625000", "134702.625000", "134702.640000", "134702.640000", "134702.640000", "134702.640000", "134702.640000", "134702.640000", "134702.640000", "134702.656000", "134722.593000", "134722.593000", "134722.593000", "134722.593000", "134722.609000", "134722.609000", "134722.609000", "134722.609000", "134722.609000", "134722.609000", "134722.609000", "134722.625000", "134722.625000", "134722.625000", "134722.625000", "134722.625000", "134722.625000", "134722.625000", "134722.640000", "134722.640000", "134722.640000", "134722.640000", "134722.640000", "134722.640000", "134722.640000", "134742.593000", "134742.593000", "134742.593000", "134742.593000", "134742.609000", "134742.609000", "134742.609000", "134742.609000", "134742.609000", "134742.609000", "134742.609000", "134742.625000", "134742.625000", "134742.625000", "134742.625000", "134742.625000", "134742.625000", "134742.625000", "134742.640000", "134742.640000", "134742.640000", "134742.640000", "134742.640000", "134742.640000", "134742.640000", "134742.656000", "134802.593000", "134802.593000", "134802.593000", "134802.593000", "134802.609000", "134802.609000", "134802.609000", "134802.609000", "134802.609000", "134802.609000", "134802.625000", "134802.625000", "134802.625000", "134802.625000", "134802.625000", "134802.625000", "134802.640000", "134802.640000", "134802.640000", "134802.640000", "134802.640000", "134802.640000", "134802.640000", "134802.656000", "134802.656000", "134822.593000", "134822.593000", "134822.593000", "134822.593000", "134822.609000", "134822.609000", "134822.609000", "134822.609000", "134822.609000", "134822.609000", "134822.609000", "134822.625000", "134822.625000", "134822.625000", "134822.625000", "134822.625000", "134822.625000", "134822.625000", "134822.640000", "134822.640000", "134822.640000", "134822.640000", "134822.640000", "134822.640000", "134822.640000", "134822.656000", "134842.593000", "134842.593000", "134842.593000", "134842.593000", "134842.609000", "134842.609000", "134842.609000", "134842.609000", "134842.609000", "134842.609000", "134842.609000", "134842.625000", "134842.625000", "134842.625000", "134842.625000", "134842.625000", "134842.625000", "134842.625000", "134842.640000", "134842.640000", "134842.640000", "134842.640000", "134842.640000", "134842.640000", "134842.656000", "134902.593000", "134902.593000", "134902.593000", "134902.609000", "134902.609000", "134902.609000", "134902.609000", "134902.609000", "134902.609000", "134902.609000", "134902.625000", "134902.625000", "134902.625000", "134902.625000", "134902.625000", "134902.625000", "134902.625000", "134902.640000", "134902.640000", "134902.640000", "134902.640000", "134902.640000", "134902.640000", "134902.656000", "134902.656000", "134902.656000", "134922.593000", "134922.593000", "134922.593000", "134922.593000", "134922.609000", "134922.609000", "134922.609000", "134922.609000", "134922.609000", "134922.609000", "134922.609000", "134922.625000", "134922.625000", "134922.625000", "134922.625000", "134922.625000", "134922.625000", "134922.625000", "134922.640000", "134922.640000", "134922.640000", "134922.640000", "134922.640000", "134922.640000", "134922.640000", "134942.593000", "134942.593000", "134942.593000", "134942.609000", "134942.609000", "134942.609000", "134942.609000", "134942.625000", "134942.625000", "134942.640000", "134942.640000", "134942.640000", "134942.640000", "134942.640000", "134942.640000", "134942.640000", "134942.656000", "134942.656000", "134942.656000", "134942.656000", "134942.656000", "134942.656000", "134942.656000", "134942.671000", "134942.671000", "135002.593000", "135002.593000", "135002.593000", "135002.593000", "135002.609000", "135002.609000", "135002.609000", "135002.609000", "135002.609000", "135002.609000", "135002.609000", "135002.625000", "135002.625000", "135002.625000", "135002.625000", "135002.625000", "135002.625000", "135002.625000", "135002.640000", "135002.640000", "135002.640000", "135002.640000", "135002.640000", "135002.640000", "135002.656000", "135002.656000", "135022.593000", "135022.593000", "135022.593000", "135022.593000", "135022.609000", "135022.609000", "135022.609000", "135022.609000", "135022.609000", "135022.609000", "135022.609000", "135022.625000", "135022.625000", "135022.625000", "135022.625000", "135022.625000", "135022.625000", "135022.640000", "135022.640000", "135022.640000", "135022.640000", "135022.640000", "135022.640000", "135022.656000", "135022.656000", "135042.593000", "135042.593000", "135042.593000", "135042.593000", "135042.609000", "135042.609000", "135042.609000", "135042.609000", "135042.609000", "135042.609000", "135042.609000", "135042.625000", "135042.625000", "135042.625000", "135042.625000", "135042.625000", "135042.625000", "135042.625000", "135042.640000", "135042.640000", "135042.640000", "135042.640000", "135042.640000", "135042.640000", "135042.640000", "135042.656000", "135102.593000", "135102.593000", "135102.593000", "135102.593000", "135102.609000", "135102.609000", "135102.609000", "135102.609000", "135102.609000", "135102.609000", "135102.609000", "135102.625000", "135102.625000", "135102.625000", "135102.625000", "135102.625000", "135102.625000", "135102.625000", "135102.640000", "135102.640000", "135102.640000", "135102.640000", "135102.640000", "135102.656000", "135102.656000", "135122.593000", "135122.593000", "135122.593000", "135122.593000", "135122.609000", "135122.609000", "135122.609000", "135122.609000", "135122.609000", "135122.609000", "135122.609000", "135122.625000", "135122.625000", "135122.625000", "135122.625000", "135122.625000", "135122.625000", "135122.625000", "135122.640000", "135122.640000", "135122.640000", "135122.640000", "135122.640000", "135122.640000", "135122.640000", "135122.656000", "135142.593000", "135142.593000", "135142.593000", "135142.593000", "135142.609000", "135142.609000", "135142.609000", "135142.609000", "135142.609000", "135142.609000", "135142.609000", "135142.625000", "135142.625000", "135142.625000", "135142.625000", "135142.625000", "135142.640000", "135142.640000", "135142.640000", "135142.640000", "135142.656000", "135142.656000", "135142.656000", "135142.656000", "135142.656000", "135142.765000"],
      "DataSetTrailingPadding": [
