{
  "AcquisitionMatrixPE": 104,
  "AcquisitionNumber": 1,
  "AcquisitionTime": "12:54:20.465000",
  "BandwidthPerPixelPhaseEncode": 13.935,
  "BaseResolution": 104,
  "CoilString": "C:HEA;HEP",
  "ConversionSoftware": "dcm2niix",
  "ConversionSoftwareVersion": "v1.0.20210317",
  "DerivedVendorReportedEchoSpacing": 0.000690017,
  "DeviceSerialNumber": "35450",
  "DwellTime": 2.5e-06,
  "EchoTime": 0.0348,
  "EffectiveEchoSpacing": 0.000690017,
  "FlipAngle": 55,
  "ImageComments": "Unaliased MB8/PE3 (remote)",
  "ImageOrientationPatientDICOM": [0.999952, 6.85377e-05, -0.00979667, -7.61244e-08, 0.999976, 0.00698808],
  "ImageType": [
    "ORIGINAL",
    "PRIMARY",
    "M",
    "MB",
    "ND",
    "MOSAIC"
],
  "ImagingFrequency": 123.234,
  "InPlanePhaseEncodingDirectionDICOM": "COL",
  "InstitutionAddress": "Univeristy Ave. 197,Newark,North East,US,07102-1814",
  "InstitutionName": "RUBIC",
  "InstitutionalDepartmentName": "Department",
  "MRAcquisitionType": "2D",
  "MagneticFieldStrength": 3,
  "Manufacturer": "Siemens",
  "ManufacturersModelName": "TrioTim",
  "Modality": "MR",
  "MultibandAccelerationFactor": 8,
  "PartialFourier": 0.875,
  "PatientPosition": "HFS",
  "PercentPhaseFOV": 100,
  "PercentSampling": 100,
  "PhaseEncodingDirection": "j-",
  "PhaseEncodingSteps": 91,
  "PhaseResolution": 1,
  "PixelBandwidth": 1923,
  "ProcedureStepDescription": "Cole^Michael",
  "ProtocolName": "cmrr_mbep2d_bold_2mm_MB8_Rest",
  "PulseSequenceDetails": "%CustomerSeq%\\cmrr_mbep2d_bold",
  "ReceiveCoilName": "32Ch_Head",
  "ReconMatrixPE": 104,
  "RepetitionTime": 0.785,
  "SAR": 0.120359,
  "ScanOptions": "PFP\\FS",
  "ScanningSequence": "EP",
  "SequenceName": "epfid2d1_104",
  "SequenceVariant": "SK\\SS",
  "SeriesDescription": "cmrr_mbep2d_bold_2mm_MB8_Rest",
  "SeriesNumber": 9,
  "ShimSetting": [2078, -482, -7459, 619, -44, -313, -387, 80],
  "SliceThickness": 2,
  "SliceTiming": [0, 0.4375, 0.0875, 0.525, 0.175, 0.6125, 0.2625, 0.7, 0.35, 0, 0.4375, 0.0875, 0.525, 0.175, 0.6125, 0.2625, 0.7, 0.35, 0, 0.4375, 0.0875, 0.525, 0.175, 0.6125, 0.2625, 0.7, 0.35, 0, 0.4375, 0.0875, 0.525, 0.175, 0.6125, 0.2625, 0.7, 0.35, 0, 0.4375, 0.0875, 0.525, 0.175, 0.6125, 0.2625, 0.7, 0.35, 0, 0.4375, 0.0875, 0.525, 0.175, 0.6125, 0.2625, 0.7, 0.35, 0, 0.4375, 0.0875, 0.525, 0.175, 0.6125, 0.2625, 0.7, 0.35, 0, 0.4375, 0.0875, 0.525, 0.175, 0.6125, 0.2625, 0.7, 0.35],
  "SoftwareVersions": "syngo MR B19",
  "SpacingBetweenSlices": 2,
  "StationName": "MRC35450",
  "TaskName": "rest",
  "TotalReadoutTime": 0.0710717,
  "TxRefAmp": 325.176,
  "dcmmeta_affine": [
    [-1.9999040365219116, -1.522488588534543e-07, -0.019593825563788414, 106.03229522705078],
    [-0.00013707540347240865, 1.9999511241912842, 0.013975482434034348, -80.07144165039062],
    [-0.01959334686398506, -0.013976153917610645, 1.9998551607131958, -81.74139404296875],
    [0.0, 0.0, 0.0, 1.0]
],
  "dcmmeta_reorient_transform": [
    [0.0, -1.0, 0.0, 103.0],
    [1.0, 0.0, 0.0, 0.0],
    [0.0, 0.0, 1.0, 0.0],
    [0.0, 0.0, 0.0, 1.0]
],
  "dcmmeta_shape": [104, 104, 72, 1070],
  "dcmmeta_slice_dim": 2,
  "dcmmeta_version": 0.6,
  "global": {
    "const": {
      "AcquisitionMatrix": [104, 0, 0, 104],
      "AngioFlag": "N",
      "BitsAllocated": 16,
      "BitsStored": 12,
      "Columns": 936,
      "EchoNumbers": 1,
      "EchoTime": 34.8,
      "EchoTrainLength": 1,
      "FlipAngle": 55.0,
      "HighBit": 11,
      "ImageOrientationPatient": [0.99995200909575, 6.853770261e-05, -0.0097966733102, -7.6124429e-08, 0.99997558309117, 0.00698807709422],
      "ImagePositionPatient": [-937.99228743651, -957.96024046813, -80.844184032141],
      "ImageType": [
        "ORIGINAL",
        "PRIMARY",
        "M",
        "MB",
        "ND",
        "MOSAIC"
],
      "ImagedNucleus": "1H",
      "ImagingFrequency": 123.234483,
      "InPlanePhaseEncodingDirection": "COL",
      "MRAcquisitionType": "2D",
      "MagneticFieldStrength": 3.0,
      "Manufacturer": "SIEMENS",
      "ManufacturerModelName": "TrioTim",
      "Modality": "MR",
      "NumberOfAverages": 1.0,
      "NumberOfPhaseEncodingSteps": 91,
      "PercentPhaseFieldOfView": 100.0,
      "PercentSampling": 100.0,
      "PerformedProcedureStepStartTime": "120805.421000",
      "PhotometricInterpretation": "MONOCHROME2",
      "PixelBandwidth": 1923.0,
      "PixelRepresentation": 0,
      "PixelSpacing": [2.0, 2.0],
      "ProtocolName": "cmrr_mbep2d_bold_2mm_MB8_Rest",
      "RepetitionTime": 785.0,
      "Rows": 936,
      "SAR": 0.12035941011849,
      "SamplesPerPixel": 1,
      "ScanOptions": [
        "PFP",
        "FS"
],
      "ScanningSequence": "EP",
      "SequenceName": "epfid2d1_104",
      "SequenceVariant": [
        "SK",
        "SS"
],
      "SeriesDescription": "cmrr_mbep2d_bold_2mm_MB8_Rest",
      "SeriesNumber": 9,
      "SeriesTime": "125453.234000",
      "SliceLocation": -83.333781227003,
      "SliceThickness": 2.0,
      "SmallestImagePixelValue": 0,
      "SoftwareVersions": "syngo MR B19",
      "SpacingBetweenSlices": 2.0000000160377,
      "SpecificCharacterSet": "ISO_IR 100",
      "StudyID": "1",
      "StudyTime": "120805.375000",
      "TransmitCoilName": "Body",
      "VariableFlipAngleFlag": "N",
      "WindowCenterWidthExplanation": "Algo1",
      "dBdt": 0.0},
    "slices": {}
  },
  "time": {
    "samples": {
      "AcquisitionNumber": [1, 2, 3, 4, 5, 6, 7, 8, 9, 10, 11, 12, 13, 14, 15, 16, 17, 18, 19, 20, 21, 22, 23, 24, 25, 26, 27, 28, 29, 30, 31, 32, 33, 34, 35, 36, 37, 38, 39, 40, 41, 42, 43, 44, 45, 46, 47, 48, 49, 50, 51, 52, 53, 54, 55, 56, 57, 58, 59, 60, 61, 62, 63, 64, 65, 66, 67, 68, 69, 70, 71, 72, 73, 74, 75, 76, 77, 78, 79, 80, 81, 82, 83, 84, 85, 86, 87, 88, 89, 90, 91, 92, 93, 94, 95, 96, 97, 98, 99, 100, 101, 102, 103, 104, 105, 106, 107, 108, 109, 110, 111, 112, 113, 114, 115, 116, 117, 118, 119, 120, 121, 122, 123, 124, 125, 126, 127, 128, 129, 130, 131, 132, 133, 134, 135, 136, 137, 138, 139, 140, 141, 142, 143, 144, 145, 146, 147, 148, 149, 150, 151, 152, 153, 154, 155, 156, 157, 158, 159, 160, 161, 162, 163, 164, 165, 166, 167, 168, 169, 170, 171, 172, 173, 174, 175, 176, 177, 178, 179, 180, 181, 182, 183, 184, 185, 186, 187, 188, 189, 190, 191, 192, 193, 194, 195, 196, 197, 198, 199, 200, 201, 202, 203, 204, 205, 206, 207, 208, 209, 210, 211, 212, 213, 214, 215, 216, 217, 218, 219, 220, 221, 222, 223, 224, 225, 226, 227, 228, 229, 230, 231, 232, 233, 234, 235, 236, 237, 238, 239, 240, 241, 242, 243, 244, 245, 246, 247, 248, 249, 250, 251, 252, 253, 254, 255, 256, 257, 258, 259, 260, 261, 262, 263, 264, 265, 266, 267, 268, 269, 270, 271, 272, 273, 274, 275, 276, 277, 278, 279, 280, 281, 282, 283, 284, 285, 286, 287, 288, 289, 290, 291, 292, 293, 294, 295, 296, 297, 298, 299, 300, 301, 302, 303, 304, 305, 306, 307, 308, 309, 310, 311, 312, 313, 314, 315, 316, 317, 318, 319, 320, 321, 322, 323, 324, 325, 326, 327, 328, 329, 330, 331, 332, 333, 334, 335, 336, 337, 338, 339, 340, 341, 342, 343, 344, 345, 346, 347, 348, 349, 350, 351, 352, 353, 354, 355, 356, 357, 358, 359, 360, 361, 362, 363, 364, 365, 366, 367, 368, 369, 370, 371, 372, 373, 374, 375, 376, 377, 378, 379, 380, 381, 382, 383, 384, 385, 386, 387, 388, 389, 390, 391, 392, 393, 394, 395, 396, 397, 398, 399, 400, 401, 402, 403, 404, 405, 406, 407, 408, 409, 410, 411, 412, 413, 414, 415, 416, 417, 418, 419, 420, 421, 422, 423, 424, 425, 426, 427, 428, 429, 430, 431, 432, 433, 434, 435, 436, 437, 438, 439, 440, 441, 442, 443, 444, 445, 446, 447, 448, 449, 450, 451, 452, 453, 454, 455, 456, 457, 458, 459, 460, 461, 462, 463, 464, 465, 466, 467, 468, 469, 470, 471, 472, 473, 474, 475, 476, 477, 478, 479, 480, 481, 482, 483, 484, 485, 486, 487, 488, 489, 490, 491, 492, 493, 494, 495, 496, 497, 498, 499, 500, 501, 502, 503, 504, 505, 506, 507, 508, 509, 510, 511, 512, 513, 514, 515, 516, 517, 518, 519, 520, 521, 522, 523, 524, 525, 526, 527, 528, 529, 530, 531, 532, 533, 534, 535, 536, 537, 538, 539, 540, 541, 542, 543, 544, 545, 546, 547, 548, 549, 550, 551, 552, 553, 554, 555, 556, 557, 558, 559, 560, 561, 562, 563, 564, 565, 566, 567, 568, 569, 570, 571, 572, 573, 574, 575, 576, 577, 578, 579, 580, 581, 582, 583, 584, 585, 586, 587, 588, 589, 590, 591, 592, 593, 594, 595, 596, 597, 598, 599, 600, 601, 602, 603, 604, 605, 606, 607, 608, 609, 610, 611, 612, 613, 614, 615, 616, 617, 618, 619, 620, 621, 622, 623, 624, 625, 626, 627, 628, 629, 630, 631, 632, 633, 634, 635, 636, 637, 638, 639, 640, 641, 642, 643, 644, 645, 646, 647, 648, 649, 650, 651, 652, 653, 654, 655, 656, 657, 658, 659, 660, 661, 662, 663, 664, 665, 666, 667, 668, 669, 670, 671, 672, 673, 674, 675, 676, 677, 678, 679, 680, 681, 682, 683, 684, 685, 686, 687, 688, 689, 690, 691, 692, 693, 694, 695, 696, 697, 698, 699, 700, 701, 702, 703, 704, 705, 706, 707, 708, 709, 710, 711, 712, 713, 714, 715, 716, 717, 718, 719, 720, 721, 722, 723, 724, 725, 726, 727, 728, 729, 730, 731, 732, 733, 734, 735, 736, 737, 738, 739, 740, 741, 742, 743, 744, 745, 746, 747, 748, 749, 750, 751, 752, 753, 754, 755, 756, 757, 758, 759, 760, 761, 762, 763, 764, 765, 766, 767, 768, 769, 770, 771, 772, 773, 774, 775, 776, 777, 778, 779, 780, 781, 782, 783, 784, 785, 786, 787, 788, 789, 790, 791, 792, 793, 794, 795, 796, 797, 798, 799, 800, 801, 802, 803, 804, 805, 806, 807, 808, 809, 810, 811, 812, 813, 814, 815, 816, 817, 818, 819, 820, 821, 822, 823, 824, 825, 826, 827, 828, 829, 830, 831, 832, 833, 834, 835, 836, 837, 838, 839, 840, 841, 842, 843, 844, 845, 846, 847, 848, 849, 850, 851, 852, 853, 854, 855, 856, 857, 858, 859, 860, 861, 862, 863, 864, 865, 866, 867, 868, 869, 870, 871, 872, 873, 874, 875, 876, 877, 878, 879, 880, 881, 882, 883, 884, 885, 886, 887, 888, 889, 890, 891, 892, 893, 894, 895, 896, 897, 898, 899, 900, 901, 902, 903, 904, 905, 906, 907, 908, 909, 910, 911, 912, 913, 914, 915, 916, 917, 918, 919, 920, 921, 922, 923, 924, 925, 926, 927, 928, 929, 930, 931, 932, 933, 934, 935, 936, 937, 938, 939, 940, 941, 942, 943, 944, 945, 946, 947, 948, 949, 950, 951, 952, 953, 954, 955, 956, 957, 958, 959, 960, 961, 962, 963, 964, 965, 966, 967, 968, 969, 970, 971, 972, 973, 974, 975, 976, 977, 978, 979, 980, 981, 982, 983, 984, 985, 986, 987, 988, 989, 990, 991, 992, 993, 994, 995, 996, 997, 998, 999, 1000, 1001, 1002, 1003, 1004, 1005, 1006, 1007, 1008, 1009, 1010, 1011, 1012, 1013, 1014, 1015, 1016, 1017, 1018, 1019, 1020, 1021, 1022, 1023, 1024, 1025, 1026, 1027, 1028, 1029, 1030, 1031, 1032, 1033, 1034, 1035, 1036, 1037, 1038, 1039, 1040, 1041, 1042, 1043, 1044, 1045, 1046, 1047, 1048, 1049, 1050, 1051, 1052, 1053, 1054, 1055, 1056, 1057, 1058, 1059, 1060, 1061, 1062, 1063, 1064, 1065, 1066, 1067, 1068, 1069, 1070],
      "AcquisitionTime": ["125420.465000", "125421.252500", "125422.042500", "125422.830000", "125423.617500", "125424.405000", "125425.195000", "125425.982500", "125426.770000", "125427.557500", "125428.347500", "125429.135000", "125429.922500", "125430.710000", "125431.500000", "125432.287500", "125433.075000", "125433.862500", "125434.652500", "125435.440000", "125436.227500", "125437.017500", "125437.805000", "125438.592500", "125439.380000", "125440.170000", "125440.957500", "125441.745000", "125442.532500", "125443.322500", "125444.110000", "125444.897500", "125445.685000", "125446.475000", "125447.262500", "125448.050000", "125448.837500", "125449.627500", "125450.415000", "125451.202500", "125451.990000", "125452.780000", "125453.567500", "125454.355000", "125455.145000", "125455.932500", "125456.720000", "125457.507500", "125458.297500", "125459.085000", "125459.872500", "125500.660000", "125501.450000", "125502.237500", "125503.025000", "125503.812500", "125504.602500", "125505.390000", "125506.177500", "125506.965000", "125507.755000", "125508.542500", "125509.330000", "125510.117500", "125510.907500", "125511.695000", "125512.482500", "125513.272500", "125514.060000", "125514.847500", "125515.635000", "125516.425000", "125517.212500", "125518.000000", "125518.787500", "125519.577500", "125520.365000", "125521.152500", "125521.940000", "125522.730000", "125523.517500", "125524.305000", "125525.092500", "125525.882500", "125526.670000", "125527.457500", "125528.245000", "125529.035000", "125529.822500", "125530.610000", "125531.400000", "125532.187500", "125532.975000", "125533.762500", "125534.552500", "125535.340000", "125536.127500", "125536.915000", "125537.705000", "125538.492500", "125539.280000", "125540.067500", "125540.857500", "125541.645000", "125542.432500", "125543.220000", "125544.010000", "125544.797500", "125545.585000", "125546.372500", "125547.162500", "125547.950000", "125548.737500", "125549.527500", "125550.315000", "125551.102500", "125551.890000", "125552.680000", "125553.467500", "125554.255000", "125555.042500", "125555.832500", "125556.620000", "125557.407500", "125558.195000", "125558.985000", "125559.772500", "125600.560000", "125601.347500", "125602.137500", "125602.925000", "125603.712500", "125604.500000", "125605.290000", "125606.077500", "125606.865000", "125607.655000", "125608.442500", "125609.230000", "125610.017500", "125610.807500", "125611.595000", "125612.382500", "125613.170000", "125613.960000", "125614.747500", "125615.535000", "125616.322500", "125617.112500", "125617.900000", "125618.687500", "125619.475000", "125620.265000", "125621.052500", "125621.840000", "125622.627500", "125623.417500", "125624.205000", "125624.992500", "125625.782500", "125626.570000", "125627.357500", "125628.145000", "125628.935000", "125629.722500", "125630.510000", "125631.297500", "125632.087500", "125632.875000", "125633.662500", "125634.450000", "125635.240000", "125636.027500", "125636.815000", "125637.602500", "125638.392500", "125639.180000", "125639.967500", "125640.755000", "125641.545000", "125642.332500", "125643.120000", "125643.910000", "125644.697500", "125645.485000", "125646.272500", "125647.062500", "125647.850000", "125648.637500", "125649.425000", "125650.215000", "125651.002500", "125651.790000", "125652.577500", "125653.367500", "125654.155000", "125654.942500", "125655.730000", "125656.520000", "125657.307500", "125658.095000", "125658.882500", "125659.672500", "125700.460000", "125701.247500", "125702.037500", "125702.825000", "125703.612500", "125704.400000", "125705.190000", "125705.977500", "125706.765000", "125707.552500", "125708.342500", "125709.130000", "125709.917500", "125710.705000", "125711.495000", "125712.282500", "125713.070000", "125713.857500", "125714.647500", "125715.435000", "125716.222500", "125717.012500", "125717.800000", "125718.587500", "125719.375000", "125720.165000", "125720.952500", "125721.740000", "125722.527500", "125723.317500", "125724.105000", "125724.892500", "125725.680000", "125726.470000", "125727.257500", "125728.045000", "125728.832500", "125729.622500", "125730.410000", "125731.197500", "125731.985000", "125732.775000", "125733.562500", "125734.350000", "125735.140000", "125735.927500", "125736.715000", "125737.502500", "125738.292500", "125739.080000", "125739.867500", "125740.655000", "125741.445000", "125742.232500", "125743.020000", "125743.807500", "125744.597500", "125745.385000", "125746.172500", "125746.960000", "125747.750000", "125748.537500", "125749.325000", "125750.112500", "125750.902500", "125751.690000", "125752.477500", "125753.267500", "125754.055000", "125754.842500", "125755.630000", "125756.420000", "125757.207500", "125757.995000", "125758.782500", "125759.572500", "125800.360000", "125801.147500", "125801.935000", "125802.725000", "125803.512500", "125804.300000", "125805.087500", "125805.877500", "125806.665000", "125807.452500", "125808.240000", "125809.030000", "125809.817500", "125810.605000", "125811.395000", "125812.182500", "125812.970000", "125813.757500", "125814.547500", "125815.335000", "125816.122500", "125816.910000", "125817.700000", "125818.487500", "125819.275000", "125820.062500", "125820.852500", "125821.640000", "125822.427500", "125823.215000", "125824.005000", "125824.792500", "125825.580000", "125826.367500", "125827.157500", "125827.945000", "125828.732500", "125829.522500", "125830.310000", "125831.097500", "125831.885000", "125832.675000", "125833.462500", "125834.250000", "125835.037500", "125835.827500", "125836.615000", "125837.402500", "125838.190000", "125838.980000", "125839.767500", "125840.555000", "125841.342500", "125842.132500", "125842.920000", "125843.707500", "125844.495000", "125845.285000", "125846.072500", "125846.860000", "125847.650000", "125848.437500", "125849.225000", "125850.012500", "125850.802500", "125851.590000", "125852.377500", "125853.165000", "125853.955000", "125854.742500", "125855.530000", "125856.317500", "125857.107500", "125857.895000", "125858.682500", "125859.470000", "125900.260000", "125901.047500", "125901.835000", "125902.622500", "125903.412500", "125904.200000", "125904.987500", "125905.777500", "125906.565000", "125907.352500", "125908.140000", "125908.930000", "125909.717500", "125910.505000", "125911.292500", "125912.082500", "125912.870000", "125913.657500", "125914.445000", "125915.235000", "125916.022500", "125916.810000", "125917.597500", "125918.387500", "125919.175000", "125919.962500", "125920.750000", "125921.540000", "125922.327500", "125923.115000", "125923.905000", "125924.692500", "125925.480000", "125926.267500", "125927.057500", "125927.845000", "125928.632500", "125929.420000", "125930.210000", "125930.997500", "125931.785000", "125932.572500", "125933.362500", "125934.150000", "125934.937500", "125935.725000", "125936.515000", "125937.302500", "125938.090000", "125938.877500", "125939.667500", "125940.455000", "125941.242500", "125942.032500", "125942.820000", "125943.607500", "125944.395000", "125945.185000", "125945.972500", "125946.760000", "125947.547500", "125948.337500", "125949.125000", "125949.912500", "125950.700000", "125951.490000", "125952.277500", "125953.065000", "125953.852500", "125954.642500", "125955.430000", "125956.217500", "125957.005000", "125957.795000", "125958.582500", "125959.370000", "130000.160000", "130000.947500", "130001.735000", "130002.522500", "130003.312500", "130004.100000", "130004.887500", "130005.675000", "130006.465000", "130007.252500", "130008.040000", "130008.827500", "130009.617500", "130010.405000", "130011.192500", "130011.980000", "130012.770000", "130013.557500", "130014.345000", "130015.132500", "130015.922500", "130016.710000", "130017.497500", "130018.287500", "130019.075000", "130019.862500", "130020.650000", "130021.440000", "130022.227500", "130023.015000", "130023.802500", "130024.592500", "130025.380000", "130026.167500", "130026.955000", "130027.745000", "130028.532500", "130029.320000", "130030.107500", "130030.897500", "130031.685000", "130032.472500", "130033.262500", "130034.050000", "130034.837500", "130035.625000", "130036.415000", "130037.202500", "130037.990000", "130038.777500", "130039.567500", "130040.355000", "130041.142500", "130041.930000", "130042.720000", "130043.507500", "130044.295000", "130045.082500", "130045.872500", "130046.660000", "130047.447500", "130048.235000", "130049.025000", "130049.812500", "130050.600000", "130051.390000", "130052.177500", "130052.965000", "130053.752500", "130054.542500", "130055.330000", "130056.117500", "130056.905000", "130057.695000", "130058.482500", "130059.270000", "130100.057500", "130100.847500", "130101.635000", "130102.422500", "130103.210000", "130104.000000", "130104.787500", "130105.575000", "130106.362500", "130107.152500", "130107.940000", "130108.727500", "130109.517500", "130110.305000", "130111.092500", "130111.880000", "130112.670000", "130113.457500", "130114.245000", "130115.032500", "130115.822500", "130116.610000", "130117.397500", "130118.185000", "130118.975000", "130119.762500", "130120.550000", "130121.337500", "130122.127500", "130122.915000", "130123.702500", "130124.490000", "130125.280000", "130126.067500", "130126.855000", "130127.645000", "130128.432500", "130129.220000", "130130.007500", "130130.797500", "130131.585000", "130132.372500", "130133.160000", "130133.950000", "130134.737500", "130135.525000", "130136.312500", "130137.102500", "130137.890000", "130138.677500", "130139.465000", "130140.255000", "130141.042500", "130141.830000", "130142.617500", "130143.407500", "130144.195000", "130144.982500", "130145.772500", "130146.560000", "130147.347500", "130148.135000", "130148.925000", "130149.712500", "130150.500000", "130151.287500", "130152.077500", "130152.865000", "130153.652500", "130154.440000", "130155.230000", "130156.017500", "130156.805000", "130157.592500", "130158.382500", "130159.170000", "130159.957500", "130200.745000", "130201.535000", "130202.322500", "130203.110000", "130203.900000", "130204.687500", "130205.475000", "130206.262500", "130207.052500", "130207.840000", "130208.627500", "130209.415000", "130210.205000", "130210.992500", "130211.780000", "130212.567500", "130213.357500", "130214.145000", "130214.932500", "130215.720000", "130216.510000", "130217.297500", "130218.085000", "130218.872500", "130219.662500", "130220.450000", "130221.237500", "130222.027500", "130222.815000", "130223.602500", "130224.390000", "130225.180000", "130225.967500", "130226.755000", "130227.542500", "130228.332500", "130229.120000", "130229.907500", "130230.695000", "130231.485000", "130232.272500", "130233.060000", "130233.847500", "130234.637500", "130235.425000", "130236.212500", "130237.000000", "130237.790000", "130238.577500", "130239.365000", "130240.155000", "130240.942500", "130241.730000", "130242.517500", "130243.307500", "130244.095000", "130244.882500", "130245.670000", "130246.460000", "130247.247500", "130248.035000", "130248.822500", "130249.612500", "130250.400000", "130251.187500", "130251.975000", "130252.765000", "130253.552500", "130254.340000", "130255.127500", "130255.917500", "130256.705000", "130257.492500", "130258.282500", "130259.070000", "130259.857500", "130300.645000", "130301.435000", "130302.222500", "130303.010000", "130303.797500", "130304.587500", "130305.375000", "130306.162500", "130306.950000", "130307.740000", "130308.527500", "130309.315000", "130310.102500", "130310.892500", "130311.680000", "130312.467500", "130313.255000", "130314.045000", "130314.832500", "130315.620000", "130316.410000", "130317.197500", "130317.985000", "130318.772500", "130319.562500", "130320.350000", "130321.137500", "130321.925000", "130322.715000", "130323.502500", "130324.290000", "130325.077500", "130325.867500", "130326.655000", "130327.442500", "130328.230000", "130329.020000", "130329.807500", "130330.595000", "130331.382500", "130332.172500", "130332.960000", "130333.747500", "130334.537500", "130335.325000", "130336.112500", "130336.900000", "130337.690000", "130338.477500", "130339.265000", "130340.052500", "130340.842500", "130341.630000", "130342.417500", "130343.205000", "130343.995000", "130344.782500", "130345.570000", "130346.357500", "130347.147500", "130347.935000", "130348.722500", "130349.512500", "130350.300000", "130351.087500", "130351.875000", "130352.665000", "130353.452500", "130354.240000", "130355.027500", "130355.817500", "130356.605000", "130357.392500", "130358.180000", "130358.970000", "130359.757500", "130400.545000", "130401.332500", "130402.122500", "130402.910000", "130403.697500", "130404.485000", "130405.275000", "130406.062500", "130406.850000", "130407.640000", "130408.427500", "130409.215000", "130410.002500", "130410.792500", "130411.580000", "130412.367500", "130413.155000", "130413.945000", "130414.732500", "130415.520000", "130416.307500", "130417.097500", "130417.885000", "130418.672500", "130419.460000", "130420.250000", "130421.037500", "130421.825000", "130422.612500", "130423.402500", "130424.190000", "130424.977500", "130425.767500", "130426.555000", "130427.342500", "130428.130000", "130428.920000", "130429.707500", "130430.495000", "130431.282500", "130432.072500", "130432.860000", "130433.647500", "130434.435000", "130435.225000", "130436.012500", "130436.800000", "130437.587500", "130438.377500", "130439.165000", "130439.952500", "130440.740000", "130441.530000", "130442.317500", "130443.105000", "130443.895000", "130444.682500", "130445.470000", "130446.257500", "130447.047500", "130447.835000", "130448.622500", "130449.410000", "130450.200000", "130450.987500", "130451.775000", "130452.562500", "130453.352500", "130454.140000", "130454.927500", "130455.715000", "130456.505000", "130457.292500", "130458.080000", "130458.867500", "130459.657500", "130500.445000", "130501.232500", "130502.022500", "130502.810000", "130503.597500", "130504.385000", "130505.175000", "130505.962500", "130506.750000", "130507.537500", "130508.327500", "130509.115000", "130509.902500", "130510.690000", "130511.480000", "130512.267500", "130513.055000", "130513.842500", "130514.632500", "130515.420000", "130516.207500", "130516.995000", "130517.785000", "130518.572500", "130519.360000", "130520.150000", "130520.937500", "130521.725000", "130522.512500", "130523.302500", "130524.090000", "130524.877500", "130525.665000", "130526.455000", "130527.242500", "130528.030000", "130528.817500", "130529.607500", "130530.395000", "130531.182500", "130531.970000", "130532.760000", "130533.547500", "130534.335000", "130535.122500", "130535.912500", "130536.700000", "130537.487500", "130538.277500", "130539.065000", "130539.852500", "130540.640000", "130541.430000", "130542.217500", "130543.005000", "130543.792500", "130544.582500", "130545.370000", "130546.157500", "130546.945000", "130547.735000", "130548.522500", "130549.310000", "130550.097500", "130550.887500", "130551.675000", "130552.462500", "130553.250000", "130554.040000", "130554.827500", "130555.615000", "130556.405000", "130557.192500", "130557.980000", "130558.767500", "130559.557500", "130600.345000", "130601.132500", "130601.920000", "130602.710000", "130603.497500", "130604.285000", "130605.072500", "130605.862500", "130606.650000", "130607.437500", "130608.225000", "130609.015000", "130609.802500", "130610.590000", "130611.377500", "130612.167500", "130612.955000", "130613.742500", "130614.532500", "130615.320000", "130616.107500", "130616.895000", "130617.685000", "130618.472500", "130619.260000", "130620.047500", "130620.837500", "130621.625000", "130622.412500", "130623.200000", "130623.990000", "130624.777500", "130625.565000", "130626.352500", "130627.142500", "130627.930000", "130628.717500", "130629.505000", "130630.295000", "130631.082500", "130631.870000", "130632.660000", "130633.447500", "130634.235000", "130635.022500", "130635.812500", "130636.600000", "130637.387500", "130638.175000", "130638.965000", "130639.752500", "130640.540000", "130641.327500", "130642.117500", "130642.905000", "130643.692500", "130644.480000", "130645.270000", "130646.057500", "130646.845000", "130647.632500", "130648.422500", "130649.210000", "130649.997500", "130650.787500", "130651.575000", "130652.362500", "130653.150000", "130653.940000", "130654.727500", "130655.515000", "130656.302500", "130657.092500", "130657.880000", "130658.667500", "130659.455000", "130700.245000", "130701.032500", "130701.820000", "130702.607500", "130703.397500", "130704.185000", "130704.972500", "130705.762500", "130706.550000", "130707.337500", "130708.125000", "130708.915000", "130709.702500", "130710.490000", "130711.277500", "130712.067500", "130712.855000", "130713.642500", "130714.430000", "130715.220000", "130716.007500", "130716.795000", "130717.582500", "130718.372500", "130719.160000", "130719.947500", "130720.735000", "130721.525000", "130722.312500", "130723.100000", "130723.890000", "130724.677500", "130725.465000", "130726.252500", "130727.042500", "130727.830000", "130728.617500", "130729.405000", "130730.195000", "130730.982500", "130731.770000", "130732.557500", "130733.347500", "130734.135000", "130734.922500", "130735.710000", "130736.500000", "130737.287500", "130738.075000", "130738.862500", "130739.652500", "130740.440000", "130741.227500", "130742.017500", "130742.805000", "130743.592500", "130744.380000", "130745.170000", "130745.957500", "130746.745000", "130747.532500", "130748.322500", "130749.110000", "130749.897500", "130750.685000", "130751.475000", "130752.262500", "130753.050000", "130753.837500", "130754.627500", "130755.415000", "130756.202500", "130756.990000", "130757.780000", "130758.567500", "130759.355000", "130800.145000", "130800.932500", "130801.720000", "130802.507500", "130803.297500", "130804.085000", "130804.872500", "130805.660000", "130806.450000", "130807.237500", "130808.025000", "130808.812500", "130809.602500", "130810.390000", "130811.177500", "130811.965000", "130812.755000", "130813.542500", "130814.330000", "130815.117500", "130815.907500", "130816.695000", "130817.482500", "130818.272500", "130819.060000", "130819.847500", "130820.635000", "130821.425000", "130822.212500", "130823.000000"],
