{
  "AcquisitionMatrixPE": 104,
  "AcquisitionNumber": 1,
  "AcquisitionTime": "14:17:24.707500",
  "BandwidthPerPixelPhaseEncode": 13.935,
  "BaseResolution": 104,
  "CoilString": "C:HEA;HEP",
  "ConversionSoftware": "dcm2niix",
  "ConversionSoftwareVersion": "v1.0.20210317",
  "DerivedVendorReportedEchoSpacing": 0.000690017,
  "DeviceSerialNumber": "35450",
  "DwellTime": 2.5e-06,
  "EchoTime": 0.0348,
  "EffectiveEchoSpacing": 0.000690017,
  "FlipAngle": 55,
  "ImageComments": "Unaliased MB8/PE3 (remote)",
  "ImageOrientationPatientDICOM": [0.999952, 6.85377e-05, -0.00979667, -7.61244e-08, 0.999976, 0.00698808],
  "ImageType": [
    "ORIGINAL",
    "PRIMARY",
    "M",
    "MB",
    "ND",
    "MOSAIC"
],
  "ImagingFrequency": 123.235,
  "InPlanePhaseEncodingDirectionDICOM": "COL",
  "InstitutionAddress": "Univeristy Ave. 197,Newark,North East,US,07102-1814",
  "InstitutionName": "RUBIC",
  "InstitutionalDepartmentName": "Department",
  "MRAcquisitionType": "2D",
  "MagneticFieldStrength": 3,
  "Manufacturer": "Siemens",
  "ManufacturersModelName": "TrioTim",
  "Modality": "MR",
  "MultibandAccelerationFactor": 8,
  "PartialFourier": 0.875,
  "PatientPosition": "HFS",
  "PercentPhaseFOV": 100,
  "PercentSampling": 100,
  "PhaseEncodingDirection": "j-",
  "PhaseEncodingSteps": 91,
  "PhaseResolution": 1,
  "PixelBandwidth": 1923,
  "ProcedureStepDescription": "Cole^Michael",
  "ProtocolName": "cmrr_mbep2d_bold_2mm_MB8_Task_8x",
  "PulseSequenceDetails": "%CustomerSeq%\\cmrr_mbep2d_bold",
  "ReceiveCoilName": "32Ch_Head",
  "ReconMatrixPE": 104,
  "RepetitionTime": 0.785,
  "SAR": 0.123555,
  "ScanOptions": "PFP\\FS",
  "ScanningSequence": "EP",
  "SequenceName": "epfid2d1_104",
  "SequenceVariant": "SK\\SS",
  "SeriesDescription": "cmrr_mbep2d_bold_2mm_MB8_Task_8x",
  "SeriesNumber": 27,
  "ShimSetting": [2078, -482, -7459, 619, -44, -313, -387, 80],
  "SliceThickness": 2,
  "SliceTiming": [0, 0.4375, 0.0875, 0.525, 0.175, 0.6125, 0.2625, 0.7, 0.35, 0, 0.4375, 0.0875, 0.525, 0.175, 0.6125, 0.2625, 0.7, 0.35, 0, 0.4375, 0.0875, 0.525, 0.175, 0.6125, 0.2625, 0.7, 0.35, 0, 0.4375, 0.0875, 0.525, 0.175, 0.6125, 0.2625, 0.7, 0.35, 0, 0.4375, 0.0875, 0.525, 0.175, 0.6125, 0.2625, 0.7, 0.35, 0, 0.4375, 0.0875, 0.525, 0.175, 0.6125, 0.2625, 0.7, 0.35, 0, 0.4375, 0.0875, 0.525, 0.175, 0.6125, 0.2625, 0.7, 0.35, 0, 0.4375, 0.0875, 0.525, 0.175, 0.6125, 0.2625, 0.7, 0.35],
  "SoftwareVersions": "syngo MR B19",
  "SpacingBetweenSlices": 2,
  "StationName": "MRC35450",
  "TaskName": "cpro",
  "TotalReadoutTime": 0.0710717,
  "TxRefAmp": 325.176,
  "dcmmeta_affine": [
    [-1.9999040365219116, -1.522488588534543e-07, -0.019593825563788414, 106.03229522705078],
    [-0.00013707540347240865, 1.9999511241912842, 0.013975482434034348, -80.07144165039062],
    [-0.01959334686398506, -0.013976153917610645, 1.9998551607131958, -81.74139404296875],
    [0.0, 0.0, 0.0, 1.0]
],
  "dcmmeta_reorient_transform": [
    [0.0, -1.0, 0.0, 103.0],
    [1.0, 0.0, 0.0, 0.0],
    [0.0, 0.0, 1.0, 0.0],
    [0.0, 0.0, 0.0, 1.0]
],
  "dcmmeta_shape": [104, 104, 72, 581],
  "dcmmeta_slice_dim": 2,
  "dcmmeta_version": 0.6,
  "global": {
    "const": {
      "AcquisitionMatrix": [104, 0, 0, 104],
      "AngioFlag": "N",
      "BitsAllocated": 16,
      "BitsStored": 12,
      "Columns": 936,
      "EchoNumbers": 1,
      "EchoTime": 34.8,
      "EchoTrainLength": 1,
      "FlipAngle": 55.0,
      "HighBit": 11,
      "ImageOrientationPatient": [0.99995200909575, 6.853770261e-05, -0.0097966733102, -7.6124429e-08, 0.99997558309117, 0.00698807709422],
      "ImagePositionPatient": [-937.99228743651, -957.96024046813, -80.844184032141],
      "ImageType": [
        "ORIGINAL",
        "PRIMARY",
        "M",
        "MB",
        "ND",
        "MOSAIC"
],
      "ImagedNucleus": "1H",
      "ImagingFrequency": 123.23454,
      "InPlanePhaseEncodingDirection": "COL",
      "MRAcquisitionType": "2D",
      "MagneticFieldStrength": 3.0,
      "Manufacturer": "SIEMENS",
      "ManufacturerModelName": "TrioTim",
      "Modality": "MR",
      "NumberOfAverages": 1.0,
      "NumberOfPhaseEncodingSteps": 91,
      "PercentPhaseFieldOfView": 100.0,
      "PercentSampling": 100.0,
      "PerformedProcedureStepStartTime": "120805.421000",
      "PhotometricInterpretation": "MONOCHROME2",
      "PixelBandwidth": 1923.0,
      "PixelRepresentation": 0,
      "PixelSpacing": [2.0, 2.0],
      "ProtocolName": "cmrr_mbep2d_bold_2mm_MB8_Task_8x",
      "RepetitionTime": 785.0,
      "Rows": 936,
      "SAR": 0.12355460809801,
      "SamplesPerPixel": 1,
      "ScanOptions": [
        "PFP",
        "FS"
],
      "ScanningSequence": "EP",
      "SequenceName": "epfid2d1_104",
      "SequenceVariant": [
        "SK",
        "SS"
],
      "SeriesDescription": "cmrr_mbep2d_bold_2mm_MB8_Task_8x",
      "SeriesNumber": 27,
      "SeriesTime": "141753.234000",
      "SliceLocation": -83.333781227003,
      "SliceThickness": 2.0,
      "SmallestImagePixelValue": 0,
      "SoftwareVersions": "syngo MR B19",
      "SpacingBetweenSlices": 2.0000000160377,
      "SpecificCharacterSet": "ISO_IR 100",
      "StudyID": "1",
      "StudyTime": "120805.375000",
      "TransmitCoilName": "Body",
      "VariableFlipAngleFlag": "N",
      "WindowCenterWidthExplanation": "Algo1",
      "dBdt": 0.0},
    "slices": {}
  },
  "time": {
    "samples": {
      "AcquisitionNumber": [1, 2, 3, 4, 5, 6, 7, 8, 9, 10, 11, 12, 13, 14, 15, 16, 17, 18, 19, 20, 21, 22, 23, 24, 25, 26, 27, 28, 29, 30, 31, 32, 33, 34, 35, 36, 37, 38, 39, 40, 41, 42, 43, 44, 45, 46, 47, 48, 49, 50, 51, 52, 53, 54, 55, 56, 57, 58, 59, 60, 61, 62, 63, 64, 65, 66, 67, 68, 69, 70, 71, 72, 73, 74, 75, 76, 77, 78, 79, 80, 81, 82, 83, 84, 85, 86, 87, 88, 89, 90, 91, 92, 93, 94, 95, 96, 97, 98, 99, 100, 101, 102, 103, 104, 105, 106, 107, 108, 109, 110, 111, 112, 113, 114, 115, 116, 117, 118, 119, 120, 121, 122, 123, 124, 125, 126, 127, 128, 129, 130, 131, 132, 133, 134, 135, 136, 137, 138, 139, 140, 141, 142, 143, 144, 145, 146, 147, 148, 149, 150, 151, 152, 153, 154, 155, 156, 157, 158, 159, 160, 161, 162, 163, 164, 165, 166, 167, 168, 169, 170, 171, 172, 173, 174, 175, 176, 177, 178, 179, 180, 181, 182, 183, 184, 185, 186, 187, 188, 189, 190, 191, 192, 193, 194, 195, 196, 197, 198, 199, 200, 201, 202, 203, 204, 205, 206, 207, 208, 209, 210, 211, 212, 213, 214, 215, 216, 217, 218, 219, 220, 221, 222, 223, 224, 225, 226, 227, 228, 229, 230, 231, 232, 233, 234, 235, 236, 237, 238, 239, 240, 241, 242, 243, 244, 245, 246, 247, 248, 249, 250, 251, 252, 253, 254, 255, 256, 257, 258, 259, 260, 261, 262, 263, 264, 265, 266, 267, 268, 269, 270, 271, 272, 273, 274, 275, 276, 277, 278, 279, 280, 281, 282, 283, 284, 285, 286, 287, 288, 289, 290, 291, 292, 293, 294, 295, 296, 297, 298, 299, 300, 301, 302, 303, 304, 305, 306, 307, 308, 309, 310, 311, 312, 313, 314, 315, 316, 317, 318, 319, 320, 321, 322, 323, 324, 325, 326, 327, 328, 329, 330, 331, 332, 333, 334, 335, 336, 337, 338, 339, 340, 341, 342, 343, 344, 345, 346, 347, 348, 349, 350, 351, 352, 353, 354, 355, 356, 357, 358, 359, 360, 361, 362, 363, 364, 365, 366, 367, 368, 369, 370, 371, 372, 373, 374, 375, 376, 377, 378, 379, 380, 381, 382, 383, 384, 385, 386, 387, 388, 389, 390, 391, 392, 393, 394, 395, 396, 397, 398, 399, 400, 401, 402, 403, 404, 405, 406, 407, 408, 409, 410, 411, 412, 413, 414, 415, 416, 417, 418, 419, 420, 421, 422, 423, 424, 425, 426, 427, 428, 429, 430, 431, 432, 433, 434, 435, 436, 437, 438, 439, 440, 441, 442, 443, 444, 445, 446, 447, 448, 449, 450, 451, 452, 453, 454, 455, 456, 457, 458, 459, 460, 461, 462, 463, 464, 465, 466, 467, 468, 469, 470, 471, 472, 473, 474, 475, 476, 477, 478, 479, 480, 481, 482, 483, 484, 485, 486, 487, 488, 489, 490, 491, 492, 493, 494, 495, 496, 497, 498, 499, 500, 501, 502, 503, 504, 505, 506, 507, 508, 509, 510, 511, 512, 513, 514, 515, 516, 517, 518, 519, 520, 521, 522, 523, 524, 525, 526, 527, 528, 529, 530, 531, 532, 533, 534, 535, 536, 537, 538, 539, 540, 541, 542, 543, 544, 545, 546, 547, 548, 549, 550, 551, 552, 553, 554, 555, 556, 557, 558, 559, 560, 561, 562, 563, 564, 565, 566, 567, 568, 569, 570, 571, 572, 573, 574, 575, 576, 577, 578, 579, 580, 581],
      "AcquisitionTime": ["141724.707500", "141725.495000", "141726.285000", "141727.072500", "141727.860000", "141728.647500", "141729.437500", "141730.225000", "141731.012500", "141731.802500", "141732.590000", "141733.377500", "141734.165000", "141734.955000", "141735.742500", "141736.530000", "141737.317500", "141738.107500", "141738.895000", "141739.682500", "141740.470000", "141741.260000", "141742.047500", "141742.835000", "141743.622500", "141744.412500", "141745.200000", "141745.987500", "141746.775000", "141747.565000", "141748.352500", "141749.140000", "141749.930000", "141750.717500", "141751.505000", "141752.292500", "141753.082500", "141753.870000", "141754.657500", "141755.445000", "141756.235000", "141757.022500", "141757.810000", "141758.597500", "141759.387500", "141800.175000", "141800.962500", "141801.750000", "141802.540000", "141803.327500", "141804.115000", "141804.902500", "141805.692500", "141806.480000", "141807.267500", "141808.057500", "141808.845000", "141809.632500", "141810.420000", "141811.210000", "141811.997500", "141812.785000", "141813.572500", "141814.362500", "141815.150000", "141815.937500", "141816.725000", "141817.515000", "141818.302500", "141819.090000", "141819.877500", "141820.667500", "141821.455000", "141822.242500", "141823.030000", "141823.820000", "141824.607500", "141825.395000", "141826.185000", "141826.972500", "141827.760000", "141828.547500", "141829.337500", "141830.125000", "141830.912500", "141831.700000", "141832.490000", "141833.277500", "141834.065000", "141834.852500", "141835.642500", "141836.430000", "141837.217500", "141838.005000", "141838.795000", "141839.582500", "141840.370000", "141841.157500", "141841.947500", "141842.735000", "141843.522500", "141844.312500", "141845.100000", "141845.887500", "141846.675000", "141847.465000", "141848.252500", "141849.040000", "141849.827500", "141850.617500", "141851.405000", "141852.192500", "141852.980000", "141853.770000", "141854.557500", "141855.345000", "141856.132500", "141856.922500", "141857.710000", "141858.497500", "141859.285000", "141900.075000", "141900.862500", "141901.650000", "141902.440000", "141903.227500", "141904.015000", "141904.802500", "141905.592500", "141906.380000", "141907.167500", "141907.955000", "141908.745000", "141909.532500", "141910.320000", "141911.107500", "141911.897500", "141912.685000", "141913.472500", "141914.260000", "141915.050000", "141915.837500", "141916.625000", "141917.412500", "141918.202500", "141918.990000", "141919.777500", "141920.567500", "141921.355000", "141922.142500", "141922.930000", "141923.720000", "141924.507500", "141925.295000", "141926.082500", "141926.872500", "141927.660000", "141928.447500", "141929.235000", "141930.025000", "141930.812500", "141931.600000", "141932.387500", "141933.177500", "141933.965000", "141934.752500", "141935.540000", "141936.330000", "141937.117500", "141937.905000", "141938.695000", "141939.482500", "141940.270000", "141941.057500", "141941.847500", "141942.635000", "141943.422500", "141944.210000", "141945.000000", "141945.787500", "141946.575000", "141947.362500", "141948.152500", "141948.940000", "141949.727500", "141950.515000", "141951.305000", "141952.092500", "141952.880000", "141953.667500", "141954.457500", "141955.245000", "141956.032500", "141956.822500", "141957.610000", "141958.397500", "141959.185000", "141959.975000", "142000.762500", "142001.550000", "142002.337500", "142003.127500", "142003.915000", "142004.702500", "142005.490000", "142006.280000", "142007.067500", "142007.855000", "142008.642500", "142009.432500", "142010.220000", "142011.007500", "142011.795000", "142012.585000", "142013.372500", "142014.160000", "142014.950000", "142015.737500", "142016.525000", "142017.312500", "142018.102500", "142018.890000", "142019.677500", "142020.465000", "142021.255000", "142022.042500", "142022.830000", "142023.617500", "142024.407500", "142025.195000", "142025.982500", "142026.770000", "142027.560000", "142028.347500", "142029.135000", "142029.922500", "142030.712500", "142031.500000", "142032.287500", "142033.077500", "142033.865000", "142034.652500", "142035.440000", "142036.230000", "142037.017500", "142037.805000", "142038.592500", "142039.382500", "142040.170000", "142040.957500", "142041.745000", "142042.535000", "142043.322500", "142044.110000", "142044.897500", "142045.687500", "142046.475000", "142047.262500", "142048.052500", "142048.840000", "142049.627500", "142050.415000", "142051.205000", "142051.992500", "142052.780000", "142053.567500", "142054.357500", "142055.145000", "142055.932500", "142056.720000", "142057.510000", "142058.297500", "142059.085000", "142059.872500", "142100.662500", "142101.450000", "142102.237500", "142103.025000", "142103.815000", "142104.602500", "142105.390000", "142106.180000", "142106.967500", "142107.755000", "142108.542500", "142109.332500", "142110.120000", "142110.907500", "142111.695000", "142112.485000", "142113.272500", "142114.060000", "142114.847500", "142115.637500", "142116.425000", "142117.212500", "142118.000000", "142118.790000", "142119.577500", "142120.365000", "142121.152500", "142121.942500", "142122.730000", "142123.517500", "142124.307500", "142125.095000", "142125.882500", "142126.670000", "142127.460000", "142128.247500", "142129.035000", "142129.822500", "142130.612500", "142131.400000", "142132.187500", "142132.975000", "142133.765000", "142134.552500", "142135.340000", "142136.127500", "142136.917500", "142137.705000", "142138.492500", "142139.280000", "142140.070000", "142140.857500", "142141.645000", "142142.435000", "142143.222500", "142144.010000", "142144.797500", "142145.587500", "142146.375000", "142147.162500", "142147.950000", "142148.740000", "142149.527500", "142150.315000", "142151.102500", "142151.892500", "142152.680000", "142153.467500", "142154.255000", "142155.045000", "142155.832500", "142156.620000", "142157.407500", "142158.197500", "142158.985000", "142159.772500", "142200.562500", "142201.350000", "142202.137500", "142202.925000", "142203.715000", "142204.502500", "142205.290000", "142206.077500", "142206.867500", "142207.655000", "142208.442500", "142209.230000", "142210.020000", "142210.807500", "142211.595000", "142212.382500", "142213.172500", "142213.960000", "142214.747500", "142215.535000", "142216.325000", "142217.112500", "142217.900000", "142218.690000", "142219.477500", "142220.265000", "142221.052500", "142221.842500", "142222.630000", "142223.417500", "142224.205000", "142224.995000", "142225.782500", "142226.570000", "142227.357500", "142228.147500", "142228.935000", "142229.722500", "142230.510000", "142231.300000", "142232.087500", "142232.875000", "142233.662500", "142234.452500", "142235.240000", "142236.027500", "142236.817500", "142237.605000", "142238.392500", "142239.180000", "142239.970000", "142240.757500", "142241.545000", "142242.332500", "142243.122500", "142243.910000", "142244.697500", "142245.485000", "142246.275000", "142247.062500", "142247.850000", "142248.637500", "142249.427500", "142250.215000", "142251.002500", "142251.790000", "142252.580000", "142253.367500", "142254.155000", "142254.945000", "142255.732500", "142256.520000", "142257.307500", "142258.097500", "142258.885000", "142259.672500", "142300.460000", "142301.250000", "142302.037500", "142302.825000", "142303.612500", "142304.402500", "142305.190000", "142305.977500", "142306.765000", "142307.555000", "142308.342500", "142309.130000", "142309.917500", "142310.707500", "142311.495000", "142312.282500", "142313.072500", "142313.860000", "142314.647500", "142315.435000", "142316.225000", "142317.012500", "142317.800000", "142318.587500", "142319.377500", "142320.165000", "142320.952500", "142321.740000", "142322.530000", "142323.317500", "142324.105000", "142324.892500", "142325.682500", "142326.470000", "142327.257500", "142328.045000", "142328.835000", "142329.622500", "142330.410000", "142331.200000", "142331.987500", "142332.775000", "142333.562500", "142334.352500", "142335.140000", "142335.927500", "142336.715000", "142337.505000", "142338.292500", "142339.080000", "142339.867500", "142340.657500", "142341.445000", "142342.232500", "142343.020000", "142343.810000", "142344.597500", "142345.385000", "142346.172500", "142346.962500", "142347.750000", "142348.537500", "142349.327500", "142350.115000", "142350.902500", "142351.690000", "142352.480000", "142353.267500", "142354.055000", "142354.842500", "142355.632500", "142356.420000", "142357.207500", "142357.995000", "142358.785000", "142359.572500", "142400.360000", "142401.147500", "142401.937500", "142402.725000", "142403.512500", "142404.302500", "142405.090000", "142405.877500", "142406.665000", "142407.455000", "142408.242500", "142409.030000", "142409.817500", "142410.607500", "142411.395000", "142412.182500", "142412.970000", "142413.760000", "142414.547500", "142415.335000", "142416.122500", "142416.912500", "142417.700000", "142418.487500", "142419.275000", "142420.065000", "142420.852500", "142421.640000", "142422.430000", "142423.217500", "142424.005000", "142424.792500", "142425.582500", "142426.370000", "142427.157500", "142427.945000", "142428.735000", "142429.522500", "142430.310000", "142431.097500", "142431.887500", "142432.675000", "142433.462500", "142434.250000", "142435.040000", "142435.827500", "142436.615000", "142437.402500", "142438.192500", "142438.980000", "142439.767500", "142440.557500", "142441.345000", "142442.132500", "142442.920000", "142443.710000", "142444.497500", "142445.285000", "142446.072500", "142446.862500", "142447.650000", "142448.437500", "142449.225000", "142450.015000", "142450.802500", "142451.590000", "142452.377500", "142453.167500", "142453.955000", "142454.742500", "142455.530000", "142456.320000", "142457.107500", "142457.895000", "142458.685000", "142459.472500", "142500.260000", "142501.047500", "142501.837500"],
      "ContentTime": ["141753.234000", "141753.234000", "141753.234000", "141753.234000", "141753.250000", "141753.250000", "141753.250000", "141753.250000", "141753.265000", "141753.265000", "141753.265000", "141753.265000", "141753.265000", "141753.265000", "141753.281000", "141753.281000", "141753.281000", "141753.281000", "141753.281000", "141753.281000", "141753.281000", "141753.296000", "141753.296000", "141753.296000", "141753.296000", "141753.296000", "141753.296000", "141753.296000", "141753.312000", "141753.312000", "141753.312000", "141753.312000", "141753.328000", "141813.203000", "141813.203000", "141813.203000", "141813.203000", "141813.218000", "141813.218000", "141813.218000", "141813.218000", "141813.218000", "141813.218000", "141813.218000", "141813.234000", "141813.234000", "141813.234000", "141813.234000", "141813.234000", "141813.234000", "141813.234000", "141813.250000", "141813.250000", "141813.250000", "141813.250000", "141813.250000", "141813.250000", "141813.250000", "141813.265000", "141833.203000", "141833.203000", "141833.203000", "141833.203000", "141833.218000", "141833.218000", "141833.218000", "141833.218000", "141833.218000", "141833.218000", "141833.250000", "141833.250000", "141833.250000", "141833.265000", "141833.265000", "141833.265000", "141833.265000", "141833.281000", "141833.281000", "141833.281000", "141833.281000", "141833.281000", "141833.296000", "141833.296000", "141833.312000", "141853.203000", "141853.203000", "141853.203000", "141853.203000", "141853.218000", "141853.218000", "141853.218000", "141853.218000", "141853.218000", "141853.234000", "141853.234000", "141853.234000", "141853.234000", "141853.234000", "141853.234000", "141853.250000", "141853.250000", "141853.250000", "141853.250000", "141853.250000", "141853.250000", "141853.250000", "141853.265000", "141853.265000", "141853.265000", "141853.265000", "141913.203000", "141913.203000", "141913.203000", "141913.203000", "141913.218000", "141913.218000", "141913.218000", "141913.218000", "141913.218000", "141913.218000", "141913.218000", "141913.234000", "141913.234000", "141913.234000", "141913.234000", "141913.234000", "141913.234000", "141913.250000", "141913.250000", "141913.250000", "141913.250000", "141913.250000", "141913.250000", "141913.265000", "141913.265000", "141933.203000", "141933.203000", "141933.203000", "141933.203000", "141933.218000", "141933.218000", "141933.218000", "141933.218000", "141933.218000", "141933.218000", "141933.218000", "141933.234000", "141933.234000", "141933.234000", "141933.234000", "141933.250000", "141933.250000", "141933.250000", "141933.250000", "141933.250000", "141933.250000", "141933.250000", "141933.265000", "141933.265000", "141933.265000", "141933.265000", "141953.203000", "141953.203000", "141953.203000", "141953.218000", "141953.218000", "141953.218000", "141953.218000", "141953.218000", "141953.218000", "141953.265000", "141953.281000", "141953.281000", "141953.281000", "141953.281000", "141953.296000", "141953.296000", "141953.296000", "141953.296000", "141953.296000", "141953.312000", "141953.312000", "141953.312000", "141953.312000", "141953.312000", "141953.328000", "142013.203000", "142013.203000", "142013.203000", "142013.203000", "142013.218000", "142013.218000", "142013.218000", "142013.218000", "142013.218000", "142013.218000", "142013.218000", "142013.234000", "142013.234000", "142013.234000", "142013.234000", "142013.234000", "142013.234000", "142013.250000", "142013.250000", "142013.250000", "142013.250000", "142013.250000", "142013.250000", "142013.250000", "142013.265000", "142013.265000", "142033.203000", "142033.203000", "142033.203000", "142033.203000", "142033.218000", "142033.218000", "142033.218000", "142033.218000", "142033.218000", "142033.218000", "142033.218000", "142033.234000", "142033.234000", "142033.234000", "142033.234000", "142033.250000", "142033.250000", "142033.250000", "142033.250000", "142033.250000", "142033.250000", "142033.265000", "142033.265000", "142033.265000", "142033.265000", "142053.203000", "142053.203000", "142053.203000", "142053.203000", "142053.218000", "142053.218000", "142053.218000", "142053.218000", "142053.218000", "142053.218000", "142053.218000", "142053.234000", "142053.234000", "142053.234000", "142053.234000", "142053.234000", "142053.250000", "142053.250000", "142053.250000", "142053.250000", "142053.250000", "142053.250000", "142053.250000", "142053.265000", "142053.265000", "142053.265000", "142113.203000", "142113.203000", "142113.203000", "142113.203000", "142113.218000", "142113.218000", "142113.218000", "142113.218000", "142113.218000", "142113.218000", "142113.265000", "142113.265000", "142113.281000", "142113.281000", "142113.281000", "142113.281000", "142113.281000", "142113.296000", "142113.296000", "142113.296000", "142113.296000", "142113.296000", "142113.296000", "142113.312000", "142113.312000", "142133.203000", "142133.203000", "142133.203000", "142133.203000", "142133.218000", "142133.218000", "142133.218000", "142133.218000", "142133.218000", "142133.218000", "142133.218000", "142133.234000", "142133.234000", "142133.234000", "142133.234000", "142133.234000", "142133.234000", "142133.234000", "142133.250000", "142133.250000", "142133.250000", "142133.250000", "142133.250000", "142133.250000", "142133.250000", "142133.265000", "142153.203000", "142153.203000", "142153.203000", "142153.203000", "142153.218000", "142153.218000", "142153.218000", "142153.218000", "142153.218000", "142153.218000", "142153.234000", "142153.234000", "142153.234000", "142153.234000", "142153.234000", "142153.234000", "142153.234000", "142153.250000", "142153.250000", "142153.250000", "142153.250000", "142153.250000", "142153.250000", "142153.250000", "142153.265000", "142213.203000", "142213.203000", "142213.203000", "142213.203000", "142213.218000", "142213.218000", "142213.218000", "142213.218000", "142213.218000", "142213.218000", "142213.218000", "142213.234000", "142213.234000", "142213.234000", "142213.234000", "142213.234000", "142213.234000", "142213.234000", "142213.250000", "142213.250000", "142213.250000", "142213.250000", "142213.250000", "142213.250000", "142213.250000", "142213.265000", "142233.203000", "142233.203000", "142233.203000", "142233.203000", "142233.218000", "142233.218000", "142233.218000", "142233.218000", "142233.218000", "142233.265000", "142233.265000", "142233.265000", "142233.265000", "142233.265000", "142233.281000", "142233.281000", "142233.281000", "142233.281000", "142233.296000", "142233.296000", "142233.296000", "142233.296000", "142233.296000", "142233.312000", "142233.312000", "142253.203000", "142253.203000", "142253.203000", "142253.203000", "142253.218000", "142253.218000", "142253.218000", "142253.218000", "142253.218000", "142253.218000", "142253.218000", "142253.234000", "142253.234000", "142253.234000", "142253.234000", "142253.234000", "142253.234000", "142253.234000", "142253.250000", "142253.250000", "142253.250000", "142253.250000", "142253.250000", "142253.265000", "142253.265000", "142253.265000", "142313.203000", "142313.203000", "142313.203000", "142313.203000", "142313.218000", "142313.218000", "142313.218000", "142313.218000", "142313.218000", "142313.218000", "142313.234000", "142313.234000", "142313.234000", "142313.234000", "142313.234000", "142313.250000", "142313.250000", "142313.250000", "142313.250000", "142313.250000", "142313.250000", "142313.250000", "142313.265000", "142313.265000", "142313.265000", "142333.203000", "142333.203000", "142333.203000", "142333.203000", "142333.218000", "142333.218000", "142333.218000", "142333.218000", "142333.218000", "142333.234000", "142333.234000", "142333.234000", "142333.250000", "142333.250000", "142333.250000", "142333.250000", "142333.250000", "142333.250000", "142333.265000", "142333.265000", "142333.265000", "142333.265000", "142333.265000", "142333.265000", "142333.265000", "142333.281000", "142353.203000", "142353.203000", "142353.203000", "142353.203000", "142353.218000", "142353.218000", "142353.218000", "142353.218000", "142353.218000", "142353.296000", "142353.296000", "142353.296000", "142353.312000", "142353.312000", "142353.312000", "142353.312000", "142353.328000", "142353.328000", "142353.328000", "142353.328000", "142353.328000", "142353.328000", "142353.328000", "142353.343000", "142353.343000", "142413.203000", "142413.203000", "142413.203000", "142413.203000", "142413.218000", "142413.218000", "142413.218000", "142413.218000", "142413.218000", "142413.218000", "142413.218000", "142413.234000", "142413.234000", "142413.234000", "142413.234000", "142413.234000", "142413.234000", "142413.250000", "142413.250000", "142413.250000", "142413.250000", "142413.250000", "142413.250000", "142413.250000", "142413.265000", "142413.265000", "142433.203000", "142433.203000", "142433.203000", "142433.203000", "142433.218000", "142433.218000", "142433.218000", "142433.218000", "142433.218000", "142433.218000", "142433.218000", "142433.234000", "142433.234000", "142433.234000", "142433.234000", "142433.250000", "142433.250000", "142433.250000", "142433.250000", "142433.250000", "142433.265000", "142433.265000", "142433.265000", "142433.265000", "142433.265000", "142453.203000", "142453.203000", "142453.203000", "142453.203000", "142453.218000", "142453.218000", "142453.218000", "142453.218000", "142453.250000", "142453.250000", "142453.250000", "142453.250000", "142453.250000", "142453.250000", "142453.250000", "142453.265000", "142453.265000", "142453.265000", "142453.265000", "142453.265000", "142453.265000", "142453.265000", "142453.281000", "142453.281000", "142453.281000", "142502.656000", "142502.656000", "142502.656000", "142502.656000", "142502.656000", "142502.671000", "142502.671000", "142502.671000", "142502.671000", "142502.687000", "142502.687000", "142502.687000", "142502.687000"],
      "DataSetTrailingPadding": [
