{
  "AcquisitionMatrixPE": 104,
  "AcquisitionNumber": 1,
  "AcquisitionTime": "16:00:17.770000",
  "BandwidthPerPixelPhaseEncode": 13.935,
  "BaseResolution": 104,
  "CoilString": "C:HEA;HEP",
  "ConversionSoftware": "dcm2niix",
  "ConversionSoftwareVersion": "v1.0.20210317",
  "DerivedVendorReportedEchoSpacing": 0.000690017,
  "DeviceSerialNumber": "35450",
  "DwellTime": 2.5e-06,
  "EchoTime": 0.0348,
  "EffectiveEchoSpacing": 0.000690017,
  "FlipAngle": 55,
  "ImageComments": "Unaliased MB8/PE3 (remote)",
  "ImageOrientationPatientDICOM": [0.999925, 0.000724289, 0.0121913, 3.26753e-08, 0.99824, -0.0593083],
  "ImageType": [
    "ORIGINAL",
    "PRIMARY",
    "M",
    "MB",
    "ND",
    "MOSAIC"
],
  "ImagingFrequency": 123.234,
  "InPlanePhaseEncodingDirectionDICOM": "COL",
  "InstitutionAddress": "Univeristy Ave. 197,Newark,North East,US,07102-1814",
  "InstitutionName": "RUBIC",
  "InstitutionalDepartmentName": "Department",
  "MRAcquisitionType": "2D",
  "MagneticFieldStrength": 3,
  "Manufacturer": "Siemens",
  "ManufacturersModelName": "TrioTim",
  "Modality": "MR",
  "MultibandAccelerationFactor": 8,
  "PartialFourier": 0.875,
  "PatientPosition": "HFS",
  "PercentPhaseFOV": 100,
  "PercentSampling": 100,
  "PhaseEncodingDirection": "j-",
  "PhaseEncodingSteps": 91,
  "PhaseResolution": 1,
  "PixelBandwidth": 1923,
  "ProcedureStepDescription": "Cole^Michael",
  "ProtocolName": "cmrr_mbep2d_bold_2mm_MB8_Task_8x",
  "PulseSequenceDetails": "%CustomerSeq%\\cmrr_mbep2d_bold",
  "ReceiveCoilName": "32Ch_Head",
  "ReconMatrixPE": 104,
  "RepetitionTime": 0.785,
  "SAR": 0.127807,
  "ScanOptions": "PFP\\FS",
  "ScanningSequence": "EP",
  "SequenceName": "epfid2d1_104",
  "SequenceVariant": "SK\\SS",
  "SeriesDescription": "cmrr_mbep2d_bold_2mm_MB8_Task_8x",
  "SeriesNumber": 25,
  "ShimSetting": [2112, -456, -7254, 654, 49, -311, -149, 15],
  "SliceThickness": 2,
  "SliceTiming": [0, 0.4375, 0.0875, 0.525, 0.175, 0.6125, 0.2625, 0.7, 0.35, 0, 0.4375, 0.0875, 0.525, 0.175, 0.6125, 0.2625, 0.7, 0.35, 0, 0.4375, 0.0875, 0.525, 0.175, 0.6125, 0.2625, 0.7, 0.35, 0, 0.4375, 0.0875, 0.525, 0.175, 0.6125, 0.2625, 0.7, 0.35, 0, 0.4375, 0.0875, 0.525, 0.175, 0.6125, 0.2625, 0.7, 0.35, 0, 0.4375, 0.0875, 0.525, 0.175, 0.6125, 0.2625, 0.7, 0.35, 0, 0.4375, 0.0875, 0.525, 0.175, 0.6125, 0.2625, 0.7, 0.35, 0, 0.4375, 0.0875, 0.525, 0.175, 0.6125, 0.2625, 0.7, 0.35],
  "SoftwareVersions": "syngo MR B19",
  "SpacingBetweenSlices": 2,
  "StationName": "MRC35450",
  "TaskName": "cpro",
  "TotalReadoutTime": 0.0710717,
  "TxRefAmp": 330.384,
  "dcmmeta_affine": [
    [-1.999850869178772, 6.535065466550805e-08, 0.024425625801086426, 101.77136993408203],
    [-0.0014485777355730534, 1.9964793920516968, -0.11860779672861099, -89.56269073486328],
    [0.024382634088397026, 0.11861664801836014, 1.9963304996490479, -91.82665252685547],
    [0.0, 0.0, 0.0, 1.0]
],
  "dcmmeta_reorient_transform": [
    [0.0, -1.0, 0.0, 103.0],
    [1.0, 0.0, 0.0, 0.0],
    [0.0, 0.0, 1.0, 0.0],
    [0.0, 0.0, 0.0, 1.0]
],
  "dcmmeta_shape": [104, 104, 72, 581],
  "dcmmeta_slice_dim": 2,
  "dcmmeta_version": 0.6,
  "global": {
    "const": {
      "AcquisitionMatrix": [104, 0, 0, 104],
      "AngioFlag": "N",
      "BitsAllocated": 16,
      "BitsStored": 12,
      "Columns": 936,
      "EchoNumbers": 1,
      "EchoTime": 34.8,
      "EchoTrainLength": 1,
      "FlipAngle": 55.0,
      "HighBit": 11,
      "ImageOrientationPatient": [0.99992542081251, 0.00072428886562, 0.01219131734307, 3.2675328e-08, 0.99823971212994, -0.0593083225756],
      "ImagePositionPatient": [-933.70935110875, -947.21273996755, -40.407790963688],
      "ImageType": [
        "ORIGINAL",
        "PRIMARY",
        "M",
        "MB",
        "ND",
        "MOSAIC"
],
      "ImagedNucleus": "1H",
      "ImagingFrequency": 123.234498,
      "InPlanePhaseEncodingDirection": "COL",
      "MRAcquisitionType": "2D",
      "MagneticFieldStrength": 3.0,
      "Manufacturer": "SIEMENS",
      "ManufacturerModelName": "TrioTim",
      "Modality": "MR",
      "NumberOfAverages": 1.0,
      "NumberOfPhaseEncodingSteps": 91,
      "PercentPhaseFieldOfView": 100.0,
      "PercentSampling": 100.0,
      "PerformedProcedureStepStartTime": "134810.750000",
      "PhotometricInterpretation": "MONOCHROME2",
      "PixelBandwidth": 1923.0,
      "PixelRepresentation": 0,
      "PixelSpacing": [2.0, 2.0],
      "ProtocolName": "cmrr_mbep2d_bold_2mm_MB8_Task_8x",
      "RepetitionTime": 785.0,
      "Rows": 936,
      "SAR": 0.12780666900379,
      "SamplesPerPixel": 1,
      "ScanOptions": [
        "PFP",
        "FS"
],
      "ScanningSequence": "EP",
      "SequenceName": "epfid2d1_104",
      "SequenceVariant": [
        "SK",
        "SS"
],
      "SeriesDescription": "cmrr_mbep2d_bold_2mm_MB8_Task_8x",
      "SeriesNumber": 25,
      "SeriesTime": "160042.859000",
      "SliceLocation": -85.10384462754,
      "SliceThickness": 2.0,
      "SmallestImagePixelValue": 0,
      "SoftwareVersions": "syngo MR B19",
      "SpacingBetweenSlices": 1.9999999478811,
      "SpecificCharacterSet": "ISO_IR 100",
      "StudyID": "1",
      "StudyTime": "134810.656000",
      "TransmitCoilName": "Body",
      "VariableFlipAngleFlag": "N",
      "WindowCenterWidthExplanation": "Algo1",
      "dBdt": 0.0},
    "slices": {}
  },
  "time": {
    "samples": {
      "AcquisitionNumber": [1, 2, 3, 4, 5, 6, 7, 8, 9, 10, 11, 12, 13, 14, 15, 16, 17, 18, 19, 20, 21, 22, 23, 24, 25, 26, 27, 28, 29, 30, 31, 32, 33, 34, 35, 36, 37, 38, 39, 40, 41, 42, 43, 44, 45, 46, 47, 48, 49, 50, 51, 52, 53, 54, 55, 56, 57, 58, 59, 60, 61, 62, 63, 64, 65, 66, 67, 68, 69, 70, 71, 72, 73, 74, 75, 76, 77, 78, 79, 80, 81, 82, 83, 84, 85, 86, 87, 88, 89, 90, 91, 92, 93, 94, 95, 96, 97, 98, 99, 100, 101, 102, 103, 104, 105, 106, 107, 108, 109, 110, 111, 112, 113, 114, 115, 116, 117, 118, 119, 120, 121, 122, 123, 124, 125, 126, 127, 128, 129, 130, 131, 132, 133, 134, 135, 136, 137, 138, 139, 140, 141, 142, 143, 144, 145, 146, 147, 148, 149, 150, 151, 152, 153, 154, 155, 156, 157, 158, 159, 160, 161, 162, 163, 164, 165, 166, 167, 168, 169, 170, 171, 172, 173, 174, 175, 176, 177, 178, 179, 180, 181, 182, 183, 184, 185, 186, 187, 188, 189, 190, 191, 192, 193, 194, 195, 196, 197, 198, 199, 200, 201, 202, 203, 204, 205, 206, 207, 208, 209, 210, 211, 212, 213, 214, 215, 216, 217, 218, 219, 220, 221, 222, 223, 224, 225, 226, 227, 228, 229, 230, 231, 232, 233, 234, 235, 236, 237, 238, 239, 240, 241, 242, 243, 244, 245, 246, 247, 248, 249, 250, 251, 252, 253, 254, 255, 256, 257, 258, 259, 260, 261, 262, 263, 264, 265, 266, 267, 268, 269, 270, 271, 272, 273, 274, 275, 276, 277, 278, 279, 280, 281, 282, 283, 284, 285, 286, 287, 288, 289, 290, 291, 292, 293, 294, 295, 296, 297, 298, 299, 300, 301, 302, 303, 304, 305, 306, 307, 308, 309, 310, 311, 312, 313, 314, 315, 316, 317, 318, 319, 320, 321, 322, 323, 324, 325, 326, 327, 328, 329, 330, 331, 332, 333, 334, 335, 336, 337, 338, 339, 340, 341, 342, 343, 344, 345, 346, 347, 348, 349, 350, 351, 352, 353, 354, 355, 356, 357, 358, 359, 360, 361, 362, 363, 364, 365, 366, 367, 368, 369, 370, 371, 372, 373, 374, 375, 376, 377, 378, 379, 380, 381, 382, 383, 384, 385, 386, 387, 388, 389, 390, 391, 392, 393, 394, 395, 396, 397, 398, 399, 400, 401, 402, 403, 404, 405, 406, 407, 408, 409, 410, 411, 412, 413, 414, 415, 416, 417, 418, 419, 420, 421, 422, 423, 424, 425, 426, 427, 428, 429, 430, 431, 432, 433, 434, 435, 436, 437, 438, 439, 440, 441, 442, 443, 444, 445, 446, 447, 448, 449, 450, 451, 452, 453, 454, 455, 456, 457, 458, 459, 460, 461, 462, 463, 464, 465, 466, 467, 468, 469, 470, 471, 472, 473, 474, 475, 476, 477, 478, 479, 480, 481, 482, 483, 484, 485, 486, 487, 488, 489, 490, 491, 492, 493, 494, 495, 496, 497, 498, 499, 500, 501, 502, 503, 504, 505, 506, 507, 508, 509, 510, 511, 512, 513, 514, 515, 516, 517, 518, 519, 520, 521, 522, 523, 524, 525, 526, 527, 528, 529, 530, 531, 532, 533, 534, 535, 536, 537, 538, 539, 540, 541, 542, 543, 544, 545, 546, 547, 548, 549, 550, 551, 552, 553, 554, 555, 556, 557, 558, 559, 560, 561, 562, 563, 564, 565, 566, 567, 568, 569, 570, 571, 572, 573, 574, 575, 576, 577, 578, 579, 580, 581],
      "AcquisitionTime": ["160017.770000", "160018.557500", "160019.347500", "160020.135000", "160020.922500", "160021.710000", "160022.500000", "160023.287500", "160024.075000", "160024.862500", "160025.652500", "160026.440000", "160027.227500", "160028.015000", "160028.805000", "160029.592500", "160030.380000", "160031.167500", "160031.957500", "160032.745000", "160033.532500", "160034.322500", "160035.110000", "160035.897500", "160036.685000", "160037.475000", "160038.262500", "160039.050000", "160039.837500", "160040.627500", "160041.415000", "160042.202500", "160042.990000", "160043.780000", "160044.567500", "160045.355000", "160046.142500", "160046.932500", "160047.720000", "160048.507500", "160049.295000", "160050.085000", "160050.872500", "160051.660000", "160052.450000", "160053.237500", "160054.025000", "160054.812500", "160055.602500", "160056.390000", "160057.177500", "160057.965000", "160058.755000", "160059.542500", "160100.330000", "160101.117500", "160101.907500", "160102.695000", "160103.482500", "160104.270000", "160105.060000", "160105.847500", "160106.635000", "160107.422500", "160108.212500", "160109.000000", "160109.787500", "160110.577500", "160111.365000", "160112.152500", "160112.940000", "160113.730000", "160114.517500", "160115.305000", "160116.092500", "160116.882500", "160117.670000", "160118.457500", "160119.245000", "160120.035000", "160120.822500", "160121.610000", "160122.397500", "160123.187500", "160123.975000", "160124.762500", "160125.550000", "160126.340000", "160127.127500", "160127.915000", "160128.705000", "160129.492500", "160130.280000", "160131.067500", "160131.857500", "160132.645000", "160133.432500", "160134.220000", "160135.010000", "160135.797500", "160136.585000", "160137.372500", "160138.162500", "160138.950000", "160139.737500", "160140.525000", "160141.315000", "160142.102500", "160142.890000", "160143.677500", "160144.467500", "160145.255000", "160146.042500", "160146.832500", "160147.620000", "160148.407500", "160149.195000", "160149.985000", "160150.772500", "160151.560000", "160152.347500", "160153.137500", "160153.925000", "160154.712500", "160155.500000", "160156.290000", "160157.077500", "160157.865000", "160158.652500", "160159.442500", "160200.230000", "160201.017500", "160201.805000", "160202.595000", "160203.382500", "160204.170000", "160204.960000", "160205.747500", "160206.535000", "160207.322500", "160208.112500", "160208.900000", "160209.687500", "160210.475000", "160211.265000", "160212.052500", "160212.840000", "160213.627500", "160214.417500", "160215.205000", "160215.992500", "160216.780000", "160217.570000", "160218.357500", "160219.145000", "160219.932500", "160220.722500", "160221.510000", "160222.297500", "160223.087500", "160223.875000", "160224.662500", "160225.450000", "160226.240000", "160227.027500", "160227.815000", "160228.602500", "160229.392500", "160230.180000", "160230.967500", "160231.755000", "160232.545000", "160233.332500", "160234.120000", "160234.907500", "160235.697500", "160236.485000", "160237.272500", "160238.060000", "160238.850000", "160239.637500", "160240.425000", "160241.215000", "160242.002500", "160242.790000", "160243.577500", "160244.367500", "160245.155000", "160245.942500", "160246.730000", "160247.520000", "160248.307500", "160249.095000", "160249.882500", "160250.672500", "160251.460000", "160252.247500", "160253.035000", "160253.825000", "160254.612500", "160255.400000", "160256.187500", "160256.977500", "160257.765000", "160258.552500", "160259.342500", "160300.130000", "160300.917500", "160301.705000", "160302.495000", "160303.282500", "160304.070000", "160304.857500", "160305.647500", "160306.435000", "160307.222500", "160308.010000", "160308.800000", "160309.587500", "160310.375000", "160311.162500", "160311.952500", "160312.740000", "160313.527500", "160314.315000", "160315.105000", "160315.892500", "160316.680000", "160317.470000", "160318.257500", "160319.045000", "160319.832500", "160320.622500", "160321.410000", "160322.197500", "160322.985000", "160323.775000", "160324.562500", "160325.350000", "160326.137500", "160326.927500", "160327.715000", "160328.502500", "160329.290000", "160330.080000", "160330.867500", "160331.655000", "160332.445000", "160333.232500", "160334.020000", "160334.807500", "160335.597500", "160336.385000", "160337.172500", "160337.960000", "160338.750000", "160339.537500", "160340.325000", "160341.112500", "160341.902500", "160342.690000", "160343.477500", "160344.265000", "160345.055000", "160345.842500", "160346.630000", "160347.417500", "160348.207500", "160348.995000", "160349.782500", "160350.572500", "160351.360000", "160352.147500", "160352.935000", "160353.725000", "160354.512500", "160355.300000", "160356.087500", "160356.877500", "160357.665000", "160358.452500", "160359.240000", "160400.030000", "160400.817500", "160401.605000", "160402.392500", "160403.182500", "160403.970000", "160404.757500", "160405.545000", "160406.335000", "160407.122500", "160407.910000", "160408.700000", "160409.487500", "160410.275000", "160411.062500", "160411.852500", "160412.640000", "160413.427500", "160414.215000", "160415.005000", "160415.792500", "160416.580000", "160417.367500", "160418.157500", "160418.945000", "160419.732500", "160420.520000", "160421.310000", "160422.097500", "160422.885000", "160423.672500", "160424.462500", "160425.250000", "160426.037500", "160426.827500", "160427.615000", "160428.402500", "160429.190000", "160429.980000", "160430.767500", "160431.555000", "160432.342500", "160433.132500", "160433.920000", "160434.707500", "160435.495000", "160436.285000", "160437.072500", "160437.860000", "160438.647500", "160439.437500", "160440.225000", "160441.012500", "160441.800000", "160442.590000", "160443.377500", "160444.165000", "160444.955000", "160445.742500", "160446.530000", "160447.317500", "160448.107500", "160448.895000", "160449.682500", "160450.470000", "160451.260000", "160452.047500", "160452.835000", "160453.622500", "160454.412500", "160455.200000", "160455.987500", "160456.775000", "160457.565000", "160458.352500", "160459.140000", "160459.927500", "160500.717500", "160501.505000", "160502.292500", "160503.082500", "160503.870000", "160504.657500", "160505.445000", "160506.235000", "160507.022500", "160507.810000", "160508.597500", "160509.387500", "160510.175000", "160510.962500", "160511.750000", "160512.540000", "160513.327500", "160514.115000", "160514.902500", "160515.692500", "160516.480000", "160517.267500", "160518.055000", "160518.845000", "160519.632500", "160520.420000", "160521.210000", "160521.997500", "160522.785000", "160523.572500", "160524.362500", "160525.150000", "160525.937500", "160526.725000", "160527.515000", "160528.302500", "160529.090000", "160529.877500", "160530.667500", "160531.455000", "160532.242500", "160533.030000", "160533.820000", "160534.607500", "160535.395000", "160536.182500", "160536.972500", "160537.760000", "160538.547500", "160539.337500", "160540.125000", "160540.912500", "160541.700000", "160542.490000", "160543.277500", "160544.065000", "160544.852500", "160545.642500", "160546.430000", "160547.217500", "160548.005000", "160548.795000", "160549.582500", "160550.370000", "160551.157500", "160551.947500", "160552.735000", "160553.522500", "160554.310000", "160555.100000", "160555.887500", "160556.675000", "160557.465000", "160558.252500", "160559.040000", "160559.827500", "160600.617500", "160601.405000", "160602.192500", "160602.980000", "160603.770000", "160604.557500", "160605.345000", "160606.132500", "160606.922500", "160607.710000", "160608.497500", "160609.285000", "160610.075000", "160610.862500", "160611.650000", "160612.437500", "160613.227500", "160614.015000", "160614.802500", "160615.592500", "160616.380000", "160617.167500", "160617.955000", "160618.745000", "160619.532500", "160620.320000", "160621.107500", "160621.897500", "160622.685000", "160623.472500", "160624.260000", "160625.050000", "160625.837500", "160626.625000", "160627.412500", "160628.202500", "160628.990000", "160629.777500", "160630.565000", "160631.355000", "160632.142500", "160632.930000", "160633.720000", "160634.507500", "160635.295000", "160636.082500", "160636.872500", "160637.660000", "160638.447500", "160639.235000", "160640.025000", "160640.812500", "160641.600000", "160642.387500", "160643.177500", "160643.965000", "160644.752500", "160645.540000", "160646.330000", "160647.117500", "160647.905000", "160648.695000", "160649.482500", "160650.270000", "160651.057500", "160651.847500", "160652.635000", "160653.422500", "160654.210000", "160655.000000", "160655.787500", "160656.575000", "160657.362500", "160658.152500", "160658.940000", "160659.727500", "160700.515000", "160701.305000", "160702.092500", "160702.880000", "160703.667500", "160704.457500", "160705.245000", "160706.032500", "160706.822500", "160707.610000", "160708.397500", "160709.185000", "160709.975000", "160710.762500", "160711.550000", "160712.337500", "160713.127500", "160713.915000", "160714.702500", "160715.490000", "160716.280000", "160717.067500", "160717.855000", "160718.642500", "160719.432500", "160720.220000", "160721.007500", "160721.795000", "160722.585000", "160723.372500", "160724.160000", "160724.950000", "160725.737500", "160726.525000", "160727.312500", "160728.102500", "160728.890000", "160729.677500", "160730.465000", "160731.255000", "160732.042500", "160732.830000", "160733.617500", "160734.407500", "160735.195000", "160735.982500", "160736.770000", "160737.560000", "160738.347500", "160739.135000", "160739.922500", "160740.712500", "160741.500000", "160742.287500", "160743.077500", "160743.865000", "160744.652500", "160745.440000", "160746.230000", "160747.017500", "160747.805000", "160748.592500", "160749.382500", "160750.170000", "160750.957500", "160751.745000", "160752.535000", "160753.322500", "160754.110000", "160754.897500"],
      "ContentTime": ["160042.875000", "160042.875000", "160042.875000", "160042.875000", "160042.875000", "160042.875000", "160042.890000", "160042.890000", "160042.890000", "160042.890000", "160042.890000", "160042.890000", "160042.890000", "160042.906000", "160042.906000", "160042.906000", "160042.906000", "160042.906000", "160042.906000", "160042.906000", "160042.921000", "160042.921000", "160042.921000", "160042.921000", "160042.921000", "160042.921000", "160042.921000", "160042.937000", "160102.843000", "160102.843000", "160102.843000", "160102.843000", "160102.859000", "160102.859000", "160102.859000", "160102.859000", "160102.859000", "160102.859000", "160102.875000", "160102.875000", "160102.875000", "160102.875000", "160102.875000", "160102.875000", "160102.890000", "160102.890000", "160102.890000", "160102.890000", "160102.906000", "160102.906000", "160102.906000", "160102.906000", "160102.906000", "160122.843000", "160122.843000", "160122.843000", "160122.843000", "160122.859000", "160122.859000", "160122.859000", "160122.859000", "160122.859000", "160122.859000", "160122.875000", "160122.875000", "160122.875000", "160122.875000", "160122.875000", "160122.875000", "160122.890000", "160122.890000", "160122.890000", "160122.890000", "160122.890000", "160122.890000", "160122.890000", "160122.906000", "160122.906000", "160122.906000", "160142.843000", "160142.843000", "160142.843000", "160142.843000", "160142.859000", "160142.859000", "160142.859000", "160142.859000", "160142.859000", "160142.859000", "160142.859000", "160142.875000", "160142.875000", "160142.875000", "160142.875000", "160142.875000", "160142.875000", "160142.875000", "160142.890000", "160142.890000", "160142.890000", "160142.890000", "160142.906000", "160142.906000", "160142.906000", "160202.843000", "160202.843000", "160202.843000", "160202.843000", "160202.859000", "160202.859000", "160202.859000", "160202.859000", "160202.859000", "160202.859000", "160202.859000", "160202.875000", "160202.875000", "160202.875000", "160202.875000", "160202.875000", "160202.875000", "160202.875000", "160202.890000", "160202.890000", "160202.890000", "160202.890000", "160202.890000", "160202.890000", "160202.906000", "160202.906000", "160222.843000", "160222.843000", "160222.859000", "160222.859000", "160222.859000", "160222.859000", "160222.859000", "160222.859000", "160222.859000", "160222.875000", "160222.875000", "160222.875000", "160222.875000", "160222.875000", "160222.875000", "160222.875000", "160222.890000", "160222.890000", "160222.890000", "160222.890000", "160222.890000", "160222.906000", "160222.906000", "160222.906000", "160222.906000", "160242.843000", "160242.843000", "160242.843000", "160242.843000", "160242.859000", "160242.859000", "160242.859000", "160242.859000", "160242.859000", "160242.859000", "160242.859000", "160242.875000", "160242.875000", "160242.875000", "160242.875000", "160242.875000", "160242.875000", "160242.875000", "160242.890000", "160242.890000", "160242.890000", "160242.890000", "160242.890000", "160242.890000", "160242.890000", "160242.906000", "160302.843000", "160302.843000", "160302.843000", "160302.843000", "160302.859000", "160302.859000", "160302.859000", "160302.859000", "160302.859000", "160302.859000", "160302.859000", "160302.875000", "160302.875000", "160302.875000", "160302.875000", "160302.875000", "160302.875000", "160302.875000", "160302.890000", "160302.890000", "160302.890000", "160302.890000", "160302.890000", "160302.906000", "160302.906000", "160322.843000", "160322.843000", "160322.843000", "160322.843000", "160322.859000", "160322.859000", "160322.859000", "160322.859000", "160322.859000", "160322.859000", "160322.859000", "160322.875000", "160322.875000", "160322.875000", "160322.875000", "160322.875000", "160322.875000", "160322.890000", "160322.890000", "160322.890000", "160322.890000", "160322.890000", "160322.906000", "160322.906000", "160322.906000", "160322.906000", "160342.843000", "160342.843000", "160342.843000", "160342.843000", "160342.859000", "160342.859000", "160342.859000", "160342.859000", "160342.859000", "160342.859000", "160342.859000", "160342.875000", "160342.875000", "160342.875000", "160342.875000", "160342.875000", "160342.875000", "160342.875000", "160342.890000", "160342.890000", "160342.890000", "160342.890000", "160342.890000", "160342.890000", "160342.890000", "160402.843000", "160402.843000", "160402.843000", "160402.843000", "160402.859000", "160402.859000", "160402.859000", "160402.859000", "160402.859000", "160402.859000", "160402.859000", "160402.875000", "160402.875000", "160402.875000", "160402.875000", "160402.875000", "160402.875000", "160402.875000", "160402.890000", "160402.890000", "160402.890000", "160402.890000", "160402.890000", "160402.890000", "160402.890000", "160402.906000", "160422.843000", "160422.843000", "160422.843000", "160422.843000", "160422.859000", "160422.859000", "160422.859000", "160422.859000", "160422.859000", "160422.859000", "160422.859000", "160422.875000", "160422.875000", "160422.875000", "160422.875000", "160422.875000", "160422.875000", "160422.875000", "160422.890000", "160422.890000", "160422.890000", "160422.890000", "160422.890000", "160422.890000", "160422.906000", "160442.843000", "160442.843000", "160442.843000", "160442.843000", "160442.859000", "160442.859000", "160442.859000", "160442.859000", "160442.859000", "160442.859000", "160442.859000", "160442.875000", "160442.875000", "160442.875000", "160442.875000", "160442.875000", "160442.875000", "160442.890000", "160442.890000", "160442.890000", "160442.890000", "160442.890000", "160442.890000", "160442.890000", "160442.906000", "160442.906000", "160502.843000", "160502.843000", "160502.843000", "160502.843000", "160502.859000", "160502.859000", "160502.859000", "160502.859000", "160502.859000", "160502.859000", "160502.859000", "160502.875000", "160502.875000", "160502.875000", "160502.875000", "160502.875000", "160502.875000", "160502.875000", "160502.890000", "160502.890000", "160502.890000", "160502.906000", "160502.906000", "160502.906000", "160502.906000", "160522.843000", "160522.843000", "160522.843000", "160522.843000", "160522.859000", "160522.859000", "160522.859000", "160522.859000", "160522.859000", "160522.875000", "160522.875000", "160522.875000", "160522.875000", "160522.875000", "160522.875000", "160522.890000", "160522.890000", "160522.890000", "160522.890000", "160522.890000", "160522.890000", "160522.890000", "160522.906000", "160522.906000", "160522.906000", "160522.906000", "160542.843000", "160542.843000", "160542.843000", "160542.843000", "160542.859000", "160542.859000", "160542.859000", "160542.859000", "160542.859000", "160542.859000", "160542.859000", "160542.875000", "160542.875000", "160542.875000", "160542.875000", "160542.875000", "160542.875000", "160542.875000", "160542.890000", "160542.890000", "160542.890000", "160542.890000", "160542.890000", "160542.890000", "160542.890000", "160602.843000", "160602.843000", "160602.843000", "160602.843000", "160602.859000", "160602.859000", "160602.859000", "160602.859000", "160602.859000", "160602.859000", "160602.875000", "160602.875000", "160602.875000", "160602.875000", "160602.875000", "160602.875000", "160602.875000", "160602.890000", "160602.890000", "160602.890000", "160602.890000", "160602.890000", "160602.890000", "160602.890000", "160602.906000", "160602.906000", "160622.843000", "160622.843000", "160622.843000", "160622.843000", "160622.859000", "160622.859000", "160622.859000", "160622.859000", "160622.859000", "160622.859000", "160622.859000", "160622.875000", "160622.875000", "160622.875000", "160622.875000", "160622.890000", "160622.890000", "160622.890000", "160622.890000", "160622.890000", "160622.890000", "160622.890000", "160622.906000", "160622.906000", "160622.906000", "160642.843000", "160642.843000", "160642.843000", "160642.843000", "160642.859000", "160642.859000", "160642.859000", "160642.859000", "160642.859000", "160642.859000", "160642.859000", "160642.875000", "160642.875000", "160642.875000", "160642.875000", "160642.875000", "160642.875000", "160642.875000", "160642.890000", "160642.890000", "160642.890000", "160642.890000", "160642.890000", "160642.890000", "160642.890000", "160642.906000", "160702.843000", "160702.843000", "160702.843000", "160702.843000", "160702.859000", "160702.859000", "160702.859000", "160702.859000", "160702.859000", "160702.859000", "160702.859000", "160702.875000", "160702.875000", "160702.875000", "160702.875000", "160702.875000", "160702.875000", "160702.875000", "160702.890000", "160702.890000", "160702.890000", "160702.890000", "160702.890000", "160702.906000", "160702.906000", "160722.843000", "160722.843000", "160722.843000", "160722.843000", "160722.859000", "160722.859000", "160722.859000", "160722.859000", "160722.859000", "160722.859000", "160722.875000", "160722.875000", "160722.875000", "160722.875000", "160722.875000", "160722.875000", "160722.890000", "160722.890000", "160722.890000", "160722.890000", "160722.890000", "160722.890000", "160722.906000", "160722.906000", "160722.906000", "160722.906000", "160742.843000", "160742.843000", "160742.843000", "160742.843000", "160742.859000", "160742.859000", "160742.859000", "160742.859000", "160742.859000", "160742.859000", "160742.875000", "160742.875000", "160742.875000", "160742.875000", "160742.875000", "160742.875000", "160742.875000", "160742.890000", "160742.890000", "160742.890000", "160742.890000", "160742.890000", "160742.890000", "160742.890000", "160742.906000", "160756.640000", "160756.640000", "160756.656000", "160756.656000", "160756.656000", "160756.656000", "160756.656000", "160756.656000", "160756.656000", "160756.671000", "160756.671000", "160756.671000", "160756.671000", "160756.687000", "160756.687000", "160756.687000", "160756.687000", "160756.687000"],
      "DataSetTrailingPadding": [
        "\u0000\u0000\u0000\u0000\u0000\u0000\u0000\u0000\u0000\u0000\u0000\u0000\u0000\u0000\u0000\u0000\u0000\u0000\u0000\u0000\u0000\u0000\u0000\u0000\u0000\u0000\u0000\u0000\u0000\u0000\u0000\u0000\u0000\u0000\u0000\u0000\u0000\u0000\u0000\u0000\u0000\u0000\u0000\u0000\u0000\u0000\u0000\u0000\u0000\u0000\u0000\u0000\u0000\u0000\u0000\u0000\u0000\u0000\u0000\u0000\u0000\u0000\u0000\u0000\u0000\u0000\u0000\u0000",
        "\u0000\u0000\u0000\u0000\u0000\u0000\u0000\u0000\u0000\u0000\u0000\u0000\u0000\u0000\u0000\u0000\u0000\u0000\u0000\u0000\u0000\u0000\u0000\u0000\u0000\u0000\u0000\u0000\u0000\u0000\u0000\u0000\u0000\u0000\u0000\u0000\u0000\u0000\u0000\u0000\u0000\u0000\u0000\u0000\u0000\u0000\u0000\u0000\u0000\u0000\u0000\u0000\u0000\u0000\u0000\u0000\u0000\u0000\u0000\u0000\u0000\u0000\u0000\u0000\u0000\u0000\u0000\u0000",
        "\u0000\u0000\u0000\u0000\u0000\u0000\u0000\u0000\u0000\u0000\u0000\u0000\u0000\u0000\u0000\u0000\u0000\u0000\u0000\u0000\u0000\u0000\u0000\u0000\u0000\u0000\u0000\u0000\u0000\u0000\u0000\u0000\u0000\u0000\u0000\u0000\u0000\u0000\u0000\u0000\u0000\u0000\u0000\u0000\u0000\u0000\u0000\u0000\u0000\u0000\u0000\u0000\u0000\u0000\u0000\u0000\u0000\u0000\u0000\u0000\u0000\u0000\u0000\u0000\u0000\u0000\u0000\u0000",
        "\u0000\u0000\u0000\u0000\u0000\u0000\u0000\u0000\u0000\u0000\u0000\u0000\u0000\u0000\u0000\u0000\u0000\u0000\u0000\u0000\u0000\u0000\u0000\u0000\u0000\u0000\u0000\u0000\u0000\u0000\u0000\u0000\u0000\u0000\u0000\u0000\u0000\u0000\u0000\u0000\u0000\u0000\u0000\u0000\u0000\u0000\u0000\u0000\u0000\u0000\u0000\u0000\u0000\u0000\u0000\u0000\u0000\u0000\u0000\u0000\u0000\u0000\u0000\u0000\u0000\u0000",
