{
  "AcquisitionMatrixPE": 104,
  "AcquisitionNumber": 1,
  "AcquisitionTime": "15:27:34.710000",
  "BandwidthPerPixelPhaseEncode": 13.935,
  "BaseResolution": 104,
  "CoilString": "C:HEA;HEP",
  "ConversionSoftware": "dcm2niix",
  "ConversionSoftwareVersion": "v1.0.20210317",
  "DerivedVendorReportedEchoSpacing": 0.000690017,
  "DeviceSerialNumber": "35450",
  "DwellTime": 2.5e-06,
  "EchoTime": 0.0348,
  "EffectiveEchoSpacing": 0.000690017,
  "FlipAngle": 55,
  "ImageComments": "Unaliased MB8/PE3 (remote)",
  "ImageOrientationPatientDICOM": [0.999925, 0.000724289, 0.0121913, 3.26753e-08, 0.99824, -0.0593083],
  "ImageType": [
    "ORIGINAL",
    "PRIMARY",
    "M",
    "MB",
    "ND",
    "MOSAIC"
],
  "ImagingFrequency": 123.234,
  "InPlanePhaseEncodingDirectionDICOM": "COL",
  "InstitutionAddress": "Univeristy Ave. 197,Newark,North East,US,07102-1814",
  "InstitutionName": "RUBIC",
  "InstitutionalDepartmentName": "Department",
  "MRAcquisitionType": "2D",
  "MagneticFieldStrength": 3,
  "Manufacturer": "Siemens",
  "ManufacturersModelName": "TrioTim",
  "Modality": "MR",
  "MultibandAccelerationFactor": 8,
  "PartialFourier": 0.875,
  "PatientPosition": "HFS",
  "PercentPhaseFOV": 100,
  "PercentSampling": 100,
  "PhaseEncodingDirection": "j-",
  "PhaseEncodingSteps": 91,
  "PhaseResolution": 1,
  "PixelBandwidth": 1923,
  "ProcedureStepDescription": "Cole^Michael",
  "ProtocolName": "cmrr_mbep2d_bold_2mm_MB8_Task_8x",
  "PulseSequenceDetails": "%CustomerSeq%\\cmrr_mbep2d_bold",
  "ReceiveCoilName": "32Ch_Head",
  "ReconMatrixPE": 104,
  "RepetitionTime": 0.785,
  "SAR": 0.127807,
  "ScanOptions": "PFP\\FS",
  "ScanningSequence": "EP",
  "SequenceName": "epfid2d1_104",
  "SequenceVariant": "SK\\SS",
  "SeriesDescription": "cmrr_mbep2d_bold_2mm_MB8_Task_8x",
  "SeriesNumber": 17,
  "ShimSetting": [2112, -456, -7254, 654, 49, -311, -149, 15],
  "SliceThickness": 2,
  "SliceTiming": [0, 0.4375, 0.0875, 0.525, 0.175, 0.6125, 0.2625, 0.7, 0.35, 0, 0.4375, 0.0875, 0.525, 0.175, 0.6125, 0.2625, 0.7, 0.35, 0, 0.4375, 0.0875, 0.525, 0.175, 0.6125, 0.2625, 0.7, 0.35, 0, 0.4375, 0.0875, 0.525, 0.175, 0.6125, 0.2625, 0.7, 0.35, 0, 0.4375, 0.0875, 0.525, 0.175, 0.6125, 0.2625, 0.7, 0.35, 0, 0.4375, 0.0875, 0.525, 0.175, 0.6125, 0.2625, 0.7, 0.35, 0, 0.4375, 0.0875, 0.525, 0.175, 0.6125, 0.2625, 0.7, 0.35, 0, 0.4375, 0.0875, 0.525, 0.175, 0.6125, 0.2625, 0.7, 0.35],
  "SoftwareVersions": "syngo MR B19",
  "SpacingBetweenSlices": 2,
  "StationName": "MRC35450",
  "TaskName": "cpro",
  "TotalReadoutTime": 0.0710717,
  "TxRefAmp": 330.384,
  "dcmmeta_affine": [
    [-1.999850869178772, 6.535065466550805e-08, 0.024425625801086426, 101.77136993408203],
    [-0.0014485777355730534, 1.9964793920516968, -0.11860779672861099, -89.56269073486328],
    [0.024382634088397026, 0.11861664801836014, 1.9963304996490479, -91.82665252685547],
    [0.0, 0.0, 0.0, 1.0]
],
  "dcmmeta_reorient_transform": [
    [0.0, -1.0, 0.0, 103.0],
    [1.0, 0.0, 0.0, 0.0],
    [0.0, 0.0, 1.0, 0.0],
    [0.0, 0.0, 0.0, 1.0]
],
  "dcmmeta_shape": [104, 104, 72, 581],
  "dcmmeta_slice_dim": 2,
  "dcmmeta_version": 0.6,
  "global": {
    "const": {
      "AcquisitionMatrix": [104, 0, 0, 104],
      "AngioFlag": "N",
      "BitsAllocated": 16,
      "BitsStored": 12,
      "Columns": 936,
      "EchoNumbers": 1,
      "EchoTime": 34.8,
      "EchoTrainLength": 1,
      "FlipAngle": 55.0,
      "HighBit": 11,
      "ImageOrientationPatient": [0.99992542081251, 0.00072428886562, 0.01219131734307, 3.2675328e-08, 0.99823971212994, -0.0593083225756],
      "ImagePositionPatient": [-933.70935110875, -947.21273996755, -40.407790963688],
      "ImageType": [
        "ORIGINAL",
        "PRIMARY",
        "M",
        "MB",
        "ND",
        "MOSAIC"
],
      "ImagedNucleus": "1H",
      "ImagingFrequency": 123.234498,
      "InPlanePhaseEncodingDirection": "COL",
      "MRAcquisitionType": "2D",
      "MagneticFieldStrength": 3.0,
      "Manufacturer": "SIEMENS",
      "ManufacturerModelName": "TrioTim",
      "Modality": "MR",
      "NumberOfAverages": 1.0,
      "NumberOfPhaseEncodingSteps": 91,
      "PercentPhaseFieldOfView": 100.0,
      "PercentSampling": 100.0,
      "PerformedProcedureStepStartTime": "134810.750000",
      "PhotometricInterpretation": "MONOCHROME2",
      "PixelBandwidth": 1923.0,
      "PixelRepresentation": 0,
      "PixelSpacing": [2.0, 2.0],
      "ProtocolName": "cmrr_mbep2d_bold_2mm_MB8_Task_8x",
      "RepetitionTime": 785.0,
      "Rows": 936,
      "SAR": 0.12780666900379,
      "SamplesPerPixel": 1,
      "ScanOptions": [
        "PFP",
        "FS"
],
      "ScanningSequence": "EP",
      "SequenceName": "epfid2d1_104",
      "SequenceVariant": [
        "SK",
        "SS"
],
      "SeriesDescription": "cmrr_mbep2d_bold_2mm_MB8_Task_8x",
      "SeriesNumber": 17,
      "SeriesTime": "152806.156000",
      "SliceLocation": -85.10384462754,
      "SliceThickness": 2.0,
      "SmallestImagePixelValue": 0,
      "SoftwareVersions": "syngo MR B19",
      "SpacingBetweenSlices": 1.9999999478811,
      "SpecificCharacterSet": "ISO_IR 100",
      "StudyID": "1",
      "StudyTime": "134810.656000",
      "TransmitCoilName": "Body",
      "VariableFlipAngleFlag": "N",
      "WindowCenterWidthExplanation": "Algo1",
      "dBdt": 0.0},
    "slices": {}
  },
  "time": {
    "samples": {
      "AcquisitionNumber": [1, 2, 3, 4, 5, 6, 7, 8, 9, 10, 11, 12, 13, 14, 15, 16, 17, 18, 19, 20, 21, 22, 23, 24, 25, 26, 27, 28, 29, 30, 31, 32, 33, 34, 35, 36, 37, 38, 39, 40, 41, 42, 43, 44, 45, 46, 47, 48, 49, 50, 51, 52, 53, 54, 55, 56, 57, 58, 59, 60, 61, 62, 63, 64, 65, 66, 67, 68, 69, 70, 71, 72, 73, 74, 75, 76, 77, 78, 79, 80, 81, 82, 83, 84, 85, 86, 87, 88, 89, 90, 91, 92, 93, 94, 95, 96, 97, 98, 99, 100, 101, 102, 103, 104, 105, 106, 107, 108, 109, 110, 111, 112, 113, 114, 115, 116, 117, 118, 119, 120, 121, 122, 123, 124, 125, 126, 127, 128, 129, 130, 131, 132, 133, 134, 135, 136, 137, 138, 139, 140, 141, 142, 143, 144, 145, 146, 147, 148, 149, 150, 151, 152, 153, 154, 155, 156, 157, 158, 159, 160, 161, 162, 163, 164, 165, 166, 167, 168, 169, 170, 171, 172, 173, 174, 175, 176, 177, 178, 179, 180, 181, 182, 183, 184, 185, 186, 187, 188, 189, 190, 191, 192, 193, 194, 195, 196, 197, 198, 199, 200, 201, 202, 203, 204, 205, 206, 207, 208, 209, 210, 211, 212, 213, 214, 215, 216, 217, 218, 219, 220, 221, 222, 223, 224, 225, 226, 227, 228, 229, 230, 231, 232, 233, 234, 235, 236, 237, 238, 239, 240, 241, 242, 243, 244, 245, 246, 247, 248, 249, 250, 251, 252, 253, 254, 255, 256, 257, 258, 259, 260, 261, 262, 263, 264, 265, 266, 267, 268, 269, 270, 271, 272, 273, 274, 275, 276, 277, 278, 279, 280, 281, 282, 283, 284, 285, 286, 287, 288, 289, 290, 291, 292, 293, 294, 295, 296, 297, 298, 299, 300, 301, 302, 303, 304, 305, 306, 307, 308, 309, 310, 311, 312, 313, 314, 315, 316, 317, 318, 319, 320, 321, 322, 323, 324, 325, 326, 327, 328, 329, 330, 331, 332, 333, 334, 335, 336, 337, 338, 339, 340, 341, 342, 343, 344, 345, 346, 347, 348, 349, 350, 351, 352, 353, 354, 355, 356, 357, 358, 359, 360, 361, 362, 363, 364, 365, 366, 367, 368, 369, 370, 371, 372, 373, 374, 375, 376, 377, 378, 379, 380, 381, 382, 383, 384, 385, 386, 387, 388, 389, 390, 391, 392, 393, 394, 395, 396, 397, 398, 399, 400, 401, 402, 403, 404, 405, 406, 407, 408, 409, 410, 411, 412, 413, 414, 415, 416, 417, 418, 419, 420, 421, 422, 423, 424, 425, 426, 427, 428, 429, 430, 431, 432, 433, 434, 435, 436, 437, 438, 439, 440, 441, 442, 443, 444, 445, 446, 447, 448, 449, 450, 451, 452, 453, 454, 455, 456, 457, 458, 459, 460, 461, 462, 463, 464, 465, 466, 467, 468, 469, 470, 471, 472, 473, 474, 475, 476, 477, 478, 479, 480, 481, 482, 483, 484, 485, 486, 487, 488, 489, 490, 491, 492, 493, 494, 495, 496, 497, 498, 499, 500, 501, 502, 503, 504, 505, 506, 507, 508, 509, 510, 511, 512, 513, 514, 515, 516, 517, 518, 519, 520, 521, 522, 523, 524, 525, 526, 527, 528, 529, 530, 531, 532, 533, 534, 535, 536, 537, 538, 539, 540, 541, 542, 543, 544, 545, 546, 547, 548, 549, 550, 551, 552, 553, 554, 555, 556, 557, 558, 559, 560, 561, 562, 563, 564, 565, 566, 567, 568, 569, 570, 571, 572, 573, 574, 575, 576, 577, 578, 579, 580, 581],
      "AcquisitionTime": ["152734.710000", "152735.497500", "152736.285000", "152737.075000", "152737.862500", "152738.650000", "152739.437500", "152740.227500", "152741.015000", "152741.802500", "152742.592500", "152743.380000", "152744.167500", "152744.955000", "152745.745000", "152746.532500", "152747.320000", "152748.107500", "152748.897500", "152749.685000", "152750.472500", "152751.260000", "152752.050000", "152752.837500", "152753.625000", "152754.412500", "152755.202500", "152755.990000", "152756.777500", "152757.565000", "152758.355000", "152759.142500", "152759.930000", "152800.720000", "152801.507500", "152802.295000", "152803.082500", "152803.872500", "152804.660000", "152805.447500", "152806.235000", "152807.025000", "152807.812500", "152808.600000", "152809.387500", "152810.177500", "152810.965000", "152811.752500", "152812.540000", "152813.330000", "152814.117500", "152814.905000", "152815.692500", "152816.482500", "152817.270000", "152818.057500", "152818.847500", "152819.635000", "152820.422500", "152821.210000", "152822.000000", "152822.787500", "152823.575000", "152824.362500", "152825.152500", "152825.940000", "152826.727500", "152827.515000", "152828.305000", "152829.092500", "152829.880000", "152830.667500", "152831.457500", "152832.245000", "152833.032500", "152833.822500", "152834.610000", "152835.397500", "152836.185000", "152836.975000", "152837.762500", "152838.550000", "152839.337500", "152840.127500", "152840.915000", "152841.702500", "152842.490000", "152843.280000", "152844.067500", "152844.855000", "152845.642500", "152846.432500", "152847.220000", "152848.007500", "152848.795000", "152849.585000", "152850.372500", "152851.160000", "152851.950000", "152852.737500", "152853.525000", "152854.312500", "152855.102500", "152855.890000", "152856.677500", "152857.465000", "152858.255000", "152859.042500", "152859.830000", "152900.617500", "152901.407500", "152902.195000", "152902.982500", "152903.770000", "152904.560000", "152905.347500", "152906.135000", "152906.922500", "152907.712500", "152908.500000", "152909.287500", "152910.077500", "152910.865000", "152911.652500", "152912.440000", "152913.230000", "152914.017500", "152914.805000", "152915.592500", "152916.382500", "152917.170000", "152917.957500", "152918.745000", "152919.535000", "152920.322500", "152921.110000", "152921.897500", "152922.687500", "152923.475000", "152924.262500", "152925.050000", "152925.840000", "152926.627500", "152927.415000", "152928.205000", "152928.992500", "152929.780000", "152930.567500", "152931.357500", "152932.145000", "152932.932500", "152933.720000", "152934.510000", "152935.297500", "152936.085000", "152936.872500", "152937.662500", "152938.450000", "152939.237500", "152940.025000", "152940.815000", "152941.602500", "152942.390000", "152943.177500", "152943.967500", "152944.755000", "152945.542500", "152946.332500", "152947.120000", "152947.907500", "152948.695000", "152949.485000", "152950.272500", "152951.060000", "152951.847500", "152952.637500", "152953.425000", "152954.212500", "152955.000000", "152955.790000", "152956.577500", "152957.365000", "152958.152500", "152958.942500", "152959.730000", "153000.517500", "153001.305000", "153002.095000", "153002.882500", "153003.670000", "153004.460000", "153005.247500", "153006.035000", "153006.822500", "153007.612500", "153008.400000", "153009.187500", "153009.975000", "153010.765000", "153011.552500", "153012.340000", "153013.127500", "153013.917500", "153014.705000", "153015.492500", "153016.280000", "153017.070000", "153017.857500", "153018.645000", "153019.432500", "153020.222500", "153021.010000", "153021.797500", "153022.587500", "153023.375000", "153024.162500", "153024.950000", "153025.740000", "153026.527500", "153027.315000", "153028.102500", "153028.892500", "153029.680000", "153030.467500", "153031.255000", "153032.045000", "153032.832500", "153033.620000", "153034.407500", "153035.197500", "153035.985000", "153036.772500", "153037.560000", "153038.350000", "153039.137500", "153039.925000", "153040.715000", "153041.502500", "153042.290000", "153043.077500", "153043.867500", "153044.655000", "153045.442500", "153046.230000", "153047.020000", "153047.807500", "153048.595000", "153049.382500", "153050.172500", "153050.960000", "153051.747500", "153052.535000", "153053.325000", "153054.112500", "153054.900000", "153055.687500", "153056.477500", "153057.265000", "153058.052500", "153058.842500", "153059.630000", "153100.417500", "153101.205000", "153101.995000", "153102.782500", "153103.570000", "153104.357500", "153105.147500", "153105.935000", "153106.722500", "153107.510000", "153108.300000", "153109.087500", "153109.875000", "153110.662500", "153111.452500", "153112.240000", "153113.027500", "153113.815000", "153114.605000", "153115.392500", "153116.180000", "153116.970000", "153117.757500", "153118.545000", "153119.332500", "153120.122500", "153120.910000", "153121.697500", "153122.485000", "153123.275000", "153124.062500", "153124.850000", "153125.637500", "153126.427500", "153127.215000", "153128.002500", "153128.790000", "153129.580000", "153130.367500", "153131.155000", "153131.942500", "153132.732500", "153133.520000", "153134.307500", "153135.097500", "153135.885000", "153136.672500", "153137.460000", "153138.250000", "153139.037500", "153139.825000", "153140.612500", "153141.402500", "153142.190000", "153142.977500", "153143.765000", "153144.555000", "153145.342500", "153146.130000", "153146.917500", "153147.707500", "153148.495000", "153149.282500", "153150.072500", "153150.860000", "153151.647500", "153152.435000", "153153.225000", "153154.012500", "153154.800000", "153155.587500", "153156.377500", "153157.165000", "153157.952500", "153158.740000", "153159.530000", "153200.317500", "153201.105000", "153201.892500", "153202.682500", "153203.470000", "153204.257500", "153205.045000", "153205.835000", "153206.622500", "153207.410000", "153208.200000", "153208.987500", "153209.775000", "153210.562500", "153211.352500", "153212.140000", "153212.927500", "153213.715000", "153214.505000", "153215.292500", "153216.080000", "153216.867500", "153217.657500", "153218.445000", "153219.232500", "153220.020000", "153220.810000", "153221.597500", "153222.385000", "153223.172500", "153223.962500", "153224.750000", "153225.537500", "153226.327500", "153227.115000", "153227.902500", "153228.690000", "153229.480000", "153230.267500", "153231.055000", "153231.842500", "153232.632500", "153233.420000", "153234.207500", "153234.995000", "153235.785000", "153236.572500", "153237.360000", "153238.147500", "153238.937500", "153239.725000", "153240.512500", "153241.300000", "153242.090000", "153242.877500", "153243.665000", "153244.455000", "153245.242500", "153246.030000", "153246.817500", "153247.607500", "153248.395000", "153249.182500", "153249.970000", "153250.760000", "153251.547500", "153252.335000", "153253.122500", "153253.912500", "153254.700000", "153255.487500", "153256.275000", "153257.065000", "153257.852500", "153258.640000", "153259.427500", "153300.217500", "153301.005000", "153301.792500", "153302.582500", "153303.370000", "153304.157500", "153304.945000", "153305.735000", "153306.522500", "153307.310000", "153308.097500", "153308.887500", "153309.675000", "153310.462500", "153311.250000", "153312.040000", "153312.827500", "153313.615000", "153314.402500", "153315.192500", "153315.980000", "153316.767500", "153317.555000", "153318.345000", "153319.132500", "153319.920000", "153320.710000", "153321.497500", "153322.285000", "153323.072500", "153323.862500", "153324.650000", "153325.437500", "153326.225000", "153327.015000", "153327.802500", "153328.590000", "153329.377500", "153330.167500", "153330.955000", "153331.742500", "153332.530000", "153333.320000", "153334.107500", "153334.895000", "153335.682500", "153336.472500", "153337.260000", "153338.047500", "153338.837500", "153339.625000", "153340.412500", "153341.200000", "153341.990000", "153342.777500", "153343.565000", "153344.352500", "153345.142500", "153345.930000", "153346.717500", "153347.505000", "153348.295000", "153349.082500", "153349.870000", "153350.657500", "153351.447500", "153352.235000", "153353.022500", "153353.810000", "153354.600000", "153355.387500", "153356.175000", "153356.965000", "153357.752500", "153358.540000", "153359.327500", "153400.117500", "153400.905000", "153401.692500", "153402.480000", "153403.270000", "153404.057500", "153404.845000", "153405.632500", "153406.422500", "153407.210000", "153407.997500", "153408.785000", "153409.575000", "153410.362500", "153411.150000", "153411.937500", "153412.727500", "153413.515000", "153414.302500", "153415.092500", "153415.880000", "153416.667500", "153417.455000", "153418.245000", "153419.032500", "153419.820000", "153420.607500", "153421.397500", "153422.185000", "153422.972500", "153423.760000", "153424.550000", "153425.337500", "153426.125000", "153426.912500", "153427.702500", "153428.490000", "153429.277500", "153430.065000", "153430.855000", "153431.642500", "153432.430000", "153433.220000", "153434.007500", "153434.795000", "153435.582500", "153436.372500", "153437.160000", "153437.947500", "153438.735000", "153439.525000", "153440.312500", "153441.100000", "153441.887500", "153442.677500", "153443.465000", "153444.252500", "153445.040000", "153445.830000", "153446.617500", "153447.405000", "153448.192500", "153448.982500", "153449.770000", "153450.557500", "153451.347500", "153452.135000", "153452.922500", "153453.710000", "153454.500000", "153455.287500", "153456.075000", "153456.862500", "153457.652500", "153458.440000", "153459.227500", "153500.015000", "153500.805000", "153501.592500", "153502.380000", "153503.167500", "153503.957500", "153504.745000", "153505.532500", "153506.322500", "153507.110000", "153507.897500", "153508.685000", "153509.475000", "153510.262500", "153511.050000", "153511.837500"],
      "ContentTime": ["152806.156000", "152806.171000", "152806.171000", "152806.171000", "152806.171000", "152806.171000", "152806.187000", "152806.187000", "152806.187000", "152806.187000", "152806.187000", "152806.187000", "152806.203000", "152806.203000", "152806.203000", "152806.203000", "152806.203000", "152806.203000", "152806.203000", "152806.218000", "152806.218000", "152806.218000", "152806.218000", "152806.218000", "152806.218000", "152806.234000", "152806.234000", "152806.234000", "152806.234000", "152806.234000", "152806.234000", "152806.234000", "152806.250000", "152806.250000", "152806.250000", "152806.250000", "152806.250000", "152826.140000", "152826.140000", "152826.140000", "152826.140000", "152826.156000", "152826.156000", "152826.156000", "152826.156000", "152826.156000", "152826.156000", "152826.156000", "152826.171000", "152826.171000", "152826.171000", "152826.171000", "152826.171000", "152826.187000", "152826.187000", "152826.187000", "152826.187000", "152826.187000", "152826.187000", "152826.203000", "152826.203000", "152826.203000", "152846.140000", "152846.140000", "152846.140000", "152846.140000", "152846.156000", "152846.156000", "152846.156000", "152846.156000", "152846.156000", "152846.156000", "152846.156000", "152846.171000", "152846.171000", "152846.171000", "152846.171000", "152846.171000", "152846.171000", "152846.171000", "152846.187000", "152846.187000", "152846.187000", "152846.187000", "152846.187000", "152846.187000", "152846.187000", "152846.203000", "152906.140000", "152906.140000", "152906.140000", "152906.140000", "152906.156000", "152906.156000", "152906.156000", "152906.156000", "152906.156000", "152906.156000", "152906.156000", "152906.171000", "152906.171000", "152906.171000", "152906.171000", "152906.171000", "152906.171000", "152906.171000", "152906.187000", "152906.187000", "152906.187000", "152906.187000", "152906.187000", "152906.187000", "152906.187000", "152926.140000", "152926.140000", "152926.140000", "152926.140000", "152926.156000", "152926.156000", "152926.156000", "152926.156000", "152926.156000", "152926.156000", "152926.156000", "152926.171000", "152926.171000", "152926.171000", "152926.171000", "152926.171000", "152926.171000", "152926.171000", "152926.187000", "152926.187000", "152926.187000", "152926.187000", "152926.187000", "152926.187000", "152926.187000", "152926.203000", "152946.140000", "152946.140000", "152946.140000", "152946.140000", "152946.156000", "152946.156000", "152946.156000", "152946.156000", "152946.156000", "152946.156000", "152946.156000", "152946.171000", "152946.171000", "152946.171000", "152946.171000", "152946.171000", "152946.171000", "152946.171000", "152946.187000", "152946.187000", "152946.187000", "152946.187000", "152946.187000", "152946.187000", "152946.203000", "153006.140000", "153006.140000", "153006.140000", "153006.140000", "153006.156000", "153006.156000", "153006.156000", "153006.156000", "153006.156000", "153006.156000", "153006.156000", "153006.171000", "153006.171000", "153006.171000", "153006.171000", "153006.171000", "153006.171000", "153006.171000", "153006.187000", "153006.187000", "153006.187000", "153006.187000", "153006.187000", "153006.187000", "153006.187000", "153006.203000", "153026.140000", "153026.140000", "153026.140000", "153026.140000", "153026.156000", "153026.156000", "153026.156000", "153026.156000", "153026.156000", "153026.156000", "153026.156000", "153026.171000", "153026.171000", "153026.171000", "153026.171000", "153026.171000", "153026.171000", "153026.171000", "153026.187000", "153026.187000", "153026.187000", "153026.187000", "153026.187000", "153026.187000", "153026.187000", "153046.140000", "153046.140000", "153046.140000", "153046.156000", "153046.156000", "153046.156000", "153046.156000", "153046.156000", "153046.156000", "153046.156000", "153046.171000", "153046.171000", "153046.171000", "153046.171000", "153046.171000", "153046.171000", "153046.171000", "153046.187000", "153046.187000", "153046.187000", "153046.187000", "153046.187000", "153046.187000", "153046.187000", "153046.203000", "153046.203000", "153106.140000", "153106.140000", "153106.140000", "153106.140000", "153106.156000", "153106.156000", "153106.156000", "153106.156000", "153106.156000", "153106.156000", "153106.171000", "153106.171000", "153106.171000", "153106.171000", "153106.171000", "153106.171000", "153106.171000", "153106.187000", "153106.187000", "153106.187000", "153106.187000", "153106.187000", "153106.187000", "153106.203000", "153106.203000", "153126.140000", "153126.140000", "153126.140000", "153126.140000", "153126.156000", "153126.156000", "153126.156000", "153126.156000", "153126.156000", "153126.156000", "153126.156000", "153126.171000", "153126.171000", "153126.171000", "153126.171000", "153126.187000", "153126.187000", "153126.187000", "153126.187000", "153126.187000", "153126.187000", "153126.203000", "153126.203000", "153126.203000", "153126.203000", "153126.203000", "153146.140000", "153146.140000", "153146.140000", "153146.140000", "153146.156000", "153146.156000", "153146.156000", "153146.156000", "153146.156000", "153146.171000", "153146.171000", "153146.171000", "153146.171000", "153146.171000", "153146.171000", "153146.187000", "153146.187000", "153146.187000", "153146.187000", "153146.187000", "153146.187000", "153146.187000", "153146.203000", "153146.203000", "153146.203000", "153206.140000", "153206.140000", "153206.140000", "153206.140000", "153206.156000", "153206.156000", "153206.156000", "153206.156000", "153206.156000", "153206.156000", "153206.156000", "153206.171000", "153206.171000", "153206.171000", "153206.171000", "153206.171000", "153206.171000", "153206.171000", "153206.187000", "153206.187000", "153206.187000", "153206.187000", "153206.187000", "153206.187000", "153206.203000", "153206.203000", "153226.140000", "153226.140000", "153226.140000", "153226.140000", "153226.156000", "153226.156000", "153226.156000", "153226.156000", "153226.156000", "153226.156000", "153226.156000", "153226.171000", "153226.171000", "153226.171000", "153226.171000", "153226.171000", "153226.171000", "153226.171000", "153226.187000", "153226.187000", "153226.187000", "153226.187000", "153226.187000", "153226.187000", "153226.187000", "153246.140000", "153246.140000", "153246.156000", "153246.156000", "153246.156000", "153246.156000", "153246.156000", "153246.156000", "153246.171000", "153246.171000", "153246.171000", "153246.171000", "153246.171000", "153246.171000", "153246.171000", "153246.187000", "153246.187000", "153246.187000", "153246.187000", "153246.187000", "153246.187000", "153246.187000", "153246.203000", "153246.203000", "153246.203000", "153306.140000", "153306.140000", "153306.140000", "153306.140000", "153306.156000", "153306.156000", "153306.156000", "153306.156000", "153306.156000", "153306.156000", "153306.156000", "153306.171000", "153306.171000", "153306.171000", "153306.171000", "153306.171000", "153306.171000", "153306.171000", "153306.187000", "153306.187000", "153306.187000", "153306.187000", "153306.187000", "153306.187000", "153306.187000", "153306.203000", "153326.140000", "153326.140000", "153326.140000", "153326.156000", "153326.156000", "153326.156000", "153326.156000", "153326.156000", "153326.156000", "153326.171000", "153326.171000", "153326.171000", "153326.171000", "153326.171000", "153326.171000", "153326.171000", "153326.187000", "153326.187000", "153326.187000", "153326.187000", "153326.187000", "153326.187000", "153326.203000", "153326.203000", "153326.203000", "153346.140000", "153346.140000", "153346.140000", "153346.140000", "153346.156000", "153346.156000", "153346.156000", "153346.156000", "153346.156000", "153346.156000", "153346.156000", "153346.171000", "153346.171000", "153346.171000", "153346.171000", "153346.171000", "153346.171000", "153346.171000", "153346.187000", "153346.187000", "153346.187000", "153346.187000", "153346.187000", "153346.203000", "153346.203000", "153346.203000", "153406.140000", "153406.140000", "153406.140000", "153406.140000", "153406.156000", "153406.156000", "153406.156000", "153406.156000", "153406.156000", "153406.156000", "153406.171000", "153406.171000", "153406.171000", "153406.171000", "153406.171000", "153406.171000", "153406.171000", "153406.187000", "153406.187000", "153406.187000", "153406.187000", "153406.187000", "153406.187000", "153406.203000", "153406.203000", "153426.140000", "153426.140000", "153426.140000", "153426.140000", "153426.156000", "153426.156000", "153426.156000", "153426.156000", "153426.156000", "153426.156000", "153426.156000", "153426.171000", "153426.171000", "153426.171000", "153426.171000", "153426.171000", "153426.171000", "153426.171000", "153426.187000", "153426.187000", "153426.187000", "153426.187000", "153426.187000", "153426.203000", "153426.203000", "153426.203000", "153446.140000", "153446.140000", "153446.140000", "153446.140000", "153446.156000", "153446.156000", "153446.156000", "153446.156000", "153446.156000", "153446.156000", "153446.156000", "153446.171000", "153446.171000", "153446.171000", "153446.171000", "153446.171000", "153446.171000", "153446.171000", "153446.187000", "153446.187000", "153446.187000", "153446.187000", "153446.187000", "153446.187000", "153446.187000", "153506.140000", "153506.140000", "153506.140000", "153506.140000", "153506.156000", "153506.156000", "153506.156000", "153506.156000", "153506.156000", "153506.156000", "153506.156000", "153506.171000", "153506.171000", "153506.171000", "153506.171000", "153506.171000", "153506.171000", "153506.171000", "153506.187000", "153506.187000", "153506.187000", "153506.187000", "153506.187000", "153506.187000", "153506.187000", "153506.203000", "153513.031000", "153513.031000", "153513.031000", "153513.031000", "153513.031000", "153513.046000", "153513.046000", "153513.046000", "153513.046000"],
      "DataSetTrailingPadding": [
        "\u0000\u0000\u0000\u0000\u0000\u0000\u0000\u0000\u0000\u0000\u0000\u0000\u0000\u0000\u0000\u0000\u0000\u0000\u0000\u0000\u0000\u0000\u0000\u0000\u0000\u0000\u0000\u0000\u0000\u0000\u0000\u0000\u0000\u0000\u0000\u0000\u0000\u0000\u0000\u0000\u0000\u0000\u0000\u0000\u0000\u0000\u0000\u0000\u0000\u0000\u0000\u0000\u0000\u0000\u0000\u0000\u0000\u0000\u0000\u0000\u0000\u0000\u0000\u0000\u0000\u0000\u0000\u0000",
        "\u0000\u0000\u0000\u0000\u0000\u0000\u0000\u0000\u0000\u0000\u0000\u0000\u0000\u0000\u0000\u0000\u0000\u0000\u0000\u0000\u0000\u0000\u0000\u0000\u0000\u0000\u0000\u0000\u0000\u0000\u0000\u0000\u0000\u0000\u0000\u0000\u0000\u0000\u0000\u0000\u0000\u0000\u0000\u0000\u0000\u0000\u0000\u0000\u0000\u0000\u0000\u0000\u0000\u0000\u0000\u0000\u0000\u0000\u0000\u0000\u0000\u0000\u0000\u0000\u0000\u0000\u0000\u0000",
        "\u0000\u0000\u0000\u0000\u0000\u0000\u0000\u0000\u0000\u0000\u0000\u0000\u0000\u0000\u0000\u0000\u0000\u0000\u0000\u0000\u0000\u0000\u0000\u0000\u0000\u0000\u0000\u0000\u0000\u0000\u0000\u0000\u0000\u0000\u0000\u0000\u0000\u0000\u0000\u0000\u0000\u0000\u0000\u0000\u0000\u0000\u0000\u0000\u0000\u0000\u0000\u0000\u0000\u0000\u0000\u0000\u0000\u0000\u0000\u0000\u0000\u0000\u0000\u0000\u0000\u0000",
        "\u0000\u0000\u0000\u0000\u0000\u0000\u0000\u0000\u0000\u0000\u0000\u0000\u0000\u0000\u0000\u0000\u0000\u0000\u0000\u0000\u0000\u0000\u0000\u0000\u0000\u0000\u0000\u0000\u0000\u0000\u0000\u0000\u0000\u0000\u0000\u0000\u0000\u0000\u0000\u0000\u0000\u0000\u0000\u0000\u0000\u0000\u0000\u0000\u0000\u0000\u0000\u0000\u0000\u0000\u0000\u0000\u0000\u0000\u0000\u0000\u0000\u0000\u0000\u0000\u0000\u0000",
