{
  "AcquisitionMatrixPE": 104,
  "AcquisitionNumber": 1,
  "AcquisitionTime": "14:46:23.197500",
  "BandwidthPerPixelPhaseEncode": 13.935,
  "BaseResolution": 104,
  "CoilString": "C:HEA;HEP",
  "ConversionSoftware": "dcm2niix",
  "ConversionSoftwareVersion": "v1.0.20210317",
  "DerivedVendorReportedEchoSpacing": 0.000690017,
  "DeviceSerialNumber": "35450",
  "DwellTime": 2.5e-06,
  "EchoTime": 0.0348,
  "EffectiveEchoSpacing": 0.000690017,
  "FlipAngle": 55,
  "ImageComments": "Unaliased MB8/PE3 (remote)",
  "ImageOrientationPatientDICOM": [0.999925, 0.000724289, 0.0121913, 3.26753e-08, 0.99824, -0.0593083],
  "ImageType": [
    "ORIGINAL",
    "PRIMARY",
    "M",
    "MB",
    "ND",
    "MOSAIC"
],
  "ImagingFrequency": 123.234,
  "InPlanePhaseEncodingDirectionDICOM": "COL",
  "InstitutionAddress": "Univeristy Ave. 197,Newark,North East,US,07102-1814",
  "InstitutionName": "RUBIC",
  "InstitutionalDepartmentName": "Department",
  "MRAcquisitionType": "2D",
  "MagneticFieldStrength": 3,
  "Manufacturer": "Siemens",
  "ManufacturersModelName": "TrioTim",
  "Modality": "MR",
  "MultibandAccelerationFactor": 8,
  "PartialFourier": 0.875,
  "PatientPosition": "HFS",
  "PercentPhaseFOV": 100,
  "PercentSampling": 100,
  "PhaseEncodingDirection": "j-",
  "PhaseEncodingSteps": 91,
  "PhaseResolution": 1,
  "PixelBandwidth": 1923,
  "ProcedureStepDescription": "Cole^Michael",
  "ProtocolName": "cmrr_mbep2d_bold_2mm_MB8_Rest",
  "PulseSequenceDetails": "%CustomerSeq%\\cmrr_mbep2d_bold",
  "ReceiveCoilName": "32Ch_Head",
  "ReconMatrixPE": 104,
  "RepetitionTime": 0.785,
  "SAR": 0.131858,
  "ScanOptions": "PFP\\FS",
  "ScanningSequence": "EP",
  "SequenceName": "epfid2d1_104",
  "SequenceVariant": "SK\\SS",
  "SeriesDescription": "cmrr_mbep2d_bold_2mm_MB8_Rest",
  "SeriesNumber": 9,
  "ShimSetting": [2112, -456, -7254, 654, 49, -311, -149, 15],
  "SliceThickness": 2,
  "SliceTiming": [0, 0.4375, 0.0875, 0.525, 0.175, 0.6125, 0.2625, 0.7, 0.35, 0, 0.4375, 0.0875, 0.525, 0.175, 0.6125, 0.2625, 0.7, 0.35, 0, 0.4375, 0.0875, 0.525, 0.175, 0.6125, 0.2625, 0.7, 0.35, 0, 0.4375, 0.0875, 0.525, 0.175, 0.6125, 0.2625, 0.7, 0.35, 0, 0.4375, 0.0875, 0.525, 0.175, 0.6125, 0.2625, 0.7, 0.35, 0, 0.4375, 0.0875, 0.525, 0.175, 0.6125, 0.2625, 0.7, 0.35, 0, 0.4375, 0.0875, 0.525, 0.175, 0.6125, 0.2625, 0.7, 0.35, 0, 0.4375, 0.0875, 0.525, 0.175, 0.6125, 0.2625, 0.7, 0.35],
  "SoftwareVersions": "syngo MR B19",
  "SpacingBetweenSlices": 2,
  "StationName": "MRC35450",
  "TaskName": "rest",
  "TotalReadoutTime": 0.0710717,
  "TxRefAmp": 330.384,
  "dcmmeta_affine": [
    [-1.999850869178772, 6.535065466550805e-08, 0.024425625801086426, 101.77136993408203],
    [-0.0014485777355730534, 1.9964793920516968, -0.11860779672861099, -89.56269073486328],
    [0.024382634088397026, 0.11861664801836014, 1.9963304996490479, -91.82665252685547],
    [0.0, 0.0, 0.0, 1.0]
],
  "dcmmeta_reorient_transform": [
    [0.0, -1.0, 0.0, 103.0],
    [1.0, 0.0, 0.0, 0.0],
    [0.0, 0.0, 1.0, 0.0],
    [0.0, 0.0, 0.0, 1.0]
],
  "dcmmeta_shape": [104, 104, 72, 1070],
  "dcmmeta_slice_dim": 2,
  "dcmmeta_version": 0.6,
  "global": {
    "const": {
      "AcquisitionMatrix": [104, 0, 0, 104],
      "AngioFlag": "N",
      "BitsAllocated": 16,
      "BitsStored": 12,
      "Columns": 936,
      "EchoNumbers": 1,
      "EchoTime": 34.8,
      "EchoTrainLength": 1,
      "FlipAngle": 55.0,
      "HighBit": 11,
      "ImageOrientationPatient": [0.99992542081251, 0.00072428886562, 0.01219131734307, 3.2675328e-08, 0.99823971212994, -0.0593083225756],
      "ImagePositionPatient": [-933.70935110875, -947.21273996755, -40.407790963688],
      "ImageType": [
        "ORIGINAL",
        "PRIMARY",
        "M",
        "MB",
        "ND",
        "MOSAIC"
],
      "ImagedNucleus": "1H",
      "ImagingFrequency": 123.234437,
      "InPlanePhaseEncodingDirection": "COL",
      "MRAcquisitionType": "2D",
      "MagneticFieldStrength": 3.0,
      "Manufacturer": "SIEMENS",
      "ManufacturerModelName": "TrioTim",
      "Modality": "MR",
      "NumberOfAverages": 1.0,
      "NumberOfPhaseEncodingSteps": 91,
      "PercentPhaseFieldOfView": 100.0,
      "PercentSampling": 100.0,
      "PerformedProcedureStepStartTime": "134810.750000",
      "PhotometricInterpretation": "MONOCHROME2",
      "PixelBandwidth": 1923.0,
      "PixelRepresentation": 0,
      "PixelSpacing": [2.0, 2.0],
      "ProtocolName": "cmrr_mbep2d_bold_2mm_MB8_Rest",
      "RepetitionTime": 785.0,
      "Rows": 936,
      "SAR": 0.13185833607319,
      "SamplesPerPixel": 1,
      "ScanOptions": [
        "PFP",
        "FS"
],
      "ScanningSequence": "EP",
      "SequenceName": "epfid2d1_104",
      "SequenceVariant": [
        "SK",
        "SS"
],
      "SeriesDescription": "cmrr_mbep2d_bold_2mm_MB8_Rest",
      "SeriesNumber": 9,
      "SeriesTime": "144646.203000",
      "SliceLocation": -85.10384462754,
      "SliceThickness": 2.0,
      "SmallestImagePixelValue": 0,
      "SoftwareVersions": "syngo MR B19",
      "SpacingBetweenSlices": 1.9999999478811,
      "SpecificCharacterSet": "ISO_IR 100",
      "StudyID": "1",
      "StudyTime": "134810.656000",
      "TransmitCoilName": "Body",
      "VariableFlipAngleFlag": "N",
      "WindowCenterWidthExplanation": "Algo1",
      "dBdt": 0.0},
    "slices": {}
  },
  "time": {
    "samples": {
      "AcquisitionNumber": [1, 2, 3, 4, 5, 6, 7, 8, 9, 10, 11, 12, 13, 14, 15, 16, 17, 18, 19, 20, 21, 22, 23, 24, 25, 26, 27, 28, 29, 30, 31, 32, 33, 34, 35, 36, 37, 38, 39, 40, 41, 42, 43, 44, 45, 46, 47, 48, 49, 50, 51, 52, 53, 54, 55, 56, 57, 58, 59, 60, 61, 62, 63, 64, 65, 66, 67, 68, 69, 70, 71, 72, 73, 74, 75, 76, 77, 78, 79, 80, 81, 82, 83, 84, 85, 86, 87, 88, 89, 90, 91, 92, 93, 94, 95, 96, 97, 98, 99, 100, 101, 102, 103, 104, 105, 106, 107, 108, 109, 110, 111, 112, 113, 114, 115, 116, 117, 118, 119, 120, 121, 122, 123, 124, 125, 126, 127, 128, 129, 130, 131, 132, 133, 134, 135, 136, 137, 138, 139, 140, 141, 142, 143, 144, 145, 146, 147, 148, 149, 150, 151, 152, 153, 154, 155, 156, 157, 158, 159, 160, 161, 162, 163, 164, 165, 166, 167, 168, 169, 170, 171, 172, 173, 174, 175, 176, 177, 178, 179, 180, 181, 182, 183, 184, 185, 186, 187, 188, 189, 190, 191, 192, 193, 194, 195, 196, 197, 198, 199, 200, 201, 202, 203, 204, 205, 206, 207, 208, 209, 210, 211, 212, 213, 214, 215, 216, 217, 218, 219, 220, 221, 222, 223, 224, 225, 226, 227, 228, 229, 230, 231, 232, 233, 234, 235, 236, 237, 238, 239, 240, 241, 242, 243, 244, 245, 246, 247, 248, 249, 250, 251, 252, 253, 254, 255, 256, 257, 258, 259, 260, 261, 262, 263, 264, 265, 266, 267, 268, 269, 270, 271, 272, 273, 274, 275, 276, 277, 278, 279, 280, 281, 282, 283, 284, 285, 286, 287, 288, 289, 290, 291, 292, 293, 294, 295, 296, 297, 298, 299, 300, 301, 302, 303, 304, 305, 306, 307, 308, 309, 310, 311, 312, 313, 314, 315, 316, 317, 318, 319, 320, 321, 322, 323, 324, 325, 326, 327, 328, 329, 330, 331, 332, 333, 334, 335, 336, 337, 338, 339, 340, 341, 342, 343, 344, 345, 346, 347, 348, 349, 350, 351, 352, 353, 354, 355, 356, 357, 358, 359, 360, 361, 362, 363, 364, 365, 366, 367, 368, 369, 370, 371, 372, 373, 374, 375, 376, 377, 378, 379, 380, 381, 382, 383, 384, 385, 386, 387, 388, 389, 390, 391, 392, 393, 394, 395, 396, 397, 398, 399, 400, 401, 402, 403, 404, 405, 406, 407, 408, 409, 410, 411, 412, 413, 414, 415, 416, 417, 418, 419, 420, 421, 422, 423, 424, 425, 426, 427, 428, 429, 430, 431, 432, 433, 434, 435, 436, 437, 438, 439, 440, 441, 442, 443, 444, 445, 446, 447, 448, 449, 450, 451, 452, 453, 454, 455, 456, 457, 458, 459, 460, 461, 462, 463, 464, 465, 466, 467, 468, 469, 470, 471, 472, 473, 474, 475, 476, 477, 478, 479, 480, 481, 482, 483, 484, 485, 486, 487, 488, 489, 490, 491, 492, 493, 494, 495, 496, 497, 498, 499, 500, 501, 502, 503, 504, 505, 506, 507, 508, 509, 510, 511, 512, 513, 514, 515, 516, 517, 518, 519, 520, 521, 522, 523, 524, 525, 526, 527, 528, 529, 530, 531, 532, 533, 534, 535, 536, 537, 538, 539, 540, 541, 542, 543, 544, 545, 546, 547, 548, 549, 550, 551, 552, 553, 554, 555, 556, 557, 558, 559, 560, 561, 562, 563, 564, 565, 566, 567, 568, 569, 570, 571, 572, 573, 574, 575, 576, 577, 578, 579, 580, 581, 582, 583, 584, 585, 586, 587, 588, 589, 590, 591, 592, 593, 594, 595, 596, 597, 598, 599, 600, 601, 602, 603, 604, 605, 606, 607, 608, 609, 610, 611, 612, 613, 614, 615, 616, 617, 618, 619, 620, 621, 622, 623, 624, 625, 626, 627, 628, 629, 630, 631, 632, 633, 634, 635, 636, 637, 638, 639, 640, 641, 642, 643, 644, 645, 646, 647, 648, 649, 650, 651, 652, 653, 654, 655, 656, 657, 658, 659, 660, 661, 662, 663, 664, 665, 666, 667, 668, 669, 670, 671, 672, 673, 674, 675, 676, 677, 678, 679, 680, 681, 682, 683, 684, 685, 686, 687, 688, 689, 690, 691, 692, 693, 694, 695, 696, 697, 698, 699, 700, 701, 702, 703, 704, 705, 706, 707, 708, 709, 710, 711, 712, 713, 714, 715, 716, 717, 718, 719, 720, 721, 722, 723, 724, 725, 726, 727, 728, 729, 730, 731, 732, 733, 734, 735, 736, 737, 738, 739, 740, 741, 742, 743, 744, 745, 746, 747, 748, 749, 750, 751, 752, 753, 754, 755, 756, 757, 758, 759, 760, 761, 762, 763, 764, 765, 766, 767, 768, 769, 770, 771, 772, 773, 774, 775, 776, 777, 778, 779, 780, 781, 782, 783, 784, 785, 786, 787, 788, 789, 790, 791, 792, 793, 794, 795, 796, 797, 798, 799, 800, 801, 802, 803, 804, 805, 806, 807, 808, 809, 810, 811, 812, 813, 814, 815, 816, 817, 818, 819, 820, 821, 822, 823, 824, 825, 826, 827, 828, 829, 830, 831, 832, 833, 834, 835, 836, 837, 838, 839, 840, 841, 842, 843, 844, 845, 846, 847, 848, 849, 850, 851, 852, 853, 854, 855, 856, 857, 858, 859, 860, 861, 862, 863, 864, 865, 866, 867, 868, 869, 870, 871, 872, 873, 874, 875, 876, 877, 878, 879, 880, 881, 882, 883, 884, 885, 886, 887, 888, 889, 890, 891, 892, 893, 894, 895, 896, 897, 898, 899, 900, 901, 902, 903, 904, 905, 906, 907, 908, 909, 910, 911, 912, 913, 914, 915, 916, 917, 918, 919, 920, 921, 922, 923, 924, 925, 926, 927, 928, 929, 930, 931, 932, 933, 934, 935, 936, 937, 938, 939, 940, 941, 942, 943, 944, 945, 946, 947, 948, 949, 950, 951, 952, 953, 954, 955, 956, 957, 958, 959, 960, 961, 962, 963, 964, 965, 966, 967, 968, 969, 970, 971, 972, 973, 974, 975, 976, 977, 978, 979, 980, 981, 982, 983, 984, 985, 986, 987, 988, 989, 990, 991, 992, 993, 994, 995, 996, 997, 998, 999, 1000, 1001, 1002, 1003, 1004, 1005, 1006, 1007, 1008, 1009, 1010, 1011, 1012, 1013, 1014, 1015, 1016, 1017, 1018, 1019, 1020, 1021, 1022, 1023, 1024, 1025, 1026, 1027, 1028, 1029, 1030, 1031, 1032, 1033, 1034, 1035, 1036, 1037, 1038, 1039, 1040, 1041, 1042, 1043, 1044, 1045, 1046, 1047, 1048, 1049, 1050, 1051, 1052, 1053, 1054, 1055, 1056, 1057, 1058, 1059, 1060, 1061, 1062, 1063, 1064, 1065, 1066, 1067, 1068, 1069, 1070],
      "AcquisitionTime": ["144623.197500", "144623.985000", "144624.772500", "144625.562500", "144626.350000", "144627.137500", "144627.925000", "144628.715000", "144629.502500", "144630.290000", "144631.077500", "144631.867500", "144632.655000", "144633.442500", "144634.230000", "144635.020000", "144635.807500", "144636.595000", "144637.382500", "144638.172500", "144638.960000", "144639.747500", "144640.535000", "144641.325000", "144642.112500", "144642.900000", "144643.690000", "144644.477500", "144645.265000", "144646.052500", "144646.842500", "144647.630000", "144648.417500", "144649.205000", "144649.995000", "144650.782500", "144651.570000", "144652.357500", "144653.147500", "144653.935000", "144654.722500", "144655.510000", "144656.300000", "144657.087500", "144657.875000", "144658.662500", "144659.452500", "144700.240000", "144701.027500", "144701.817500", "144702.605000", "144703.392500", "144704.180000", "144704.970000", "144705.757500", "144706.545000", "144707.332500", "144708.122500", "144708.910000", "144709.697500", "144710.485000", "144711.275000", "144712.062500", "144712.850000", "144713.637500", "144714.427500", "144715.215000", "144716.002500", "144716.792500", "144717.580000", "144718.367500", "144719.155000", "144719.945000", "144720.732500", "144721.520000", "144722.307500", "144723.097500", "144723.885000", "144724.672500", "144725.460000", "144726.250000", "144727.037500", "144727.825000", "144728.612500", "144729.402500", "144730.190000", "144730.977500", "144731.765000", "144732.555000", "144733.342500", "144734.130000", "144734.920000", "144735.707500", "144736.495000", "144737.282500", "144738.072500", "144738.860000", "144739.647500", "144740.435000", "144741.225000", "144742.012500", "144742.800000", "144743.587500", "144744.377500", "144745.165000", "144745.952500", "144746.740000", "144747.530000", "144748.317500", "144749.105000", "144749.892500", "144750.682500", "144751.470000", "144752.257500", "144753.047500", "144753.835000", "144754.622500", "144755.410000", "144756.200000", "144756.987500", "144757.775000", "144758.562500", "144759.352500", "144800.140000", "144800.927500", "144801.715000", "144802.505000", "144803.292500", "144804.080000", "144804.867500", "144805.657500", "144806.445000", "144807.232500", "144808.020000", "144808.810000", "144809.597500", "144810.385000", "144811.175000", "144811.962500", "144812.750000", "144813.537500", "144814.327500", "144815.115000", "144815.902500", "144816.690000", "144817.480000", "144818.267500", "144819.055000", "144819.842500", "144820.632500", "144821.420000", "144822.207500", "144822.995000", "144823.785000", "144824.572500", "144825.360000", "144826.147500", "144826.937500", "144827.725000", "144828.512500", "144829.302500", "144830.090000", "144830.877500", "144831.665000", "144832.455000", "144833.242500", "144834.030000", "144834.817500", "144835.607500", "144836.395000", "144837.182500", "144837.970000", "144838.760000", "144839.547500", "144840.335000", "144841.122500", "144841.912500", "144842.700000", "144843.487500", "144844.275000", "144845.065000", "144845.852500", "144846.640000", "144847.430000", "144848.217500", "144849.005000", "144849.792500", "144850.582500", "144851.370000", "144852.157500", "144852.945000", "144853.735000", "144854.522500", "144855.310000", "144856.097500", "144856.887500", "144857.675000", "144858.462500", "144859.250000", "144900.040000", "144900.827500", "144901.615000", "144902.402500", "144903.192500", "144903.980000", "144904.767500", "144905.557500", "144906.345000", "144907.132500", "144907.920000", "144908.710000", "144909.497500", "144910.285000", "144911.072500", "144911.862500", "144912.650000", "144913.437500", "144914.225000", "144915.015000", "144915.802500", "144916.590000", "144917.377500", "144918.167500", "144918.955000", "144919.742500", "144920.530000", "144921.320000", "144922.107500", "144922.895000", "144923.685000", "144924.472500", "144925.260000", "144926.047500", "144926.837500", "144927.625000", "144928.412500", "144929.200000", "144929.990000", "144930.777500", "144931.565000", "144932.352500", "144933.142500", "144933.930000", "144934.717500", "144935.505000", "144936.295000", "144937.082500", "144937.870000", "144938.657500", "144939.447500", "144940.235000", "144941.022500", "144941.812500", "144942.600000", "144943.387500", "144944.175000", "144944.965000", "144945.752500", "144946.540000", "144947.327500", "144948.117500", "144948.905000", "144949.692500", "144950.480000", "144951.270000", "144952.057500", "144952.845000", "144953.632500", "144954.422500", "144955.210000", "144955.997500", "144956.785000", "144957.575000", "144958.362500", "144959.150000", "144959.940000", "145000.727500", "145001.515000", "145002.302500", "145003.092500", "145003.880000", "145004.667500", "145005.455000", "145006.245000", "145007.032500", "145007.820000", "145008.607500", "145009.397500", "145010.185000", "145010.972500", "145011.760000", "145012.550000", "145013.337500", "145014.125000", "145014.912500", "145015.702500", "145016.490000", "145017.277500", "145018.067500", "145018.855000", "145019.642500", "145020.430000", "145021.220000", "145022.007500", "145022.795000", "145023.582500", "145024.372500", "145025.160000", "145025.947500", "145026.735000", "145027.525000", "145028.312500", "145029.100000", "145029.887500", "145030.677500", "145031.465000", "145032.252500", "145033.042500", "145033.830000", "145034.617500", "145035.405000", "145036.195000", "145036.982500", "145037.770000", "145038.557500", "145039.347500", "145040.135000", "145040.922500", "145041.710000", "145042.500000", "145043.287500", "145044.075000", "145044.862500", "145045.652500", "145046.440000", "145047.227500", "145048.015000", "145048.805000", "145049.592500", "145050.380000", "145051.170000", "145051.957500", "145052.745000", "145053.532500", "145054.322500", "145055.110000", "145055.897500", "145056.685000", "145057.475000", "145058.262500", "145059.050000", "145059.837500", "145100.627500", "145101.415000", "145102.202500", "145102.990000", "145103.780000", "145104.567500", "145105.355000", "145106.142500", "145106.932500", "145107.720000", "145108.507500", "145109.297500", "145110.085000", "145110.872500", "145111.660000", "145112.450000", "145113.237500", "145114.025000", "145114.812500", "145115.602500", "145116.390000", "145117.177500", "145117.965000", "145118.755000", "145119.542500", "145120.330000", "145121.117500", "145121.907500", "145122.695000", "145123.482500", "145124.270000", "145125.060000", "145125.847500", "145126.635000", "145127.425000", "145128.212500", "145129.000000", "145129.787500", "145130.577500", "145131.365000", "145132.152500", "145132.940000", "145133.730000", "145134.517500", "145135.305000", "145136.092500", "145136.882500", "145137.670000", "145138.457500", "145139.245000", "145140.035000", "145140.822500", "145141.610000", "145142.397500", "145143.187500", "145143.975000", "145144.762500", "145145.552500", "145146.340000", "145147.127500", "145147.915000", "145148.705000", "145149.492500", "145150.280000", "145151.067500", "145151.857500", "145152.645000", "145153.432500", "145154.220000", "145155.010000", "145155.797500", "145156.585000", "145157.372500", "145158.162500", "145158.950000", "145159.737500", "145200.525000", "145201.315000", "145202.102500", "145202.890000", "145203.680000", "145204.467500", "145205.255000", "145206.042500", "145206.832500", "145207.620000", "145208.407500", "145209.195000", "145209.985000", "145210.772500", "145211.560000", "145212.347500", "145213.137500", "145213.925000", "145214.712500", "145215.500000", "145216.290000", "145217.077500", "145217.865000", "145218.652500", "145219.442500", "145220.230000", "145221.017500", "145221.807500", "145222.595000", "145223.382500", "145224.170000", "145224.960000", "145225.747500", "145226.535000", "145227.322500", "145228.112500", "145228.900000", "145229.687500", "145230.475000", "145231.265000", "145232.052500", "145232.840000", "145233.627500", "145234.417500", "145235.205000", "145235.992500", "145236.780000", "145237.570000", "145238.357500", "145239.145000", "145239.935000", "145240.722500", "145241.510000", "145242.297500", "145243.087500", "145243.875000", "145244.662500", "145245.450000", "145246.240000", "145247.027500", "145247.815000", "145248.602500", "145249.392500", "145250.180000", "145250.967500", "145251.755000", "145252.545000", "145253.332500", "145254.120000", "145254.907500", "145255.697500", "145256.485000", "145257.272500", "145258.062500", "145258.850000", "145259.637500", "145300.425000", "145301.215000", "145302.002500", "145302.790000", "145303.577500", "145304.367500", "145305.155000", "145305.942500", "145306.730000", "145307.520000", "145308.307500", "145309.095000", "145309.882500", "145310.672500", "145311.460000", "145312.247500", "145313.035000", "145313.825000", "145314.612500", "145315.400000", "145316.190000", "145316.977500", "145317.765000", "145318.552500", "145319.342500", "145320.130000", "145320.917500", "145321.705000", "145322.495000", "145323.282500", "145324.070000", "145324.857500", "145325.647500", "145326.435000", "145327.222500", "145328.010000", "145328.800000", "145329.587500", "145330.375000", "145331.162500", "145331.952500", "145332.740000", "145333.527500", "145334.317500", "145335.105000", "145335.892500", "145336.680000", "145337.470000", "145338.257500", "145339.045000", "145339.832500", "145340.622500", "145341.410000", "145342.197500", "145342.985000", "145343.775000", "145344.562500", "145345.350000", "145346.137500", "145346.927500", "145347.715000", "145348.502500", "145349.292500", "145350.080000", "145350.867500", "145351.655000", "145352.445000", "145353.232500", "145354.020000", "145354.807500", "145355.597500", "145356.385000", "145357.172500", "145357.960000", "145358.750000", "145359.537500", "145400.325000", "145401.112500", "145401.902500", "145402.690000", "145403.477500", "145404.265000", "145405.055000", "145405.842500", "145406.630000", "145407.420000", "145408.207500", "145408.995000", "145409.782500", "145410.572500", "145411.360000", "145412.147500", "145412.935000", "145413.725000", "145414.512500", "145415.300000", "145416.087500", "145416.877500", "145417.665000", "145418.452500", "145419.240000", "145420.030000", "145420.817500", "145421.605000", "145422.392500", "145423.182500", "145423.970000", "145424.757500", "145425.547500", "145426.335000", "145427.122500", "145427.910000", "145428.700000", "145429.487500", "145430.275000", "145431.062500", "145431.852500", "145432.640000", "145433.427500", "145434.215000", "145435.005000", "145435.792500", "145436.580000", "145437.367500", "145438.157500", "145438.945000", "145439.732500", "145440.520000", "145441.310000", "145442.097500", "145442.885000", "145443.675000", "145444.462500", "145445.250000", "145446.037500", "145446.827500", "145447.615000", "145448.402500", "145449.190000", "145449.980000", "145450.767500", "145451.555000", "145452.342500", "145453.132500", "145453.920000", "145454.707500", "145455.495000", "145456.285000", "145457.072500", "145457.860000", "145458.647500", "145459.437500", "145500.225000", "145501.012500", "145501.802500", "145502.590000", "145503.377500", "145504.165000", "145504.955000", "145505.742500", "145506.530000", "145507.317500", "145508.107500", "145508.895000", "145509.682500", "145510.470000", "145511.260000", "145512.047500", "145512.835000", "145513.622500", "145514.412500", "145515.200000", "145515.987500", "145516.775000", "145517.565000", "145518.352500", "145519.140000", "145519.930000", "145520.717500", "145521.505000", "145522.292500", "145523.082500", "145523.870000", "145524.657500", "145525.445000", "145526.235000", "145527.022500", "145527.810000", "145528.597500", "145529.387500", "145530.175000", "145530.962500", "145531.750000", "145532.540000", "145533.327500", "145534.115000", "145534.902500", "145535.692500", "145536.480000", "145537.267500", "145538.057500", "145538.845000", "145539.632500", "145540.420000", "145541.210000", "145541.997500", "145542.785000", "145543.572500", "145544.362500", "145545.150000", "145545.937500", "145546.725000", "145547.515000", "145548.302500", "145549.090000", "145549.877500", "145550.667500", "145551.455000", "145552.242500", "145553.030000", "145553.820000", "145554.607500", "145555.395000", "145556.185000", "145556.972500", "145557.760000", "145558.547500", "145559.337500", "145600.125000", "145600.912500", "145601.700000", "145602.490000", "145603.277500", "145604.065000", "145604.852500", "145605.642500", "145606.430000", "145607.217500", "145608.005000", "145608.795000", "145609.582500", "145610.370000", "145611.157500", "145611.947500", "145612.735000", "145613.522500", "145614.312500", "145615.100000", "145615.887500", "145616.675000", "145617.465000", "145618.252500", "145619.040000", "145619.827500", "145620.617500", "145621.405000", "145622.192500", "145622.980000", "145623.770000", "145624.557500", "145625.345000", "145626.132500", "145626.922500", "145627.710000", "145628.497500", "145629.285000", "145630.075000", "145630.862500", "145631.650000", "145632.440000", "145633.227500", "145634.015000", "145634.802500", "145635.592500", "145636.380000", "145637.167500", "145637.955000", "145638.745000", "145639.532500", "145640.320000", "145641.107500", "145641.897500", "145642.685000", "145643.472500", "145644.260000", "145645.050000", "145645.837500", "145646.625000", "145647.412500", "145648.202500", "145648.990000", "145649.777500", "145650.567500", "145651.355000", "145652.142500", "145652.930000", "145653.720000", "145654.507500", "145655.295000", "145656.082500", "145656.872500", "145657.660000", "145658.447500", "145659.235000", "145700.025000", "145700.812500", "145701.600000", "145702.387500", "145703.177500", "145703.965000", "145704.752500", "145705.542500", "145706.330000", "145707.117500", "145707.905000", "145708.695000", "145709.482500", "145710.270000", "145711.057500", "145711.847500", "145712.635000", "145713.422500", "145714.210000", "145715.000000", "145715.787500", "145716.575000", "145717.362500", "145718.152500", "145718.940000", "145719.727500", "145720.515000", "145721.305000", "145722.092500", "145722.880000", "145723.670000", "145724.457500", "145725.245000", "145726.032500", "145726.822500", "145727.610000", "145728.397500", "145729.185000", "145729.975000", "145730.762500", "145731.550000", "145732.337500", "145733.127500", "145733.915000", "145734.702500", "145735.490000", "145736.280000", "145737.067500", "145737.855000", "145738.642500", "145739.432500", "145740.220000", "145741.007500", "145741.797500", "145742.585000", "145743.372500", "145744.160000", "145744.950000", "145745.737500", "145746.525000", "145747.312500", "145748.102500", "145748.890000", "145749.677500", "145750.465000", "145751.255000", "145752.042500", "145752.830000", "145753.617500", "145754.407500", "145755.195000", "145755.982500", "145756.770000", "145757.560000", "145758.347500", "145759.135000", "145759.925000", "145800.712500", "145801.500000", "145802.287500", "145803.077500", "145803.865000", "145804.652500", "145805.440000", "145806.230000", "145807.017500", "145807.805000", "145808.592500", "145809.382500", "145810.170000", "145810.957500", "145811.745000", "145812.535000", "145813.322500", "145814.110000", "145814.897500", "145815.687500", "145816.475000", "145817.262500", "145818.052500", "145818.840000", "145819.627500", "145820.415000", "145821.205000", "145821.992500", "145822.780000", "145823.567500", "145824.357500", "145825.145000", "145825.932500", "145826.720000", "145827.510000", "145828.297500", "145829.085000", "145829.872500", "145830.662500", "145831.450000", "145832.237500", "145833.025000", "145833.815000", "145834.602500", "145835.390000", "145836.180000", "145836.967500", "145837.755000", "145838.542500", "145839.332500", "145840.120000", "145840.907500", "145841.695000", "145842.485000", "145843.272500", "145844.060000", "145844.847500", "145845.637500", "145846.425000", "145847.212500", "145848.000000", "145848.790000", "145849.577500", "145850.365000", "145851.152500", "145851.942500", "145852.730000", "145853.517500", "145854.307500", "145855.095000", "145855.882500", "145856.670000", "145857.460000", "145858.247500", "145859.035000", "145859.822500", "145900.612500", "145901.400000", "145902.187500", "145902.975000", "145903.765000", "145904.552500", "145905.340000", "145906.127500", "145906.917500", "145907.705000", "145908.492500", "145909.280000", "145910.070000", "145910.857500", "145911.645000", "145912.435000", "145913.222500", "145914.010000", "145914.797500", "145915.587500", "145916.375000", "145917.162500", "145917.950000", "145918.740000", "145919.527500", "145920.315000", "145921.102500", "145921.892500", "145922.680000", "145923.467500", "145924.255000", "145925.045000", "145925.832500", "145926.620000", "145927.407500", "145928.197500", "145928.985000", "145929.772500", "145930.562500", "145931.350000", "145932.137500", "145932.925000", "145933.715000", "145934.502500", "145935.290000", "145936.077500", "145936.867500", "145937.655000", "145938.442500", "145939.230000", "145940.020000", "145940.807500", "145941.595000", "145942.382500", "145943.172500", "145943.960000", "145944.747500", "145945.535000", "145946.325000", "145947.112500", "145947.900000", "145948.690000", "145949.477500", "145950.265000", "145951.052500", "145951.842500", "145952.630000", "145953.417500", "145954.205000", "145954.995000", "145955.782500", "145956.570000", "145957.357500", "145958.147500", "145958.935000", "145959.722500", "150000.510000", "150001.300000", "150002.087500", "150002.875000", "150003.662500", "150004.452500", "150005.240000", "150006.027500", "150006.817500", "150007.605000", "150008.392500", "150009.180000", "150009.970000", "150010.757500", "150011.545000", "150012.332500", "150013.122500", "150013.910000", "150014.697500", "150015.485000", "150016.275000", "150017.062500", "150017.850000", "150018.637500", "150019.427500", "150020.215000", "150021.002500", "150021.792500", "150022.580000", "150023.367500", "150024.155000", "150024.945000", "150025.732500"],
