{
  "AcquisitionMatrixPE": 104,
  "AcquisitionNumber": 1,
  "AcquisitionTime": "15:11:21.450000",
  "BandwidthPerPixelPhaseEncode": 13.935,
  "BaseResolution": 104,
  "CoilString": "C:HEA;HEP",
  "ConversionSoftware": "dcm2niix",
  "ConversionSoftwareVersion": "v1.0.20210317",
  "DerivedVendorReportedEchoSpacing": 0.000690017,
  "DeviceSerialNumber": "35450",
  "DwellTime": 2.5e-06,
  "EchoTime": 0.0348,
  "EffectiveEchoSpacing": 0.000690017,
  "FlipAngle": 55,
  "ImageComments": "Unaliased MB8/PE3 (remote)",
  "ImageOrientationPatientDICOM": [0.999925, 0.000724289, 0.0121913, 3.26753e-08, 0.99824, -0.0593083],
  "ImageType": [
    "ORIGINAL",
    "PRIMARY",
    "M",
    "MB",
    "ND",
    "MOSAIC"
],
  "ImagingFrequency": 123.234,
  "InPlanePhaseEncodingDirectionDICOM": "COL",
  "InstitutionAddress": "Univeristy Ave. 197,Newark,North East,US,07102-1814",
  "InstitutionName": "RUBIC",
  "InstitutionalDepartmentName": "Department",
  "MRAcquisitionType": "2D",
  "MagneticFieldStrength": 3,
  "Manufacturer": "Siemens",
  "ManufacturersModelName": "TrioTim",
  "Modality": "MR",
  "MultibandAccelerationFactor": 8,
  "PartialFourier": 0.875,
  "PatientPosition": "HFS",
  "PercentPhaseFOV": 100,
  "PercentSampling": 100,
  "PhaseEncodingDirection": "j-",
  "PhaseEncodingSteps": 91,
  "PhaseResolution": 1,
  "PixelBandwidth": 1923,
  "ProcedureStepDescription": "Cole^Michael",
  "ProtocolName": "cmrr_mbep2d_bold_2mm_MB8_Task_8x",
  "PulseSequenceDetails": "%CustomerSeq%\\cmrr_mbep2d_bold",
  "ReceiveCoilName": "32Ch_Head",
  "ReconMatrixPE": 104,
  "RepetitionTime": 0.785,
  "SAR": 0.137691,
  "ScanOptions": "PFP\\FS",
  "ScanningSequence": "EP",
  "SequenceName": "epfid2d1_104",
  "SequenceVariant": "SK\\SS",
  "SeriesDescription": "cmrr_mbep2d_bold_2mm_MB8_Task_8x",
  "SeriesNumber": 13,
  "ShimSetting": [2112, -456, -7254, 654, 49, -311, -149, 15],
  "SliceThickness": 2,
  "SliceTiming": [0, 0.4375, 0.0875, 0.525, 0.175, 0.6125, 0.2625, 0.7, 0.35, 0, 0.4375, 0.0875, 0.525, 0.175, 0.6125, 0.2625, 0.7, 0.35, 0, 0.4375, 0.0875, 0.525, 0.175, 0.6125, 0.2625, 0.7, 0.35, 0, 0.4375, 0.0875, 0.525, 0.175, 0.6125, 0.2625, 0.7, 0.35, 0, 0.4375, 0.0875, 0.525, 0.175, 0.6125, 0.2625, 0.7, 0.35, 0, 0.4375, 0.0875, 0.525, 0.175, 0.6125, 0.2625, 0.7, 0.35, 0, 0.4375, 0.0875, 0.525, 0.175, 0.6125, 0.2625, 0.7, 0.35, 0, 0.4375, 0.0875, 0.525, 0.175, 0.6125, 0.2625, 0.7, 0.35],
  "SoftwareVersions": "syngo MR B19",
  "SpacingBetweenSlices": 2,
  "StationName": "MRC35450",
  "TaskName": "cpro",
  "TotalReadoutTime": 0.0710717,
  "TxRefAmp": 330.384,
  "dcmmeta_affine": [
    [-1.999850869178772, 6.535065466550805e-08, 0.024425625801086426, 101.77136993408203],
    [-0.0014485777355730534, 1.9964793920516968, -0.11860779672861099, -89.56269073486328],
    [0.024382634088397026, 0.11861664801836014, 1.9963304996490479, -91.82665252685547],
    [0.0, 0.0, 0.0, 1.0]
],
  "dcmmeta_reorient_transform": [
    [0.0, -1.0, 0.0, 103.0],
    [1.0, 0.0, 0.0, 0.0],
    [0.0, 0.0, 1.0, 0.0],
    [0.0, 0.0, 0.0, 1.0]
],
  "dcmmeta_shape": [104, 104, 72, 581],
  "dcmmeta_slice_dim": 2,
  "dcmmeta_version": 0.6,
  "global": {
    "const": {
      "AcquisitionMatrix": [104, 0, 0, 104],
      "AngioFlag": "N",
      "BitsAllocated": 16,
      "BitsStored": 12,
      "Columns": 936,
      "EchoNumbers": 1,
      "EchoTime": 34.8,
      "EchoTrainLength": 1,
      "FlipAngle": 55.0,
      "HighBit": 11,
      "ImageOrientationPatient": [0.99992542081251, 0.00072428886562, 0.01219131734307, 3.2675328e-08, 0.99823971212994, -0.0593083225756],
      "ImagePositionPatient": [-933.70935110875, -947.21273996755, -40.407790963688],
      "ImageType": [
        "ORIGINAL",
        "PRIMARY",
        "M",
        "MB",
        "ND",
        "MOSAIC"
],
      "ImagedNucleus": "1H",
      "ImagingFrequency": 123.234498,
      "InPlanePhaseEncodingDirection": "COL",
      "MRAcquisitionType": "2D",
      "MagneticFieldStrength": 3.0,
      "Manufacturer": "SIEMENS",
      "ManufacturerModelName": "TrioTim",
      "Modality": "MR",
      "NumberOfAverages": 1.0,
      "NumberOfPhaseEncodingSteps": 91,
      "PercentPhaseFieldOfView": 100.0,
      "PercentSampling": 100.0,
      "PerformedProcedureStepStartTime": "134810.750000",
      "PhotometricInterpretation": "MONOCHROME2",
      "PixelBandwidth": 1923.0,
      "PixelRepresentation": 0,
      "PixelSpacing": [2.0, 2.0],
      "ProtocolName": "cmrr_mbep2d_bold_2mm_MB8_Task_8x",
      "RepetitionTime": 785.0,
      "Rows": 936,
      "SAR": 0.13769064919935,
      "SamplesPerPixel": 1,
      "ScanOptions": [
        "PFP",
        "FS"
],
      "ScanningSequence": "EP",
      "SequenceName": "epfid2d1_104",
      "SequenceVariant": [
        "SK",
        "SS"
],
      "SeriesDescription": "cmrr_mbep2d_bold_2mm_MB8_Task_8x",
      "SeriesNumber": 13,
      "SeriesTime": "151142.875000",
      "SliceLocation": -85.10384462754,
      "SliceThickness": 2.0,
      "SmallestImagePixelValue": 0,
      "SoftwareVersions": "syngo MR B19",
      "SpacingBetweenSlices": 1.9999999478811,
      "SpecificCharacterSet": "ISO_IR 100",
      "StudyID": "1",
      "StudyTime": "134810.656000",
      "TransmitCoilName": "Body",
      "VariableFlipAngleFlag": "N",
      "WindowCenterWidthExplanation": "Algo1",
      "dBdt": 0.0},
    "slices": {}
  },
  "time": {
    "samples": {
      "AcquisitionNumber": [1, 2, 3, 4, 5, 6, 7, 8, 9, 10, 11, 12, 13, 14, 15, 16, 17, 18, 19, 20, 21, 22, 23, 24, 25, 26, 27, 28, 29, 30, 31, 32, 33, 34, 35, 36, 37, 38, 39, 40, 41, 42, 43, 44, 45, 46, 47, 48, 49, 50, 51, 52, 53, 54, 55, 56, 57, 58, 59, 60, 61, 62, 63, 64, 65, 66, 67, 68, 69, 70, 71, 72, 73, 74, 75, 76, 77, 78, 79, 80, 81, 82, 83, 84, 85, 86, 87, 88, 89, 90, 91, 92, 93, 94, 95, 96, 97, 98, 99, 100, 101, 102, 103, 104, 105, 106, 107, 108, 109, 110, 111, 112, 113, 114, 115, 116, 117, 118, 119, 120, 121, 122, 123, 124, 125, 126, 127, 128, 129, 130, 131, 132, 133, 134, 135, 136, 137, 138, 139, 140, 141, 142, 143, 144, 145, 146, 147, 148, 149, 150, 151, 152, 153, 154, 155, 156, 157, 158, 159, 160, 161, 162, 163, 164, 165, 166, 167, 168, 169, 170, 171, 172, 173, 174, 175, 176, 177, 178, 179, 180, 181, 182, 183, 184, 185, 186, 187, 188, 189, 190, 191, 192, 193, 194, 195, 196, 197, 198, 199, 200, 201, 202, 203, 204, 205, 206, 207, 208, 209, 210, 211, 212, 213, 214, 215, 216, 217, 218, 219, 220, 221, 222, 223, 224, 225, 226, 227, 228, 229, 230, 231, 232, 233, 234, 235, 236, 237, 238, 239, 240, 241, 242, 243, 244, 245, 246, 247, 248, 249, 250, 251, 252, 253, 254, 255, 256, 257, 258, 259, 260, 261, 262, 263, 264, 265, 266, 267, 268, 269, 270, 271, 272, 273, 274, 275, 276, 277, 278, 279, 280, 281, 282, 283, 284, 285, 286, 287, 288, 289, 290, 291, 292, 293, 294, 295, 296, 297, 298, 299, 300, 301, 302, 303, 304, 305, 306, 307, 308, 309, 310, 311, 312, 313, 314, 315, 316, 317, 318, 319, 320, 321, 322, 323, 324, 325, 326, 327, 328, 329, 330, 331, 332, 333, 334, 335, 336, 337, 338, 339, 340, 341, 342, 343, 344, 345, 346, 347, 348, 349, 350, 351, 352, 353, 354, 355, 356, 357, 358, 359, 360, 361, 362, 363, 364, 365, 366, 367, 368, 369, 370, 371, 372, 373, 374, 375, 376, 377, 378, 379, 380, 381, 382, 383, 384, 385, 386, 387, 388, 389, 390, 391, 392, 393, 394, 395, 396, 397, 398, 399, 400, 401, 402, 403, 404, 405, 406, 407, 408, 409, 410, 411, 412, 413, 414, 415, 416, 417, 418, 419, 420, 421, 422, 423, 424, 425, 426, 427, 428, 429, 430, 431, 432, 433, 434, 435, 436, 437, 438, 439, 440, 441, 442, 443, 444, 445, 446, 447, 448, 449, 450, 451, 452, 453, 454, 455, 456, 457, 458, 459, 460, 461, 462, 463, 464, 465, 466, 467, 468, 469, 470, 471, 472, 473, 474, 475, 476, 477, 478, 479, 480, 481, 482, 483, 484, 485, 486, 487, 488, 489, 490, 491, 492, 493, 494, 495, 496, 497, 498, 499, 500, 501, 502, 503, 504, 505, 506, 507, 508, 509, 510, 511, 512, 513, 514, 515, 516, 517, 518, 519, 520, 521, 522, 523, 524, 525, 526, 527, 528, 529, 530, 531, 532, 533, 534, 535, 536, 537, 538, 539, 540, 541, 542, 543, 544, 545, 546, 547, 548, 549, 550, 551, 552, 553, 554, 555, 556, 557, 558, 559, 560, 561, 562, 563, 564, 565, 566, 567, 568, 569, 570, 571, 572, 573, 574, 575, 576, 577, 578, 579, 580, 581],
      "AcquisitionTime": ["151121.450000", "151122.237500", "151123.025000", "151123.815000", "151124.602500", "151125.390000", "151126.180000", "151126.967500", "151127.755000", "151128.542500", "151129.332500", "151130.120000", "151130.907500", "151131.695000", "151132.485000", "151133.272500", "151134.060000", "151134.847500", "151135.637500", "151136.425000", "151137.212500", "151138.000000", "151138.790000", "151139.577500", "151140.365000", "151141.152500", "151141.942500", "151142.730000", "151143.517500", "151144.307500", "151145.095000", "151145.882500", "151146.670000", "151147.460000", "151148.247500", "151149.035000", "151149.822500", "151150.612500", "151151.400000", "151152.187500", "151152.975000", "151153.765000", "151154.552500", "151155.340000", "151156.127500", "151156.917500", "151157.705000", "151158.492500", "151159.280000", "151200.070000", "151200.857500", "151201.645000", "151202.435000", "151203.222500", "151204.010000", "151204.797500", "151205.587500", "151206.375000", "151207.162500", "151207.950000", "151208.740000", "151209.527500", "151210.315000", "151211.102500", "151211.892500", "151212.680000", "151213.467500", "151214.255000", "151215.045000", "151215.832500", "151216.620000", "151217.407500", "151218.197500", "151218.985000", "151219.772500", "151220.562500", "151221.350000", "151222.137500", "151222.925000", "151223.715000", "151224.502500", "151225.290000", "151226.077500", "151226.867500", "151227.655000", "151228.442500", "151229.230000", "151230.020000", "151230.807500", "151231.595000", "151232.382500", "151233.172500", "151233.960000", "151234.747500", "151235.535000", "151236.325000", "151237.112500", "151237.900000", "151238.690000", "151239.477500", "151240.265000", "151241.052500", "151241.842500", "151242.630000", "151243.417500", "151244.205000", "151244.995000", "151245.782500", "151246.570000", "151247.357500", "151248.147500", "151248.935000", "151249.722500", "151250.510000", "151251.300000", "151252.087500", "151252.875000", "151253.662500", "151254.452500", "151255.240000", "151256.027500", "151256.817500", "151257.605000", "151258.392500", "151259.180000", "151259.970000", "151300.757500", "151301.545000", "151302.332500", "151303.122500", "151303.910000", "151304.697500", "151305.485000", "151306.275000", "151307.062500", "151307.850000", "151308.637500", "151309.427500", "151310.215000", "151311.002500", "151311.792500", "151312.580000", "151313.367500", "151314.155000", "151314.945000", "151315.732500", "151316.520000", "151317.307500", "151318.097500", "151318.885000", "151319.672500", "151320.460000", "151321.250000", "151322.037500", "151322.825000", "151323.612500", "151324.402500", "151325.190000", "151325.977500", "151326.765000", "151327.555000", "151328.342500", "151329.130000", "151329.920000", "151330.707500", "151331.495000", "151332.282500", "151333.072500", "151333.860000", "151334.647500", "151335.435000", "151336.225000", "151337.012500", "151337.800000", "151338.587500", "151339.377500", "151340.165000", "151340.952500", "151341.740000", "151342.530000", "151343.317500", "151344.105000", "151344.892500", "151345.682500", "151346.470000", "151347.257500", "151348.047500", "151348.835000", "151349.622500", "151350.410000", "151351.200000", "151351.987500", "151352.775000", "151353.562500", "151354.352500", "151355.140000", "151355.927500", "151356.715000", "151357.505000", "151358.292500", "151359.080000", "151359.867500", "151400.657500", "151401.445000", "151402.232500", "151403.020000", "151403.810000", "151404.597500", "151405.385000", "151406.175000", "151406.962500", "151407.750000", "151408.537500", "151409.327500", "151410.115000", "151410.902500", "151411.690000", "151412.480000", "151413.267500", "151414.055000", "151414.842500", "151415.632500", "151416.420000", "151417.207500", "151417.995000", "151418.785000", "151419.572500", "151420.360000", "151421.147500", "151421.937500", "151422.725000", "151423.512500", "151424.302500", "151425.090000", "151425.877500", "151426.665000", "151427.455000", "151428.242500", "151429.030000", "151429.817500", "151430.607500", "151431.395000", "151432.182500", "151432.970000", "151433.760000", "151434.547500", "151435.335000", "151436.122500", "151436.912500", "151437.700000", "151438.487500", "151439.275000", "151440.065000", "151440.852500", "151441.640000", "151442.430000", "151443.217500", "151444.005000", "151444.792500", "151445.582500", "151446.370000", "151447.157500", "151447.945000", "151448.735000", "151449.522500", "151450.310000", "151451.097500", "151451.887500", "151452.675000", "151453.462500", "151454.250000", "151455.040000", "151455.827500", "151456.615000", "151457.402500", "151458.192500", "151458.980000", "151459.767500", "151500.557500", "151501.345000", "151502.132500", "151502.920000", "151503.710000", "151504.497500", "151505.285000", "151506.072500", "151506.862500", "151507.650000", "151508.437500", "151509.225000", "151510.015000", "151510.802500", "151511.590000", "151512.377500", "151513.167500", "151513.955000", "151514.742500", "151515.530000", "151516.320000", "151517.107500", "151517.895000", "151518.685000", "151519.472500", "151520.260000", "151521.047500", "151521.837500", "151522.625000", "151523.412500", "151524.200000", "151524.990000", "151525.777500", "151526.565000", "151527.352500", "151528.142500", "151528.930000", "151529.717500", "151530.505000", "151531.295000", "151532.082500", "151532.870000", "151533.657500", "151534.447500", "151535.235000", "151536.022500", "151536.812500", "151537.600000", "151538.387500", "151539.175000", "151539.965000", "151540.752500", "151541.540000", "151542.327500", "151543.117500", "151543.905000", "151544.692500", "151545.480000", "151546.270000", "151547.057500", "151547.845000", "151548.632500", "151549.422500", "151550.210000", "151550.997500", "151551.785000", "151552.575000", "151553.362500", "151554.150000", "151554.940000", "151555.727500", "151556.515000", "151557.302500", "151558.092500", "151558.880000", "151559.667500", "151600.455000", "151601.245000", "151602.032500", "151602.820000", "151603.607500", "151604.397500", "151605.185000", "151605.972500", "151606.760000", "151607.550000", "151608.337500", "151609.125000", "151609.912500", "151610.702500", "151611.490000", "151612.277500", "151613.067500", "151613.855000", "151614.642500", "151615.430000", "151616.220000", "151617.007500", "151617.795000", "151618.582500", "151619.372500", "151620.160000", "151620.947500", "151621.735000", "151622.525000", "151623.312500", "151624.100000", "151624.887500", "151625.677500", "151626.465000", "151627.252500", "151628.042500", "151628.830000", "151629.617500", "151630.405000", "151631.195000", "151631.982500", "151632.770000", "151633.557500", "151634.347500", "151635.135000", "151635.922500", "151636.710000", "151637.500000", "151638.287500", "151639.075000", "151639.862500", "151640.652500", "151641.440000", "151642.227500", "151643.015000", "151643.805000", "151644.592500", "151645.380000", "151646.170000", "151646.957500", "151647.745000", "151648.532500", "151649.322500", "151650.110000", "151650.897500", "151651.685000", "151652.475000", "151653.262500", "151654.050000", "151654.837500", "151655.627500", "151656.415000", "151657.202500", "151657.990000", "151658.780000", "151659.567500", "151700.355000", "151701.142500", "151701.932500", "151702.720000", "151703.507500", "151704.297500", "151705.085000", "151705.872500", "151706.660000", "151707.450000", "151708.237500", "151709.025000", "151709.812500", "151710.602500", "151711.390000", "151712.177500", "151712.965000", "151713.755000", "151714.542500", "151715.330000", "151716.117500", "151716.907500", "151717.695000", "151718.482500", "151719.270000", "151720.060000", "151720.847500", "151721.635000", "151722.425000", "151723.212500", "151724.000000", "151724.787500", "151725.577500", "151726.365000", "151727.152500", "151727.940000", "151728.730000", "151729.517500", "151730.305000", "151731.092500", "151731.882500", "151732.670000", "151733.457500", "151734.245000", "151735.035000", "151735.822500", "151736.610000", "151737.397500", "151738.187500", "151738.975000", "151739.762500", "151740.552500", "151741.340000", "151742.127500", "151742.915000", "151743.705000", "151744.492500", "151745.280000", "151746.067500", "151746.857500", "151747.645000", "151748.432500", "151749.220000", "151750.010000", "151750.797500", "151751.585000", "151752.372500", "151753.162500", "151753.950000", "151754.737500", "151755.525000", "151756.315000", "151757.102500", "151757.890000", "151758.680000", "151759.467500", "151800.255000", "151801.042500", "151801.832500", "151802.620000", "151803.407500", "151804.195000", "151804.985000", "151805.772500", "151806.560000", "151807.347500", "151808.137500", "151808.925000", "151809.712500", "151810.500000", "151811.290000", "151812.077500", "151812.865000", "151813.652500", "151814.442500", "151815.230000", "151816.017500", "151816.807500", "151817.595000", "151818.382500", "151819.170000", "151819.960000", "151820.747500", "151821.535000", "151822.322500", "151823.112500", "151823.900000", "151824.687500", "151825.475000", "151826.265000", "151827.052500", "151827.840000", "151828.627500", "151829.417500", "151830.205000", "151830.992500", "151831.780000", "151832.570000", "151833.357500", "151834.145000", "151834.935000", "151835.722500", "151836.510000", "151837.297500", "151838.087500", "151838.875000", "151839.662500", "151840.450000", "151841.240000", "151842.027500", "151842.815000", "151843.602500", "151844.392500", "151845.180000", "151845.967500", "151846.755000", "151847.545000", "151848.332500", "151849.120000", "151849.907500", "151850.697500", "151851.485000", "151852.272500", "151853.062500", "151853.850000", "151854.637500", "151855.425000", "151856.215000", "151857.002500", "151857.790000", "151858.577500"],
      "ContentTime": ["151142.875000", "151142.875000", "151142.875000", "151142.875000", "151142.875000", "151142.875000", "151142.890000", "151142.890000", "151142.890000", "151142.890000", "151142.890000", "151142.906000", "151142.906000", "151142.906000", "151142.906000", "151142.906000", "151142.906000", "151142.906000", "151142.921000", "151142.921000", "151142.921000", "151142.921000", "151142.921000", "151142.921000", "151142.921000", "151202.843000", "151202.843000", "151202.843000", "151202.843000", "151202.859000", "151202.859000", "151202.859000", "151202.859000", "151202.859000", "151202.875000", "151202.875000", "151202.875000", "151202.875000", "151202.875000", "151202.890000", "151202.890000", "151202.890000", "151202.890000", "151202.890000", "151202.906000", "151202.906000", "151202.906000", "151202.906000", "151202.906000", "151202.906000", "151202.906000", "151222.843000", "151222.843000", "151222.843000", "151222.843000", "151222.859000", "151222.859000", "151222.859000", "151222.859000", "151222.859000", "151222.875000", "151222.875000", "151222.875000", "151222.875000", "151222.875000", "151222.875000", "151222.890000", "151222.890000", "151222.890000", "151222.890000", "151222.906000", "151222.906000", "151222.906000", "151222.906000", "151222.906000", "151222.906000", "151242.843000", "151242.843000", "151242.843000", "151242.843000", "151242.859000", "151242.859000", "151242.859000", "151242.859000", "151242.859000", "151242.859000", "151242.859000", "151242.875000", "151242.875000", "151242.875000", "151242.875000", "151242.875000", "151242.875000", "151242.875000", "151242.890000", "151242.890000", "151242.890000", "151242.890000", "151242.890000", "151242.890000", "151242.890000", "151242.906000", "151302.843000", "151302.843000", "151302.843000", "151302.843000", "151302.859000", "151302.859000", "151302.859000", "151302.859000", "151302.859000", "151302.859000", "151302.859000", "151302.875000", "151302.875000", "151302.875000", "151302.875000", "151302.875000", "151302.890000", "151302.890000", "151302.890000", "151302.890000", "151302.890000", "151302.890000", "151302.890000", "151302.906000", "151302.906000", "151322.843000", "151322.843000", "151322.843000", "151322.843000", "151322.859000", "151322.859000", "151322.859000", "151322.859000", "151322.859000", "151322.859000", "151322.859000", "151322.875000", "151322.875000", "151322.875000", "151322.875000", "151322.875000", "151322.890000", "151322.890000", "151322.890000", "151322.890000", "151322.890000", "151322.890000", "151322.890000", "151322.906000", "151322.906000", "151322.906000", "151342.843000", "151342.843000", "151342.843000", "151342.843000", "151342.859000", "151342.859000", "151342.859000", "151342.859000", "151342.859000", "151342.859000", "151342.859000", "151342.875000", "151342.875000", "151342.875000", "151342.875000", "151342.875000", "151342.875000", "151342.875000", "151342.890000", "151342.890000", "151342.890000", "151342.890000", "151342.890000", "151342.890000", "151342.890000", "151402.843000", "151402.843000", "151402.843000", "151402.843000", "151402.859000", "151402.859000", "151402.859000", "151402.859000", "151402.859000", "151402.859000", "151402.859000", "151402.875000", "151402.875000", "151402.875000", "151402.875000", "151402.875000", "151402.875000", "151402.875000", "151402.890000", "151402.890000", "151402.890000", "151402.890000", "151402.890000", "151402.890000", "151402.890000", "151402.906000", "151422.843000", "151422.843000", "151422.843000", "151422.843000", "151422.859000", "151422.859000", "151422.859000", "151422.859000", "151422.859000", "151422.859000", "151422.859000", "151422.875000", "151422.875000", "151422.875000", "151422.875000", "151422.875000", "151422.875000", "151422.875000", "151422.890000", "151422.890000", "151422.890000", "151422.890000", "151422.890000", "151422.906000", "151422.906000", "151442.843000", "151442.843000", "151442.843000", "151442.843000", "151442.859000", "151442.859000", "151442.859000", "151442.859000", "151442.859000", "151442.859000", "151442.859000", "151442.875000", "151442.875000", "151442.875000", "151442.875000", "151442.875000", "151442.875000", "151442.875000", "151442.890000", "151442.890000", "151442.890000", "151442.890000", "151442.890000", "151442.890000", "151442.906000", "151442.906000", "151502.843000", "151502.843000", "151502.843000", "151502.843000", "151502.859000", "151502.859000", "151502.859000", "151502.859000", "151502.859000", "151502.859000", "151502.859000", "151502.875000", "151502.875000", "151502.875000", "151502.875000", "151502.875000", "151502.890000", "151502.890000", "151502.890000", "151502.890000", "151502.890000", "151502.890000", "151502.890000", "151502.906000", "151502.906000", "151522.843000", "151522.843000", "151522.843000", "151522.843000", "151522.859000", "151522.859000", "151522.859000", "151522.859000", "151522.859000", "151522.859000", "151522.859000", "151522.875000", "151522.875000", "151522.875000", "151522.875000", "151522.875000", "151522.875000", "151522.875000", "151522.890000", "151522.890000", "151522.890000", "151522.890000", "151522.890000", "151522.890000", "151522.890000", "151542.843000", "151542.843000", "151542.843000", "151542.843000", "151542.859000", "151542.859000", "151542.859000", "151542.859000", "151542.859000", "151542.859000", "151542.859000", "151542.875000", "151542.875000", "151542.875000", "151542.875000", "151542.875000", "151542.875000", "151542.875000", "151542.890000", "151542.890000", "151542.890000", "151542.890000", "151542.890000", "151542.890000", "151542.890000", "151542.906000", "151602.843000", "151602.843000", "151602.843000", "151602.859000", "151602.859000", "151602.859000", "151602.859000", "151602.859000", "151602.875000", "151602.875000", "151602.875000", "151602.875000", "151602.875000", "151602.875000", "151602.875000", "151602.890000", "151602.890000", "151602.890000", "151602.890000", "151602.890000", "151602.890000", "151602.890000", "151602.906000", "151602.906000", "151602.906000", "151622.843000", "151622.843000", "151622.843000", "151622.843000", "151622.859000", "151622.859000", "151622.859000", "151622.859000", "151622.859000", "151622.859000", "151622.859000", "151622.875000", "151622.875000", "151622.875000", "151622.875000", "151622.875000", "151622.875000", "151622.890000", "151622.890000", "151622.890000", "151622.890000", "151622.890000", "151622.890000", "151622.890000", "151622.906000", "151622.906000", "151642.843000", "151642.843000", "151642.843000", "151642.859000", "151642.859000", "151642.859000", "151642.859000", "151642.859000", "151642.859000", "151642.859000", "151642.875000", "151642.875000", "151642.875000", "151642.875000", "151642.890000", "151642.890000", "151642.890000", "151642.890000", "151642.906000", "151642.906000", "151642.906000", "151642.906000", "151642.906000", "151642.921000", "151642.921000", "151702.843000", "151702.843000", "151702.843000", "151702.843000", "151702.859000", "151702.859000", "151702.859000", "151702.859000", "151702.859000", "151702.859000", "151702.859000", "151702.875000", "151702.875000", "151702.875000", "151702.875000", "151702.875000", "151702.875000", "151702.875000", "151702.890000", "151702.890000", "151702.890000", "151702.890000", "151702.890000", "151702.890000", "151702.890000", "151702.906000", "151722.843000", "151722.843000", "151722.843000", "151722.843000", "151722.859000", "151722.859000", "151722.859000", "151722.859000", "151722.859000", "151722.859000", "151722.859000", "151722.875000", "151722.875000", "151722.875000", "151722.875000", "151722.875000", "151722.875000", "151722.875000", "151722.890000", "151722.890000", "151722.890000", "151722.890000", "151722.890000", "151722.890000", "151722.890000", "151742.843000", "151742.843000", "151742.843000", "151742.843000", "151742.859000", "151742.859000", "151742.859000", "151742.859000", "151742.859000", "151742.859000", "151742.875000", "151742.875000", "151742.875000", "151742.875000", "151742.875000", "151742.875000", "151742.875000", "151742.890000", "151742.890000", "151742.890000", "151742.890000", "151742.890000", "151742.890000", "151742.890000", "151742.906000", "151742.906000", "151802.843000", "151802.843000", "151802.843000", "151802.843000", "151802.859000", "151802.859000", "151802.859000", "151802.859000", "151802.859000", "151802.859000", "151802.859000", "151802.875000", "151802.875000", "151802.875000", "151802.875000", "151802.875000", "151802.875000", "151802.875000", "151802.890000", "151802.890000", "151802.890000", "151802.890000", "151802.890000", "151802.890000", "151802.906000", "151822.843000", "151822.843000", "151822.843000", "151822.843000", "151822.859000", "151822.859000", "151822.859000", "151822.859000", "151822.859000", "151822.859000", "151822.859000", "151822.875000", "151822.875000", "151822.875000", "151822.875000", "151822.875000", "151822.875000", "151822.890000", "151822.890000", "151822.890000", "151822.890000", "151822.890000", "151822.890000", "151822.890000", "151822.906000", "151822.906000", "151842.843000", "151842.843000", "151842.843000", "151842.843000", "151842.859000", "151842.859000", "151842.859000", "151842.859000", "151842.859000", "151842.859000", "151842.859000", "151842.875000", "151842.875000", "151842.875000", "151842.875000", "151842.875000", "151842.875000", "151842.890000", "151842.890000", "151842.890000", "151842.890000", "151842.890000", "151842.890000", "151842.890000", "151842.906000", "151858.765000", "151858.781000", "151858.781000", "151858.781000", "151858.781000", "151858.781000", "151858.781000", "151858.796000", "151858.796000", "151858.796000", "151858.796000", "151858.796000", "151858.796000", "151858.796000", "151858.812000", "151858.812000", "151858.812000", "151858.812000", "151858.812000", "151858.812000", "151858.812000"],
      "DataSetTrailingPadding": [
        "\u0000\u0000\u0000\u0000\u0000\u0000\u0000\u0000\u0000\u0000\u0000\u0000\u0000\u0000\u0000\u0000\u0000\u0000\u0000\u0000\u0000\u0000\u0000\u0000\u0000\u0000\u0000\u0000\u0000\u0000\u0000\u0000\u0000\u0000\u0000\u0000\u0000\u0000\u0000\u0000\u0000\u0000\u0000\u0000\u0000\u0000\u0000\u0000\u0000\u0000\u0000\u0000\u0000\u0000\u0000\u0000\u0000\u0000\u0000\u0000\u0000\u0000\u0000\u0000\u0000\u0000\u0000\u0000",
        "\u0000\u0000\u0000\u0000\u0000\u0000\u0000\u0000\u0000\u0000\u0000\u0000\u0000\u0000\u0000\u0000\u0000\u0000\u0000\u0000\u0000\u0000\u0000\u0000\u0000\u0000\u0000\u0000\u0000\u0000\u0000\u0000\u0000\u0000\u0000\u0000\u0000\u0000\u0000\u0000\u0000\u0000\u0000\u0000\u0000\u0000\u0000\u0000\u0000\u0000\u0000\u0000\u0000\u0000\u0000\u0000\u0000\u0000\u0000\u0000\u0000\u0000\u0000\u0000\u0000\u0000\u0000\u0000",
        "\u0000\u0000\u0000\u0000\u0000\u0000\u0000\u0000\u0000\u0000\u0000\u0000\u0000\u0000\u0000\u0000\u0000\u0000\u0000\u0000\u0000\u0000\u0000\u0000\u0000\u0000\u0000\u0000\u0000\u0000\u0000\u0000\u0000\u0000\u0000\u0000\u0000\u0000\u0000\u0000\u0000\u0000\u0000\u0000\u0000\u0000\u0000\u0000\u0000\u0000\u0000\u0000\u0000\u0000\u0000\u0000\u0000\u0000\u0000\u0000\u0000\u0000\u0000\u0000\u0000\u0000",
        "\u0000\u0000\u0000\u0000\u0000\u0000\u0000\u0000\u0000\u0000\u0000\u0000\u0000\u0000\u0000\u0000\u0000\u0000\u0000\u0000\u0000\u0000\u0000\u0000\u0000\u0000\u0000\u0000\u0000\u0000\u0000\u0000\u0000\u0000\u0000\u0000\u0000\u0000\u0000\u0000\u0000\u0000\u0000\u0000\u0000\u0000\u0000\u0000\u0000\u0000\u0000\u0000\u0000\u0000\u0000\u0000\u0000\u0000\u0000\u0000\u0000\u0000\u0000\u0000\u0000\u0000",
