{
  "AcquisitionMatrixPE": 104,
  "AcquisitionNumber": 1,
  "AcquisitionTime": "15:19:27.727500",
  "BandwidthPerPixelPhaseEncode": 13.935,
  "BaseResolution": 104,
  "CoilString": "C:HEA;HEP",
  "ConversionSoftware": "dcm2niix",
  "ConversionSoftwareVersion": "v1.0.20210317",
  "DerivedVendorReportedEchoSpacing": 0.000690017,
  "DeviceSerialNumber": "35450",
  "DwellTime": 2.5e-06,
  "EchoTime": 0.0348,
  "EffectiveEchoSpacing": 0.000690017,
  "FlipAngle": 55,
  "ImageComments": "Unaliased MB8/PE3 (remote)",
  "ImageOrientationPatientDICOM": [0.999925, 0.000724289, 0.0121913, 3.26753e-08, 0.99824, -0.0593083],
  "ImageType": [
    "ORIGINAL",
    "PRIMARY",
    "M",
    "MB",
    "ND",
    "MOSAIC"
],
  "ImagingFrequency": 123.234,
  "InPlanePhaseEncodingDirectionDICOM": "COL",
  "InstitutionAddress": "Univeristy Ave. 197,Newark,North East,US,07102-1814",
  "InstitutionName": "RUBIC",
  "InstitutionalDepartmentName": "Department",
  "MRAcquisitionType": "2D",
  "MagneticFieldStrength": 3,
  "Manufacturer": "Siemens",
  "ManufacturersModelName": "TrioTim",
  "Modality": "MR",
  "MultibandAccelerationFactor": 8,
  "PartialFourier": 0.875,
  "PatientPosition": "HFS",
  "PercentPhaseFOV": 100,
  "PercentSampling": 100,
  "PhaseEncodingDirection": "j-",
  "PhaseEncodingSteps": 91,
  "PhaseResolution": 1,
  "PixelBandwidth": 1923,
  "ProcedureStepDescription": "Cole^Michael",
  "ProtocolName": "cmrr_mbep2d_bold_2mm_MB8_Task_8x",
  "PulseSequenceDetails": "%CustomerSeq%\\cmrr_mbep2d_bold",
  "ReceiveCoilName": "32Ch_Head",
  "ReconMatrixPE": 104,
  "RepetitionTime": 0.785,
  "SAR": 0.127807,
  "ScanOptions": "PFP\\FS",
  "ScanningSequence": "EP",
  "SequenceName": "epfid2d1_104",
  "SequenceVariant": "SK\\SS",
  "SeriesDescription": "cmrr_mbep2d_bold_2mm_MB8_Task_8x",
  "SeriesNumber": 15,
  "ShimSetting": [2112, -456, -7254, 654, 49, -311, -149, 15],
  "SliceThickness": 2,
  "SliceTiming": [0, 0.4375, 0.0875, 0.525, 0.175, 0.6125, 0.2625, 0.7, 0.35, 0, 0.4375, 0.0875, 0.525, 0.175, 0.6125, 0.2625, 0.7, 0.35, 0, 0.4375, 0.0875, 0.525, 0.175, 0.6125, 0.2625, 0.7, 0.35, 0, 0.4375, 0.0875, 0.525, 0.175, 0.6125, 0.2625, 0.7, 0.35, 0, 0.4375, 0.0875, 0.525, 0.175, 0.6125, 0.2625, 0.7, 0.35, 0, 0.4375, 0.0875, 0.525, 0.175, 0.6125, 0.2625, 0.7, 0.35, 0, 0.4375, 0.0875, 0.525, 0.175, 0.6125, 0.2625, 0.7, 0.35, 0, 0.4375, 0.0875, 0.525, 0.175, 0.6125, 0.2625, 0.7, 0.35],
  "SoftwareVersions": "syngo MR B19",
  "SpacingBetweenSlices": 2,
  "StationName": "MRC35450",
  "TaskName": "cpro",
  "TotalReadoutTime": 0.0710717,
  "TxRefAmp": 330.384,
  "dcmmeta_affine": [
    [-1.999850869178772, 6.535065466550805e-08, 0.024425625801086426, 101.77136993408203],
    [-0.0014485777355730534, 1.9964793920516968, -0.11860779672861099, -89.56269073486328],
    [0.024382634088397026, 0.11861664801836014, 1.9963304996490479, -91.82665252685547],
    [0.0, 0.0, 0.0, 1.0]
],
  "dcmmeta_reorient_transform": [
    [0.0, -1.0, 0.0, 103.0],
    [1.0, 0.0, 0.0, 0.0],
    [0.0, 0.0, 1.0, 0.0],
    [0.0, 0.0, 0.0, 1.0]
],
  "dcmmeta_shape": [104, 104, 72, 581],
  "dcmmeta_slice_dim": 2,
  "dcmmeta_version": 0.6,
  "global": {
    "const": {
      "AcquisitionMatrix": [104, 0, 0, 104],
      "AngioFlag": "N",
      "BitsAllocated": 16,
      "BitsStored": 12,
      "Columns": 936,
      "EchoNumbers": 1,
      "EchoTime": 34.8,
      "EchoTrainLength": 1,
      "FlipAngle": 55.0,
      "HighBit": 11,
      "ImageOrientationPatient": [0.99992542081251, 0.00072428886562, 0.01219131734307, 3.2675328e-08, 0.99823971212994, -0.0593083225756],
      "ImagePositionPatient": [-933.70935110875, -947.21273996755, -40.407790963688],
      "ImageType": [
        "ORIGINAL",
        "PRIMARY",
        "M",
        "MB",
        "ND",
        "MOSAIC"
],
      "ImagedNucleus": "1H",
      "ImagingFrequency": 123.234498,
      "InPlanePhaseEncodingDirection": "COL",
      "MRAcquisitionType": "2D",
      "MagneticFieldStrength": 3.0,
      "Manufacturer": "SIEMENS",
      "ManufacturerModelName": "TrioTim",
      "Modality": "MR",
      "NumberOfAverages": 1.0,
      "NumberOfPhaseEncodingSteps": 91,
      "PercentPhaseFieldOfView": 100.0,
      "PercentSampling": 100.0,
      "PerformedProcedureStepStartTime": "134810.750000",
      "PhotometricInterpretation": "MONOCHROME2",
      "PixelBandwidth": 1923.0,
      "PixelRepresentation": 0,
      "PixelSpacing": [2.0, 2.0],
      "ProtocolName": "cmrr_mbep2d_bold_2mm_MB8_Task_8x",
      "RepetitionTime": 785.0,
      "Rows": 936,
      "SAR": 0.12780666900379,
      "SamplesPerPixel": 1,
      "ScanOptions": [
        "PFP",
        "FS"
],
      "ScanningSequence": "EP",
      "SequenceName": "epfid2d1_104",
      "SequenceVariant": [
        "SK",
        "SS"
],
      "SeriesDescription": "cmrr_mbep2d_bold_2mm_MB8_Task_8x",
      "SeriesNumber": 15,
      "SeriesTime": "151946.203000",
      "SliceLocation": -85.10384462754,
      "SliceThickness": 2.0,
      "SmallestImagePixelValue": 0,
      "SoftwareVersions": "syngo MR B19",
      "SpacingBetweenSlices": 1.9999999478811,
      "SpecificCharacterSet": "ISO_IR 100",
      "StudyID": "1",
      "StudyTime": "134810.656000",
      "TransmitCoilName": "Body",
      "VariableFlipAngleFlag": "N",
      "WindowCenterWidthExplanation": "Algo1",
      "dBdt": 0.0},
    "slices": {}
  },
  "time": {
    "samples": {
      "AcquisitionNumber": [1, 2, 3, 4, 5, 6, 7, 8, 9, 10, 11, 12, 13, 14, 15, 16, 17, 18, 19, 20, 21, 22, 23, 24, 25, 26, 27, 28, 29, 30, 31, 32, 33, 34, 35, 36, 37, 38, 39, 40, 41, 42, 43, 44, 45, 46, 47, 48, 49, 50, 51, 52, 53, 54, 55, 56, 57, 58, 59, 60, 61, 62, 63, 64, 65, 66, 67, 68, 69, 70, 71, 72, 73, 74, 75, 76, 77, 78, 79, 80, 81, 82, 83, 84, 85, 86, 87, 88, 89, 90, 91, 92, 93, 94, 95, 96, 97, 98, 99, 100, 101, 102, 103, 104, 105, 106, 107, 108, 109, 110, 111, 112, 113, 114, 115, 116, 117, 118, 119, 120, 121, 122, 123, 124, 125, 126, 127, 128, 129, 130, 131, 132, 133, 134, 135, 136, 137, 138, 139, 140, 141, 142, 143, 144, 145, 146, 147, 148, 149, 150, 151, 152, 153, 154, 155, 156, 157, 158, 159, 160, 161, 162, 163, 164, 165, 166, 167, 168, 169, 170, 171, 172, 173, 174, 175, 176, 177, 178, 179, 180, 181, 182, 183, 184, 185, 186, 187, 188, 189, 190, 191, 192, 193, 194, 195, 196, 197, 198, 199, 200, 201, 202, 203, 204, 205, 206, 207, 208, 209, 210, 211, 212, 213, 214, 215, 216, 217, 218, 219, 220, 221, 222, 223, 224, 225, 226, 227, 228, 229, 230, 231, 232, 233, 234, 235, 236, 237, 238, 239, 240, 241, 242, 243, 244, 245, 246, 247, 248, 249, 250, 251, 252, 253, 254, 255, 256, 257, 258, 259, 260, 261, 262, 263, 264, 265, 266, 267, 268, 269, 270, 271, 272, 273, 274, 275, 276, 277, 278, 279, 280, 281, 282, 283, 284, 285, 286, 287, 288, 289, 290, 291, 292, 293, 294, 295, 296, 297, 298, 299, 300, 301, 302, 303, 304, 305, 306, 307, 308, 309, 310, 311, 312, 313, 314, 315, 316, 317, 318, 319, 320, 321, 322, 323, 324, 325, 326, 327, 328, 329, 330, 331, 332, 333, 334, 335, 336, 337, 338, 339, 340, 341, 342, 343, 344, 345, 346, 347, 348, 349, 350, 351, 352, 353, 354, 355, 356, 357, 358, 359, 360, 361, 362, 363, 364, 365, 366, 367, 368, 369, 370, 371, 372, 373, 374, 375, 376, 377, 378, 379, 380, 381, 382, 383, 384, 385, 386, 387, 388, 389, 390, 391, 392, 393, 394, 395, 396, 397, 398, 399, 400, 401, 402, 403, 404, 405, 406, 407, 408, 409, 410, 411, 412, 413, 414, 415, 416, 417, 418, 419, 420, 421, 422, 423, 424, 425, 426, 427, 428, 429, 430, 431, 432, 433, 434, 435, 436, 437, 438, 439, 440, 441, 442, 443, 444, 445, 446, 447, 448, 449, 450, 451, 452, 453, 454, 455, 456, 457, 458, 459, 460, 461, 462, 463, 464, 465, 466, 467, 468, 469, 470, 471, 472, 473, 474, 475, 476, 477, 478, 479, 480, 481, 482, 483, 484, 485, 486, 487, 488, 489, 490, 491, 492, 493, 494, 495, 496, 497, 498, 499, 500, 501, 502, 503, 504, 505, 506, 507, 508, 509, 510, 511, 512, 513, 514, 515, 516, 517, 518, 519, 520, 521, 522, 523, 524, 525, 526, 527, 528, 529, 530, 531, 532, 533, 534, 535, 536, 537, 538, 539, 540, 541, 542, 543, 544, 545, 546, 547, 548, 549, 550, 551, 552, 553, 554, 555, 556, 557, 558, 559, 560, 561, 562, 563, 564, 565, 566, 567, 568, 569, 570, 571, 572, 573, 574, 575, 576, 577, 578, 579, 580, 581],
      "AcquisitionTime": ["151927.727500", "151928.515000", "151929.305000", "151930.092500", "151930.880000", "151931.667500", "151932.457500", "151933.245000", "151934.032500", "151934.820000", "151935.610000", "151936.397500", "151937.185000", "151937.972500", "151938.762500", "151939.550000", "151940.337500", "151941.127500", "151941.915000", "151942.702500", "151943.490000", "151944.280000", "151945.067500", "151945.855000", "151946.642500", "151947.432500", "151948.220000", "151949.007500", "151949.795000", "151950.585000", "151951.372500", "151952.160000", "151952.947500", "151953.737500", "151954.525000", "151955.312500", "151956.100000", "151956.890000", "151957.677500", "151958.465000", "151959.255000", "152000.042500", "152000.830000", "152001.617500", "152002.407500", "152003.195000", "152003.982500", "152004.770000", "152005.560000", "152006.347500", "152007.135000", "152007.922500", "152008.712500", "152009.500000", "152010.287500", "152011.075000", "152011.865000", "152012.652500", "152013.440000", "152014.227500", "152015.017500", "152015.805000", "152016.592500", "152017.382500", "152018.170000", "152018.957500", "152019.745000", "152020.535000", "152021.322500", "152022.110000", "152022.897500", "152023.687500", "152024.475000", "152025.262500", "152026.050000", "152026.840000", "152027.627500", "152028.415000", "152029.202500", "152029.992500", "152030.780000", "152031.567500", "152032.355000", "152033.145000", "152033.932500", "152034.720000", "152035.510000", "152036.297500", "152037.085000", "152037.872500", "152038.662500", "152039.450000", "152040.237500", "152041.025000", "152041.815000", "152042.602500", "152043.390000", "152044.177500", "152044.967500", "152045.755000", "152046.542500", "152047.330000", "152048.120000", "152048.907500", "152049.695000", "152050.482500", "152051.272500", "152052.060000", "152052.847500", "152053.637500", "152054.425000", "152055.212500", "152056.000000", "152056.790000", "152057.577500", "152058.365000", "152059.152500", "152059.942500", "152100.730000", "152101.517500", "152102.305000", "152103.095000", "152103.882500", "152104.670000", "152105.457500", "152106.247500", "152107.035000", "152107.822500", "152108.610000", "152109.400000", "152110.187500", "152110.975000", "152111.765000", "152112.552500", "152113.340000", "152114.127500", "152114.917500", "152115.705000", "152116.492500", "152117.280000", "152118.070000", "152118.857500", "152119.645000", "152120.432500", "152121.222500", "152122.010000", "152122.797500", "152123.585000", "152124.375000", "152125.162500", "152125.950000", "152126.737500", "152127.527500", "152128.315000", "152129.102500", "152129.892500", "152130.680000", "152131.467500", "152132.255000", "152133.045000", "152133.832500", "152134.620000", "152135.407500", "152136.197500", "152136.985000", "152137.772500", "152138.560000", "152139.350000", "152140.137500", "152140.925000", "152141.712500", "152142.502500", "152143.290000", "152144.077500", "152144.867500", "152145.655000", "152146.442500", "152147.230000", "152148.020000", "152148.807500", "152149.595000", "152150.382500", "152151.172500", "152151.960000", "152152.747500", "152153.535000", "152154.325000", "152155.112500", "152155.900000", "152156.687500", "152157.477500", "152158.265000", "152159.052500", "152159.840000", "152200.630000", "152201.417500", "152202.205000", "152202.995000", "152203.782500", "152204.570000", "152205.357500", "152206.147500", "152206.935000", "152207.722500", "152208.510000", "152209.300000", "152210.087500", "152210.875000", "152211.662500", "152212.452500", "152213.240000", "152214.027500", "152214.815000", "152215.605000", "152216.392500", "152217.180000", "152217.967500", "152218.757500", "152219.545000", "152220.332500", "152221.122500", "152221.910000", "152222.697500", "152223.485000", "152224.275000", "152225.062500", "152225.850000", "152226.637500", "152227.427500", "152228.215000", "152229.002500", "152229.790000", "152230.580000", "152231.367500", "152232.155000", "152232.942500", "152233.732500", "152234.520000", "152235.307500", "152236.095000", "152236.885000", "152237.672500", "152238.460000", "152239.250000", "152240.037500", "152240.825000", "152241.612500", "152242.402500", "152243.190000", "152243.977500", "152244.765000", "152245.555000", "152246.342500", "152247.130000", "152247.917500", "152248.707500", "152249.495000", "152250.282500", "152251.070000", "152251.860000", "152252.647500", "152253.435000", "152254.222500", "152255.012500", "152255.800000", "152256.587500", "152257.377500", "152258.165000", "152258.952500", "152259.740000", "152300.530000", "152301.317500", "152302.105000", "152302.892500", "152303.682500", "152304.470000", "152305.257500", "152306.045000", "152306.835000", "152307.622500", "152308.410000", "152309.197500", "152309.987500", "152310.775000", "152311.562500", "152312.350000", "152313.140000", "152313.927500", "152314.715000", "152315.505000", "152316.292500", "152317.080000", "152317.867500", "152318.657500", "152319.445000", "152320.232500", "152321.020000", "152321.810000", "152322.597500", "152323.385000", "152324.172500", "152324.962500", "152325.750000", "152326.537500", "152327.325000", "152328.115000", "152328.902500", "152329.690000", "152330.477500", "152331.267500", "152332.055000", "152332.842500", "152333.632500", "152334.420000", "152335.207500", "152335.995000", "152336.785000", "152337.572500", "152338.360000", "152339.147500", "152339.937500", "152340.725000", "152341.512500", "152342.300000", "152343.090000", "152343.877500", "152344.665000", "152345.452500", "152346.242500", "152347.030000", "152347.817500", "152348.605000", "152349.395000", "152350.182500", "152350.970000", "152351.760000", "152352.547500", "152353.335000", "152354.122500", "152354.912500", "152355.700000", "152356.487500", "152357.275000", "152358.065000", "152358.852500", "152359.640000", "152400.427500", "152401.217500", "152402.005000", "152402.792500", "152403.580000", "152404.370000", "152405.157500", "152405.945000", "152406.732500", "152407.522500", "152408.310000", "152409.097500", "152409.887500", "152410.675000", "152411.462500", "152412.250000", "152413.040000", "152413.827500", "152414.615000", "152415.402500", "152416.192500", "152416.980000", "152417.767500", "152418.555000", "152419.345000", "152420.132500", "152420.920000", "152421.707500", "152422.497500", "152423.285000", "152424.072500", "152424.860000", "152425.650000", "152426.437500", "152427.225000", "152428.015000", "152428.802500", "152429.590000", "152430.377500", "152431.167500", "152431.955000", "152432.742500", "152433.530000", "152434.320000", "152435.107500", "152435.895000", "152436.682500", "152437.472500", "152438.260000", "152439.047500", "152439.835000", "152440.625000", "152441.412500", "152442.200000", "152442.987500", "152443.777500", "152444.565000", "152445.352500", "152446.142500", "152446.930000", "152447.717500", "152448.505000", "152449.295000", "152450.082500", "152450.870000", "152451.657500", "152452.447500", "152453.235000", "152454.022500", "152454.810000", "152455.600000", "152456.387500", "152457.175000", "152457.962500", "152458.752500", "152459.540000", "152500.327500", "152501.117500", "152501.905000", "152502.692500", "152503.480000", "152504.270000", "152505.057500", "152505.845000", "152506.632500", "152507.422500", "152508.210000", "152508.997500", "152509.785000", "152510.575000", "152511.362500", "152512.150000", "152512.937500", "152513.727500", "152514.515000", "152515.302500", "152516.090000", "152516.880000", "152517.667500", "152518.455000", "152519.245000", "152520.032500", "152520.820000", "152521.607500", "152522.397500", "152523.185000", "152523.972500", "152524.760000", "152525.550000", "152526.337500", "152527.125000", "152527.912500", "152528.702500", "152529.490000", "152530.277500", "152531.065000", "152531.855000", "152532.642500", "152533.430000", "152534.217500", "152535.007500", "152535.795000", "152536.582500", "152537.372500", "152538.160000", "152538.947500", "152539.735000", "152540.525000", "152541.312500", "152542.100000", "152542.887500", "152543.677500", "152544.465000", "152545.252500", "152546.040000", "152546.830000", "152547.617500", "152548.405000", "152549.192500", "152549.982500", "152550.770000", "152551.557500", "152552.345000", "152553.135000", "152553.922500", "152554.710000", "152555.500000", "152556.287500", "152557.075000", "152557.862500", "152558.652500", "152559.440000", "152600.227500", "152601.015000", "152601.805000", "152602.592500", "152603.380000", "152604.167500", "152604.957500", "152605.745000", "152606.532500", "152607.320000", "152608.110000", "152608.897500", "152609.685000", "152610.472500", "152611.262500", "152612.050000", "152612.837500", "152613.627500", "152614.415000", "152615.202500", "152615.990000", "152616.780000", "152617.567500", "152618.355000", "152619.142500", "152619.932500", "152620.720000", "152621.507500", "152622.295000", "152623.085000", "152623.872500", "152624.660000", "152625.447500", "152626.237500", "152627.025000", "152627.812500", "152628.600000", "152629.390000", "152630.177500", "152630.965000", "152631.755000", "152632.542500", "152633.330000", "152634.117500", "152634.907500", "152635.695000", "152636.482500", "152637.270000", "152638.060000", "152638.847500", "152639.635000", "152640.422500", "152641.212500", "152642.000000", "152642.787500", "152643.575000", "152644.365000", "152645.152500", "152645.940000", "152646.727500", "152647.517500", "152648.305000", "152649.092500", "152649.882500", "152650.670000", "152651.457500", "152652.245000", "152653.035000", "152653.822500", "152654.610000", "152655.397500", "152656.187500", "152656.975000", "152657.762500", "152658.550000", "152659.340000", "152700.127500", "152700.915000", "152701.702500", "152702.492500", "152703.280000", "152704.067500", "152704.855000"],
      "ContentTime": ["151946.203000", "151946.203000", "151946.203000", "151946.203000", "151946.218000", "151946.218000", "151946.218000", "151946.218000", "151946.218000", "151946.218000", "151946.218000", "151946.218000", "151946.234000", "151946.234000", "151946.234000", "151946.234000", "151946.234000", "151946.250000", "151946.250000", "151946.250000", "152006.171000", "152006.171000", "152006.171000", "152006.171000", "152006.187000", "152006.187000", "152006.187000", "152006.187000", "152006.187000", "152006.187000", "152006.187000", "152006.203000", "152006.203000", "152006.203000", "152006.203000", "152006.203000", "152006.203000", "152006.203000", "152006.218000", "152006.218000", "152006.218000", "152006.218000", "152006.218000", "152006.218000", "152006.218000", "152026.171000", "152026.171000", "152026.171000", "152026.171000", "152026.187000", "152026.187000", "152026.187000", "152026.187000", "152026.187000", "152026.187000", "152026.187000", "152026.203000", "152026.203000", "152026.203000", "152026.203000", "152026.203000", "152026.203000", "152026.203000", "152026.218000", "152026.218000", "152026.218000", "152026.218000", "152026.218000", "152026.218000", "152026.234000", "152026.234000", "152046.171000", "152046.171000", "152046.171000", "152046.171000", "152046.187000", "152046.187000", "152046.187000", "152046.187000", "152046.187000", "152046.187000", "152046.187000", "152046.203000", "152046.203000", "152046.203000", "152046.203000", "152046.203000", "152046.203000", "152046.203000", "152046.218000", "152046.218000", "152046.218000", "152046.218000", "152046.218000", "152046.218000", "152046.218000", "152106.171000", "152106.171000", "152106.171000", "152106.171000", "152106.187000", "152106.187000", "152106.187000", "152106.187000", "152106.187000", "152106.187000", "152106.187000", "152106.203000", "152106.203000", "152106.203000", "152106.203000", "152106.203000", "152106.203000", "152106.203000", "152106.218000", "152106.218000", "152106.218000", "152106.218000", "152106.218000", "152106.234000", "152106.234000", "152106.234000", "152126.171000", "152126.171000", "152126.171000", "152126.171000", "152126.187000", "152126.187000", "152126.187000", "152126.187000", "152126.187000", "152126.187000", "152126.187000", "152126.203000", "152126.203000", "152126.203000", "152126.203000", "152126.203000", "152126.203000", "152126.203000", "152126.218000", "152126.218000", "152126.218000", "152126.218000", "152126.218000", "152126.218000", "152126.218000", "152146.171000", "152146.171000", "152146.171000", "152146.171000", "152146.171000", "152146.187000", "152146.187000", "152146.187000", "152146.187000", "152146.187000", "152146.187000", "152146.187000", "152146.203000", "152146.203000", "152146.203000", "152146.203000", "152146.203000", "152146.203000", "152146.218000", "152146.218000", "152146.218000", "152146.218000", "152146.218000", "152146.218000", "152146.234000", "152146.234000", "152206.171000", "152206.171000", "152206.171000", "152206.171000", "152206.187000", "152206.187000", "152206.187000", "152206.187000", "152206.187000", "152206.187000", "152206.187000", "152206.187000", "152206.203000", "152206.203000", "152206.203000", "152206.203000", "152206.203000", "152206.203000", "152206.203000", "152206.218000", "152206.218000", "152206.218000", "152206.218000", "152206.218000", "152206.218000", "152226.171000", "152226.171000", "152226.171000", "152226.171000", "152226.187000", "152226.187000", "152226.187000", "152226.187000", "152226.187000", "152226.203000", "152226.203000", "152226.203000", "152226.203000", "152226.203000", "152226.203000", "152226.203000", "152226.218000", "152226.218000", "152226.218000", "152226.218000", "152226.218000", "152226.218000", "152226.218000", "152226.234000", "152226.234000", "152246.171000", "152246.171000", "152246.171000", "152246.171000", "152246.187000", "152246.187000", "152246.187000", "152246.187000", "152246.187000", "152246.187000", "152246.187000", "152246.203000", "152246.203000", "152246.203000", "152246.203000", "152246.203000", "152246.203000", "152246.203000", "152246.218000", "152246.218000", "152246.218000", "152246.218000", "152246.218000", "152246.218000", "152246.234000", "152246.234000", "152306.171000", "152306.171000", "152306.171000", "152306.171000", "152306.187000", "152306.187000", "152306.187000", "152306.187000", "152306.187000", "152306.187000", "152306.187000", "152306.218000", "152306.218000", "152306.218000", "152306.218000", "152306.234000", "152306.234000", "152306.234000", "152306.234000", "152306.234000", "152306.234000", "152306.234000", "152306.250000", "152306.250000", "152306.250000", "152326.171000", "152326.171000", "152326.171000", "152326.171000", "152326.187000", "152326.187000", "152326.187000", "152326.187000", "152326.187000", "152326.187000", "152326.187000", "152326.203000", "152326.203000", "152326.218000", "152326.218000", "152326.218000", "152326.218000", "152326.218000", "152326.234000", "152326.234000", "152326.234000", "152326.234000", "152326.234000", "152326.234000", "152326.234000", "152326.250000", "152346.171000", "152346.171000", "152346.171000", "152346.171000", "152346.187000", "152346.187000", "152346.187000", "152346.187000", "152346.187000", "152346.187000", "152346.187000", "152346.203000", "152346.203000", "152346.203000", "152346.203000", "152346.203000", "152346.203000", "152346.203000", "152346.218000", "152346.218000", "152346.218000", "152346.218000", "152346.218000", "152346.218000", "152346.234000", "152406.171000", "152406.171000", "152406.171000", "152406.171000", "152406.187000", "152406.187000", "152406.187000", "152406.187000", "152406.187000", "152406.187000", "152406.187000", "152406.187000", "152406.203000", "152406.203000", "152406.203000", "152406.203000", "152406.203000", "152406.203000", "152406.218000", "152406.218000", "152406.218000", "152406.218000", "152406.218000", "152406.218000", "152406.218000", "152406.234000", "152426.171000", "152426.171000", "152426.171000", "152426.171000", "152426.187000", "152426.187000", "152426.187000", "152426.187000", "152426.187000", "152426.187000", "152426.187000", "152426.203000", "152426.203000", "152426.203000", "152426.203000", "152426.203000", "152426.203000", "152426.203000", "152426.218000", "152426.218000", "152426.218000", "152426.218000", "152426.218000", "152426.218000", "152426.218000", "152446.171000", "152446.171000", "152446.171000", "152446.171000", "152446.187000", "152446.187000", "152446.187000", "152446.187000", "152446.187000", "152446.203000", "152446.203000", "152446.203000", "152446.203000", "152446.203000", "152446.203000", "152446.203000", "152446.218000", "152446.218000", "152446.218000", "152446.218000", "152446.218000", "152446.218000", "152446.218000", "152446.234000", "152446.234000", "152446.234000", "152506.171000", "152506.171000", "152506.171000", "152506.171000", "152506.187000", "152506.187000", "152506.187000", "152506.187000", "152506.187000", "152506.187000", "152506.187000", "152506.203000", "152506.203000", "152506.203000", "152506.203000", "152506.203000", "152506.203000", "152506.203000", "152506.218000", "152506.218000", "152506.218000", "152506.218000", "152506.218000", "152506.234000", "152506.234000", "152526.171000", "152526.171000", "152526.171000", "152526.171000", "152526.187000", "152526.187000", "152526.187000", "152526.187000", "152526.187000", "152526.187000", "152526.187000", "152526.203000", "152526.203000", "152526.203000", "152526.203000", "152526.203000", "152526.203000", "152526.203000", "152526.218000", "152526.218000", "152526.218000", "152526.218000", "152526.218000", "152526.218000", "152526.218000", "152526.234000", "152546.171000", "152546.171000", "152546.171000", "152546.171000", "152546.187000", "152546.187000", "152546.187000", "152546.187000", "152546.187000", "152546.187000", "152546.203000", "152546.203000", "152546.203000", "152546.203000", "152546.203000", "152546.203000", "152546.218000", "152546.218000", "152546.218000", "152546.218000", "152546.218000", "152546.218000", "152546.218000", "152546.234000", "152546.234000", "152606.171000", "152606.171000", "152606.171000", "152606.171000", "152606.187000", "152606.187000", "152606.187000", "152606.187000", "152606.187000", "152606.187000", "152606.187000", "152606.203000", "152606.203000", "152606.203000", "152606.203000", "152606.203000", "152606.218000", "152606.218000", "152606.218000", "152606.218000", "152606.218000", "152606.234000", "152606.234000", "152606.234000", "152606.234000", "152606.234000", "152626.171000", "152626.171000", "152626.171000", "152626.171000", "152626.187000", "152626.187000", "152626.187000", "152626.187000", "152626.187000", "152626.187000", "152626.187000", "152626.203000", "152626.203000", "152626.203000", "152626.203000", "152626.203000", "152626.203000", "152626.203000", "152626.218000", "152626.218000", "152626.218000", "152626.218000", "152626.218000", "152626.234000", "152626.234000", "152646.171000", "152646.171000", "152646.171000", "152646.171000", "152646.187000", "152646.187000", "152646.187000", "152646.187000", "152646.187000", "152646.187000", "152646.187000", "152646.203000", "152646.203000", "152646.203000", "152646.203000", "152646.203000", "152646.203000", "152646.203000", "152646.218000", "152646.218000", "152646.218000", "152646.218000", "152646.218000", "152646.218000", "152646.218000", "152646.234000", "152706.171000", "152706.171000", "152706.171000", "152706.171000", "152706.187000", "152706.187000", "152706.187000", "152706.187000", "152706.187000", "152706.187000", "152706.203000", "152706.203000", "152706.203000", "152706.203000", "152706.203000", "152706.203000", "152706.203000", "152706.218000", "152706.218000", "152706.218000", "152706.218000", "152706.218000", "152706.218000", "152706.234000", "152706.234000", "152706.515000"],
      "DataSetTrailingPadding": [
        "\u0000\u0000\u0000\u0000\u0000\u0000\u0000\u0000\u0000\u0000\u0000\u0000\u0000\u0000\u0000\u0000\u0000\u0000\u0000\u0000\u0000\u0000\u0000\u0000\u0000\u0000\u0000\u0000\u0000\u0000\u0000\u0000\u0000\u0000\u0000\u0000\u0000\u0000\u0000\u0000\u0000\u0000\u0000\u0000\u0000\u0000\u0000\u0000\u0000\u0000\u0000\u0000\u0000\u0000\u0000\u0000\u0000\u0000\u0000\u0000\u0000\u0000\u0000\u0000\u0000\u0000\u0000\u0000",
        "\u0000\u0000\u0000\u0000\u0000\u0000\u0000\u0000\u0000\u0000\u0000\u0000\u0000\u0000\u0000\u0000\u0000\u0000\u0000\u0000\u0000\u0000\u0000\u0000\u0000\u0000\u0000\u0000\u0000\u0000\u0000\u0000\u0000\u0000\u0000\u0000\u0000\u0000\u0000\u0000\u0000\u0000\u0000\u0000\u0000\u0000\u0000\u0000\u0000\u0000\u0000\u0000\u0000\u0000\u0000\u0000\u0000\u0000\u0000\u0000\u0000\u0000\u0000\u0000\u0000\u0000\u0000\u0000",
        "\u0000\u0000\u0000\u0000\u0000\u0000\u0000\u0000\u0000\u0000\u0000\u0000\u0000\u0000\u0000\u0000\u0000\u0000\u0000\u0000\u0000\u0000\u0000\u0000\u0000\u0000\u0000\u0000\u0000\u0000\u0000\u0000\u0000\u0000\u0000\u0000\u0000\u0000\u0000\u0000\u0000\u0000\u0000\u0000\u0000\u0000\u0000\u0000\u0000\u0000\u0000\u0000\u0000\u0000\u0000\u0000\u0000\u0000\u0000\u0000\u0000\u0000\u0000\u0000\u0000\u0000\u0000\u0000",
        "\u0000\u0000\u0000\u0000\u0000\u0000\u0000\u0000\u0000\u0000\u0000\u0000\u0000\u0000\u0000\u0000\u0000\u0000\u0000\u0000\u0000\u0000\u0000\u0000\u0000\u0000\u0000\u0000\u0000\u0000\u0000\u0000\u0000\u0000\u0000\u0000\u0000\u0000\u0000\u0000\u0000\u0000\u0000\u0000\u0000\u0000\u0000\u0000\u0000\u0000\u0000\u0000\u0000\u0000\u0000\u0000\u0000\u0000\u0000\u0000\u0000\u0000\u0000\u0000\u0000\u0000",
