{
  "AcquisitionMatrixPE": 104,
  "AcquisitionNumber": 1,
  "AcquisitionTime": "15:43:51.700000",
  "BandwidthPerPixelPhaseEncode": 13.935,
  "BaseResolution": 104,
  "CoilString": "C:HEA;HEP",
  "ConversionSoftware": "dcm2niix",
  "ConversionSoftwareVersion": "v1.0.20210317",
  "DerivedVendorReportedEchoSpacing": 0.000690017,
  "DeviceSerialNumber": "35450",
  "DwellTime": 2.5e-06,
  "EchoTime": 0.0348,
  "EffectiveEchoSpacing": 0.000690017,
  "FlipAngle": 55,
  "ImageComments": "Unaliased MB8/PE3 (remote)",
  "ImageOrientationPatientDICOM": [0.999925, 0.000724289, 0.0121913, 3.26753e-08, 0.99824, -0.0593083],
  "ImageType": [
    "ORIGINAL",
    "PRIMARY",
    "M",
    "MB",
    "ND",
    "MOSAIC"
],
  "ImagingFrequency": 123.234,
  "InPlanePhaseEncodingDirectionDICOM": "COL",
  "InstitutionAddress": "Univeristy Ave. 197,Newark,North East,US,07102-1814",
  "InstitutionName": "RUBIC",
  "InstitutionalDepartmentName": "Department",
  "MRAcquisitionType": "2D",
  "MagneticFieldStrength": 3,
  "Manufacturer": "Siemens",
  "ManufacturersModelName": "TrioTim",
  "Modality": "MR",
  "MultibandAccelerationFactor": 8,
  "PartialFourier": 0.875,
  "PatientPosition": "HFS",
  "PercentPhaseFOV": 100,
  "PercentSampling": 100,
  "PhaseEncodingDirection": "j-",
  "PhaseEncodingSteps": 91,
  "PhaseResolution": 1,
  "PixelBandwidth": 1923,
  "ProcedureStepDescription": "Cole^Michael",
  "ProtocolName": "cmrr_mbep2d_bold_2mm_MB8_Task_8x",
  "PulseSequenceDetails": "%CustomerSeq%\\cmrr_mbep2d_bold",
  "ReceiveCoilName": "32Ch_Head",
  "ReconMatrixPE": 104,
  "RepetitionTime": 0.785,
  "SAR": 0.127807,
  "ScanOptions": "PFP\\FS",
  "ScanningSequence": "EP",
  "SequenceName": "epfid2d1_104",
  "SequenceVariant": "SK\\SS",
  "SeriesDescription": "cmrr_mbep2d_bold_2mm_MB8_Task_8x",
  "SeriesNumber": 21,
  "ShimSetting": [2112, -456, -7254, 654, 49, -311, -149, 15],
  "SliceThickness": 2,
  "SliceTiming": [0, 0.4375, 0.0875, 0.525, 0.175, 0.6125, 0.2625, 0.7, 0.35, 0, 0.4375, 0.0875, 0.525, 0.175, 0.6125, 0.2625, 0.7, 0.35, 0, 0.4375, 0.0875, 0.525, 0.175, 0.6125, 0.2625, 0.7, 0.35, 0, 0.4375, 0.0875, 0.525, 0.175, 0.6125, 0.2625, 0.7, 0.35, 0, 0.4375, 0.0875, 0.525, 0.175, 0.6125, 0.2625, 0.7, 0.35, 0, 0.4375, 0.0875, 0.525, 0.175, 0.6125, 0.2625, 0.7, 0.35, 0, 0.4375, 0.0875, 0.525, 0.175, 0.6125, 0.2625, 0.7, 0.35, 0, 0.4375, 0.0875, 0.525, 0.175, 0.6125, 0.2625, 0.7, 0.35],
  "SoftwareVersions": "syngo MR B19",
  "SpacingBetweenSlices": 2,
  "StationName": "MRC35450",
  "TaskName": "cpro",
  "TotalReadoutTime": 0.0710717,
  "TxRefAmp": 330.384,
  "dcmmeta_affine": [
    [-1.999850869178772, 6.535065466550805e-08, 0.024425625801086426, 101.77136993408203],
    [-0.0014485777355730534, 1.9964793920516968, -0.11860779672861099, -89.56269073486328],
    [0.024382634088397026, 0.11861664801836014, 1.9963304996490479, -91.82665252685547],
    [0.0, 0.0, 0.0, 1.0]
],
  "dcmmeta_reorient_transform": [
    [0.0, -1.0, 0.0, 103.0],
    [1.0, 0.0, 0.0, 0.0],
    [0.0, 0.0, 1.0, 0.0],
    [0.0, 0.0, 0.0, 1.0]
],
  "dcmmeta_shape": [104, 104, 72, 581],
  "dcmmeta_slice_dim": 2,
  "dcmmeta_version": 0.6,
  "global": {
    "const": {
      "AcquisitionMatrix": [104, 0, 0, 104],
      "AngioFlag": "N",
      "BitsAllocated": 16,
      "BitsStored": 12,
      "Columns": 936,
      "EchoNumbers": 1,
      "EchoTime": 34.8,
      "EchoTrainLength": 1,
      "FlipAngle": 55.0,
      "HighBit": 11,
      "ImageOrientationPatient": [0.99992542081251, 0.00072428886562, 0.01219131734307, 3.2675328e-08, 0.99823971212994, -0.0593083225756],
      "ImagePositionPatient": [-933.70935110875, -947.21273996755, -40.407790963688],
      "ImageType": [
        "ORIGINAL",
        "PRIMARY",
        "M",
        "MB",
        "ND",
        "MOSAIC"
],
      "ImagedNucleus": "1H",
      "ImagingFrequency": 123.234498,
      "InPlanePhaseEncodingDirection": "COL",
      "MRAcquisitionType": "2D",
      "MagneticFieldStrength": 3.0,
      "Manufacturer": "SIEMENS",
      "ManufacturerModelName": "TrioTim",
      "Modality": "MR",
      "NumberOfAverages": 1.0,
      "NumberOfPhaseEncodingSteps": 91,
      "PercentPhaseFieldOfView": 100.0,
      "PercentSampling": 100.0,
      "PerformedProcedureStepStartTime": "134810.750000",
      "PhotometricInterpretation": "MONOCHROME2",
      "PixelBandwidth": 1923.0,
      "PixelRepresentation": 0,
      "PixelSpacing": [2.0, 2.0],
      "ProtocolName": "cmrr_mbep2d_bold_2mm_MB8_Task_8x",
      "RepetitionTime": 785.0,
      "Rows": 936,
      "SAR": 0.12780666900379,
      "SamplesPerPixel": 1,
      "ScanOptions": [
        "PFP",
        "FS"
],
      "ScanningSequence": "EP",
      "SequenceName": "epfid2d1_104",
      "SequenceVariant": [
        "SK",
        "SS"
],
      "SeriesDescription": "cmrr_mbep2d_bold_2mm_MB8_Task_8x",
      "SeriesNumber": 21,
      "SeriesTime": "154426.187000",
      "SliceLocation": -85.10384462754,
      "SliceThickness": 2.0,
      "SmallestImagePixelValue": 0,
      "SoftwareVersions": "syngo MR B19",
      "SpacingBetweenSlices": 1.9999999478811,
      "SpecificCharacterSet": "ISO_IR 100",
      "StudyID": "1",
      "StudyTime": "134810.656000",
      "TransmitCoilName": "Body",
      "VariableFlipAngleFlag": "N",
      "WindowCenterWidthExplanation": "Algo1",
      "dBdt": 0.0},
    "slices": {}
  },
  "time": {
    "samples": {
      "AcquisitionNumber": [1, 2, 3, 4, 5, 6, 7, 8, 9, 10, 11, 12, 13, 14, 15, 16, 17, 18, 19, 20, 21, 22, 23, 24, 25, 26, 27, 28, 29, 30, 31, 32, 33, 34, 35, 36, 37, 38, 39, 40, 41, 42, 43, 44, 45, 46, 47, 48, 49, 50, 51, 52, 53, 54, 55, 56, 57, 58, 59, 60, 61, 62, 63, 64, 65, 66, 67, 68, 69, 70, 71, 72, 73, 74, 75, 76, 77, 78, 79, 80, 81, 82, 83, 84, 85, 86, 87, 88, 89, 90, 91, 92, 93, 94, 95, 96, 97, 98, 99, 100, 101, 102, 103, 104, 105, 106, 107, 108, 109, 110, 111, 112, 113, 114, 115, 116, 117, 118, 119, 120, 121, 122, 123, 124, 125, 126, 127, 128, 129, 130, 131, 132, 133, 134, 135, 136, 137, 138, 139, 140, 141, 142, 143, 144, 145, 146, 147, 148, 149, 150, 151, 152, 153, 154, 155, 156, 157, 158, 159, 160, 161, 162, 163, 164, 165, 166, 167, 168, 169, 170, 171, 172, 173, 174, 175, 176, 177, 178, 179, 180, 181, 182, 183, 184, 185, 186, 187, 188, 189, 190, 191, 192, 193, 194, 195, 196, 197, 198, 199, 200, 201, 202, 203, 204, 205, 206, 207, 208, 209, 210, 211, 212, 213, 214, 215, 216, 217, 218, 219, 220, 221, 222, 223, 224, 225, 226, 227, 228, 229, 230, 231, 232, 233, 234, 235, 236, 237, 238, 239, 240, 241, 242, 243, 244, 245, 246, 247, 248, 249, 250, 251, 252, 253, 254, 255, 256, 257, 258, 259, 260, 261, 262, 263, 264, 265, 266, 267, 268, 269, 270, 271, 272, 273, 274, 275, 276, 277, 278, 279, 280, 281, 282, 283, 284, 285, 286, 287, 288, 289, 290, 291, 292, 293, 294, 295, 296, 297, 298, 299, 300, 301, 302, 303, 304, 305, 306, 307, 308, 309, 310, 311, 312, 313, 314, 315, 316, 317, 318, 319, 320, 321, 322, 323, 324, 325, 326, 327, 328, 329, 330, 331, 332, 333, 334, 335, 336, 337, 338, 339, 340, 341, 342, 343, 344, 345, 346, 347, 348, 349, 350, 351, 352, 353, 354, 355, 356, 357, 358, 359, 360, 361, 362, 363, 364, 365, 366, 367, 368, 369, 370, 371, 372, 373, 374, 375, 376, 377, 378, 379, 380, 381, 382, 383, 384, 385, 386, 387, 388, 389, 390, 391, 392, 393, 394, 395, 396, 397, 398, 399, 400, 401, 402, 403, 404, 405, 406, 407, 408, 409, 410, 411, 412, 413, 414, 415, 416, 417, 418, 419, 420, 421, 422, 423, 424, 425, 426, 427, 428, 429, 430, 431, 432, 433, 434, 435, 436, 437, 438, 439, 440, 441, 442, 443, 444, 445, 446, 447, 448, 449, 450, 451, 452, 453, 454, 455, 456, 457, 458, 459, 460, 461, 462, 463, 464, 465, 466, 467, 468, 469, 470, 471, 472, 473, 474, 475, 476, 477, 478, 479, 480, 481, 482, 483, 484, 485, 486, 487, 488, 489, 490, 491, 492, 493, 494, 495, 496, 497, 498, 499, 500, 501, 502, 503, 504, 505, 506, 507, 508, 509, 510, 511, 512, 513, 514, 515, 516, 517, 518, 519, 520, 521, 522, 523, 524, 525, 526, 527, 528, 529, 530, 531, 532, 533, 534, 535, 536, 537, 538, 539, 540, 541, 542, 543, 544, 545, 546, 547, 548, 549, 550, 551, 552, 553, 554, 555, 556, 557, 558, 559, 560, 561, 562, 563, 564, 565, 566, 567, 568, 569, 570, 571, 572, 573, 574, 575, 576, 577, 578, 579, 580, 581],
      "AcquisitionTime": ["154351.700000", "154352.487500", "154353.275000", "154354.065000", "154354.852500", "154355.640000", "154356.427500", "154357.217500", "154358.005000", "154358.792500", "154359.582500", "154400.370000", "154401.157500", "154401.945000", "154402.735000", "154403.522500", "154404.310000", "154405.097500", "154405.887500", "154406.675000", "154407.462500", "154408.250000", "154409.040000", "154409.827500", "154410.615000", "154411.402500", "154412.192500", "154412.980000", "154413.767500", "154414.555000", "154415.345000", "154416.132500", "154416.920000", "154417.710000", "154418.497500", "154419.285000", "154420.072500", "154420.862500", "154421.650000", "154422.437500", "154423.225000", "154424.015000", "154424.802500", "154425.590000", "154426.377500", "154427.167500", "154427.955000", "154428.742500", "154429.530000", "154430.320000", "154431.107500", "154431.895000", "154432.682500", "154433.472500", "154434.260000", "154435.047500", "154435.837500", "154436.625000", "154437.412500", "154438.200000", "154438.990000", "154439.777500", "154440.565000", "154441.352500", "154442.142500", "154442.930000", "154443.717500", "154444.505000", "154445.295000", "154446.082500", "154446.870000", "154447.657500", "154448.447500", "154449.235000", "154450.022500", "154450.810000", "154451.600000", "154452.387500", "154453.175000", "154453.965000", "154454.752500", "154455.540000", "154456.327500", "154457.117500", "154457.905000", "154458.692500", "154459.480000", "154500.270000", "154501.057500", "154501.845000", "154502.632500", "154503.422500", "154504.210000", "154504.997500", "154505.785000", "154506.575000", "154507.362500", "154508.150000", "154508.937500", "154509.727500", "154510.515000", "154511.302500", "154512.092500", "154512.880000", "154513.667500", "154514.455000", "154515.245000", "154516.032500", "154516.820000", "154517.607500", "154518.397500", "154519.185000", "154519.972500", "154520.760000", "154521.550000", "154522.337500", "154523.125000", "154523.912500", "154524.702500", "154525.490000", "154526.277500", "154527.065000", "154527.855000", "154528.642500", "154529.430000", "154530.220000", "154531.007500", "154531.795000", "154532.582500", "154533.372500", "154534.160000", "154534.947500", "154535.735000", "154536.525000", "154537.312500", "154538.100000", "154538.887500", "154539.677500", "154540.465000", "154541.252500", "154542.040000", "154542.830000", "154543.617500", "154544.405000", "154545.192500", "154545.982500", "154546.770000", "154547.557500", "154548.347500", "154549.135000", "154549.922500", "154550.710000", "154551.500000", "154552.287500", "154553.075000", "154553.862500", "154554.652500", "154555.440000", "154556.227500", "154557.015000", "154557.805000", "154558.592500", "154559.380000", "154600.167500", "154600.957500", "154601.745000", "154602.532500", "154603.320000", "154604.110000", "154604.897500", "154605.685000", "154606.475000", "154607.262500", "154608.050000", "154608.837500", "154609.627500", "154610.415000", "154611.202500", "154611.990000", "154612.780000", "154613.567500", "154614.355000", "154615.142500", "154615.932500", "154616.720000", "154617.507500", "154618.295000", "154619.085000", "154619.872500", "154620.660000", "154621.447500", "154622.237500", "154623.025000", "154623.812500", "154624.602500", "154625.390000", "154626.177500", "154626.965000", "154627.755000", "154628.542500", "154629.330000", "154630.117500", "154630.907500", "154631.695000", "154632.482500", "154633.270000", "154634.060000", "154634.847500", "154635.635000", "154636.422500", "154637.212500", "154638.000000", "154638.787500", "154639.575000", "154640.365000", "154641.152500", "154641.940000", "154642.730000", "154643.517500", "154644.305000", "154645.092500", "154645.882500", "154646.670000", "154647.457500", "154648.245000", "154649.035000", "154649.822500", "154650.610000", "154651.397500", "154652.187500", "154652.975000", "154653.762500", "154654.550000", "154655.340000", "154656.127500", "154656.915000", "154657.705000", "154658.492500", "154659.280000", "154700.067500", "154700.857500", "154701.645000", "154702.432500", "154703.220000", "154704.010000", "154704.797500", "154705.585000", "154706.372500", "154707.162500", "154707.950000", "154708.737500", "154709.525000", "154710.315000", "154711.102500", "154711.890000", "154712.677500", "154713.467500", "154714.255000", "154715.042500", "154715.832500", "154716.620000", "154717.407500", "154718.195000", "154718.985000", "154719.772500", "154720.560000", "154721.347500", "154722.137500", "154722.925000", "154723.712500", "154724.500000", "154725.290000", "154726.077500", "154726.865000", "154727.652500", "154728.442500", "154729.230000", "154730.017500", "154730.805000", "154731.595000", "154732.382500", "154733.170000", "154733.960000", "154734.747500", "154735.535000", "154736.322500", "154737.112500", "154737.900000", "154738.687500", "154739.475000", "154740.265000", "154741.052500", "154741.840000", "154742.627500", "154743.417500", "154744.205000", "154744.992500", "154745.780000", "154746.570000", "154747.357500", "154748.145000", "154748.932500", "154749.722500", "154750.510000", "154751.297500", "154752.087500", "154752.875000", "154753.662500", "154754.450000", "154755.240000", "154756.027500", "154756.815000", "154757.602500", "154758.392500", "154759.180000", "154759.967500", "154800.755000", "154801.545000", "154802.332500", "154803.120000", "154803.907500", "154804.697500", "154805.485000", "154806.272500", "154807.060000", "154807.850000", "154808.637500", "154809.425000", "154810.215000", "154811.002500", "154811.790000", "154812.577500", "154813.367500", "154814.155000", "154814.942500", "154815.730000", "154816.520000", "154817.307500", "154818.095000", "154818.882500", "154819.672500", "154820.460000", "154821.247500", "154822.035000", "154822.825000", "154823.612500", "154824.400000", "154825.187500", "154825.977500", "154826.765000", "154827.552500", "154828.342500", "154829.130000", "154829.917500", "154830.705000", "154831.495000", "154832.282500", "154833.070000", "154833.857500", "154834.647500", "154835.435000", "154836.222500", "154837.010000", "154837.800000", "154838.587500", "154839.375000", "154840.162500", "154840.952500", "154841.740000", "154842.527500", "154843.315000", "154844.105000", "154844.892500", "154845.680000", "154846.470000", "154847.257500", "154848.045000", "154848.832500", "154849.622500", "154850.410000", "154851.197500", "154851.985000", "154852.775000", "154853.562500", "154854.350000", "154855.137500", "154855.927500", "154856.715000", "154857.502500", "154858.290000", "154859.080000", "154859.867500", "154900.655000", "154901.442500", "154902.232500", "154903.020000", "154903.807500", "154904.597500", "154905.385000", "154906.172500", "154906.960000", "154907.750000", "154908.537500", "154909.325000", "154910.112500", "154910.902500", "154911.690000", "154912.477500", "154913.265000", "154914.055000", "154914.842500", "154915.630000", "154916.417500", "154917.207500", "154917.995000", "154918.782500", "154919.570000", "154920.360000", "154921.147500", "154921.935000", "154922.725000", "154923.512500", "154924.300000", "154925.087500", "154925.877500", "154926.665000", "154927.452500", "154928.240000", "154929.030000", "154929.817500", "154930.605000", "154931.392500", "154932.182500", "154932.970000", "154933.757500", "154934.545000", "154935.335000", "154936.122500", "154936.910000", "154937.697500", "154938.487500", "154939.275000", "154940.062500", "154940.852500", "154941.640000", "154942.427500", "154943.215000", "154944.005000", "154944.792500", "154945.580000", "154946.367500", "154947.157500", "154947.945000", "154948.732500", "154949.520000", "154950.310000", "154951.097500", "154951.885000", "154952.672500", "154953.462500", "154954.250000", "154955.037500", "154955.825000", "154956.615000", "154957.402500", "154958.190000", "154958.980000", "154959.767500", "155000.555000", "155001.342500", "155002.132500", "155002.920000", "155003.707500", "155004.495000", "155005.285000", "155006.072500", "155006.860000", "155007.647500", "155008.437500", "155009.225000", "155010.012500", "155010.800000", "155011.590000", "155012.377500", "155013.165000", "155013.955000", "155014.742500", "155015.530000", "155016.317500", "155017.107500", "155017.895000", "155018.682500", "155019.470000", "155020.260000", "155021.047500", "155021.835000", "155022.622500", "155023.412500", "155024.200000", "155024.987500", "155025.775000", "155026.565000", "155027.352500", "155028.140000", "155028.927500", "155029.717500", "155030.505000", "155031.292500", "155032.082500", "155032.870000", "155033.657500", "155034.445000", "155035.235000", "155036.022500", "155036.810000", "155037.597500", "155038.387500", "155039.175000", "155039.962500", "155040.750000", "155041.540000", "155042.327500", "155043.115000", "155043.902500", "155044.692500", "155045.480000", "155046.267500", "155047.055000", "155047.845000", "155048.632500", "155049.420000", "155050.210000", "155050.997500", "155051.785000", "155052.572500", "155053.362500", "155054.150000", "155054.937500", "155055.725000", "155056.515000", "155057.302500", "155058.090000", "155058.877500", "155059.667500", "155100.455000", "155101.242500", "155102.030000", "155102.820000", "155103.607500", "155104.395000", "155105.182500", "155105.972500", "155106.760000", "155107.547500", "155108.337500", "155109.125000", "155109.912500", "155110.700000", "155111.490000", "155112.277500", "155113.065000", "155113.852500", "155114.642500", "155115.430000", "155116.217500", "155117.005000", "155117.795000", "155118.582500", "155119.370000", "155120.157500", "155120.947500", "155121.735000", "155122.522500", "155123.310000", "155124.100000", "155124.887500", "155125.675000", "155126.465000", "155127.252500", "155128.040000", "155128.827500"],
      "ContentTime": ["154426.187000", "154426.203000", "154426.203000", "154426.203000", "154426.203000", "154426.203000", "154426.203000", "154426.218000", "154426.218000", "154426.218000", "154426.218000", "154426.218000", "154426.218000", "154426.218000", "154426.234000", "154426.234000", "154426.234000", "154426.234000", "154426.234000", "154426.234000", "154426.234000", "154426.250000", "154426.250000", "154426.250000", "154426.250000", "154426.250000", "154426.250000", "154426.265000", "154426.265000", "154426.265000", "154426.265000", "154426.281000", "154426.281000", "154426.281000", "154426.281000", "154426.281000", "154426.281000", "154426.281000", "154426.296000", "154426.296000", "154426.296000", "154446.171000", "154446.171000", "154446.171000", "154446.171000", "154446.187000", "154446.187000", "154446.187000", "154446.187000", "154446.187000", "154446.187000", "154446.187000", "154446.203000", "154446.203000", "154446.203000", "154446.203000", "154446.203000", "154446.203000", "154446.203000", "154446.218000", "154446.218000", "154446.218000", "154446.218000", "154446.218000", "154446.234000", "154446.234000", "154506.171000", "154506.171000", "154506.171000", "154506.171000", "154506.187000", "154506.187000", "154506.187000", "154506.187000", "154506.187000", "154506.203000", "154506.203000", "154506.203000", "154506.203000", "154506.203000", "154506.203000", "154506.203000", "154506.218000", "154506.218000", "154506.218000", "154506.218000", "154506.218000", "154506.234000", "154506.234000", "154506.234000", "154506.234000", "154506.234000", "154526.171000", "154526.171000", "154526.171000", "154526.171000", "154526.187000", "154526.187000", "154526.187000", "154526.187000", "154526.187000", "154526.187000", "154526.203000", "154526.203000", "154526.203000", "154526.203000", "154526.203000", "154526.203000", "154526.203000", "154526.218000", "154526.218000", "154526.218000", "154526.218000", "154526.218000", "154526.218000", "154526.218000", "154526.234000", "154546.171000", "154546.171000", "154546.171000", "154546.171000", "154546.187000", "154546.187000", "154546.187000", "154546.187000", "154546.187000", "154546.187000", "154546.187000", "154546.203000", "154546.203000", "154546.203000", "154546.203000", "154546.203000", "154546.203000", "154546.203000", "154546.218000", "154546.218000", "154546.218000", "154546.218000", "154546.218000", "154546.218000", "154546.218000", "154546.234000", "154606.171000", "154606.171000", "154606.171000", "154606.171000", "154606.187000", "154606.187000", "154606.187000", "154606.187000", "154606.187000", "154606.187000", "154606.187000", "154606.203000", "154606.203000", "154606.203000", "154606.203000", "154606.203000", "154606.203000", "154606.203000", "154606.218000", "154606.218000", "154606.218000", "154606.218000", "154606.218000", "154606.218000", "154606.234000", "154626.171000", "154626.171000", "154626.171000", "154626.171000", "154626.187000", "154626.187000", "154626.187000", "154626.187000", "154626.187000", "154626.203000", "154626.203000", "154626.203000", "154626.203000", "154626.203000", "154626.203000", "154626.203000", "154626.218000", "154626.218000", "154626.218000", "154626.218000", "154626.218000", "154626.218000", "154626.218000", "154626.234000", "154626.234000", "154626.234000", "154646.171000", "154646.171000", "154646.171000", "154646.171000", "154646.187000", "154646.187000", "154646.187000", "154646.187000", "154646.187000", "154646.187000", "154646.187000", "154646.203000", "154646.203000", "154646.203000", "154646.203000", "154646.203000", "154646.203000", "154646.203000", "154646.218000", "154646.218000", "154646.218000", "154646.218000", "154646.218000", "154646.218000", "154646.218000", "154706.171000", "154706.171000", "154706.171000", "154706.187000", "154706.187000", "154706.187000", "154706.187000", "154706.187000", "154706.187000", "154706.203000", "154706.203000", "154706.203000", "154706.203000", "154706.203000", "154706.218000", "154706.218000", "154706.218000", "154706.218000", "154706.218000", "154706.218000", "154706.234000", "154706.234000", "154706.234000", "154706.234000", "154706.234000", "154706.250000", "154726.171000", "154726.171000", "154726.171000", "154726.171000", "154726.187000", "154726.187000", "154726.187000", "154726.187000", "154726.187000", "154726.187000", "154726.187000", "154726.203000", "154726.203000", "154726.203000", "154726.203000", "154726.203000", "154726.203000", "154726.218000", "154726.218000", "154726.218000", "154726.218000", "154726.218000", "154726.218000", "154726.218000", "154726.234000", "154746.171000", "154746.171000", "154746.171000", "154746.171000", "154746.187000", "154746.187000", "154746.187000", "154746.187000", "154746.187000", "154746.187000", "154746.187000", "154746.203000", "154746.203000", "154746.203000", "154746.203000", "154746.203000", "154746.203000", "154746.203000", "154746.218000", "154746.218000", "154746.218000", "154746.218000", "154746.218000", "154746.218000", "154746.218000", "154746.234000", "154806.171000", "154806.171000", "154806.171000", "154806.187000", "154806.187000", "154806.187000", "154806.187000", "154806.187000", "154806.187000", "154806.203000", "154806.203000", "154806.203000", "154806.203000", "154806.203000", "154806.218000", "154806.218000", "154806.218000", "154806.218000", "154806.218000", "154806.218000", "154806.218000", "154806.234000", "154806.234000", "154806.234000", "154806.234000", "154826.171000", "154826.171000", "154826.171000", "154826.171000", "154826.187000", "154826.187000", "154826.187000", "154826.187000", "154826.187000", "154826.187000", "154826.187000", "154826.203000", "154826.203000", "154826.203000", "154826.203000", "154826.203000", "154826.203000", "154826.203000", "154826.218000", "154826.218000", "154826.218000", "154826.218000", "154826.218000", "154826.218000", "154826.218000", "154826.234000", "154846.171000", "154846.171000", "154846.171000", "154846.171000", "154846.187000", "154846.187000", "154846.187000", "154846.187000", "154846.187000", "154846.187000", "154846.187000", "154846.203000", "154846.203000", "154846.203000", "154846.203000", "154846.203000", "154846.203000", "154846.203000", "154846.218000", "154846.218000", "154846.218000", "154846.218000", "154846.218000", "154846.218000", "154846.218000", "154906.171000", "154906.171000", "154906.171000", "154906.171000", "154906.187000", "154906.187000", "154906.187000", "154906.187000", "154906.187000", "154906.187000", "154906.187000", "154906.203000", "154906.203000", "154906.203000", "154906.203000", "154906.218000", "154906.218000", "154906.218000", "154906.218000", "154906.218000", "154906.218000", "154906.234000", "154906.234000", "154906.234000", "154906.234000", "154926.171000", "154926.171000", "154926.171000", "154926.171000", "154926.187000", "154926.187000", "154926.187000", "154926.187000", "154926.187000", "154926.187000", "154926.187000", "154926.203000", "154926.203000", "154926.203000", "154926.203000", "154926.203000", "154926.203000", "154926.203000", "154926.218000", "154926.218000", "154926.218000", "154926.218000", "154926.218000", "154926.218000", "154926.218000", "154926.234000", "154946.171000", "154946.171000", "154946.171000", "154946.171000", "154946.187000", "154946.187000", "154946.187000", "154946.187000", "154946.187000", "154946.203000", "154946.203000", "154946.203000", "154946.203000", "154946.218000", "154946.218000", "154946.218000", "154946.218000", "154946.218000", "154946.218000", "154946.218000", "154946.234000", "154946.234000", "154946.234000", "154946.234000", "154946.234000", "155006.171000", "155006.171000", "155006.171000", "155006.171000", "155006.187000", "155006.187000", "155006.187000", "155006.187000", "155006.187000", "155006.187000", "155006.187000", "155006.203000", "155006.203000", "155006.203000", "155006.203000", "155006.203000", "155006.203000", "155006.203000", "155006.218000", "155006.218000", "155006.218000", "155006.218000", "155006.218000", "155006.218000", "155006.234000", "155006.234000", "155026.171000", "155026.171000", "155026.171000", "155026.171000", "155026.187000", "155026.187000", "155026.187000", "155026.187000", "155026.187000", "155026.187000", "155026.203000", "155026.203000", "155026.203000", "155026.203000", "155026.203000", "155026.203000", "155026.203000", "155026.218000", "155026.218000", "155026.218000", "155026.218000", "155026.218000", "155026.218000", "155026.218000", "155026.234000", "155046.171000", "155046.171000", "155046.171000", "155046.171000", "155046.187000", "155046.187000", "155046.187000", "155046.187000", "155046.187000", "155046.187000", "155046.187000", "155046.203000", "155046.203000", "155046.203000", "155046.203000", "155046.203000", "155046.203000", "155046.203000", "155046.218000", "155046.218000", "155046.218000", "155046.218000", "155046.218000", "155046.218000", "155046.218000", "155046.234000", "155106.171000", "155106.171000", "155106.171000", "155106.171000", "155106.187000", "155106.187000", "155106.187000", "155106.187000", "155106.187000", "155106.187000", "155106.187000", "155106.203000", "155106.203000", "155106.203000", "155106.203000", "155106.203000", "155106.203000", "155106.203000", "155106.218000", "155106.218000", "155106.218000", "155106.218000", "155106.218000", "155106.234000", "155106.234000", "155126.171000", "155126.171000", "155126.171000", "155126.171000", "155126.187000", "155126.187000", "155126.187000", "155126.187000", "155126.187000", "155126.187000", "155126.187000", "155126.203000", "155126.203000", "155126.203000", "155126.203000", "155126.203000", "155126.203000", "155126.218000", "155126.218000", "155126.218000", "155126.218000", "155126.218000", "155126.218000", "155126.218000", "155126.234000", "155126.234000", "155129.921000", "155129.921000", "155129.921000", "155129.921000", "155129.921000"],
      "DataSetTrailingPadding": [
        "\u0000\u0000\u0000\u0000\u0000\u0000\u0000\u0000\u0000\u0000\u0000\u0000\u0000\u0000\u0000\u0000\u0000\u0000\u0000\u0000\u0000\u0000\u0000\u0000\u0000\u0000\u0000\u0000\u0000\u0000\u0000\u0000\u0000\u0000\u0000\u0000\u0000\u0000\u0000\u0000\u0000\u0000\u0000\u0000\u0000\u0000\u0000\u0000\u0000\u0000\u0000\u0000\u0000\u0000\u0000\u0000\u0000\u0000\u0000\u0000\u0000\u0000\u0000\u0000\u0000\u0000\u0000\u0000",
        "\u0000\u0000\u0000\u0000\u0000\u0000\u0000\u0000\u0000\u0000\u0000\u0000\u0000\u0000\u0000\u0000\u0000\u0000\u0000\u0000\u0000\u0000\u0000\u0000\u0000\u0000\u0000\u0000\u0000\u0000\u0000\u0000\u0000\u0000\u0000\u0000\u0000\u0000\u0000\u0000\u0000\u0000\u0000\u0000\u0000\u0000\u0000\u0000\u0000\u0000\u0000\u0000\u0000\u0000\u0000\u0000\u0000\u0000\u0000\u0000\u0000\u0000\u0000\u0000\u0000\u0000\u0000\u0000",
        "\u0000\u0000\u0000\u0000\u0000\u0000\u0000\u0000\u0000\u0000\u0000\u0000\u0000\u0000\u0000\u0000\u0000\u0000\u0000\u0000\u0000\u0000\u0000\u0000\u0000\u0000\u0000\u0000\u0000\u0000\u0000\u0000\u0000\u0000\u0000\u0000\u0000\u0000\u0000\u0000\u0000\u0000\u0000\u0000\u0000\u0000\u0000\u0000\u0000\u0000\u0000\u0000\u0000\u0000\u0000\u0000\u0000\u0000\u0000\u0000\u0000\u0000\u0000\u0000\u0000\u0000",
        "\u0000\u0000\u0000\u0000\u0000\u0000\u0000\u0000\u0000\u0000\u0000\u0000\u0000\u0000\u0000\u0000\u0000\u0000\u0000\u0000\u0000\u0000\u0000\u0000\u0000\u0000\u0000\u0000\u0000\u0000\u0000\u0000\u0000\u0000\u0000\u0000\u0000\u0000\u0000\u0000\u0000\u0000\u0000\u0000\u0000\u0000\u0000\u0000\u0000\u0000\u0000\u0000\u0000\u0000\u0000\u0000\u0000\u0000\u0000\u0000\u0000\u0000\u0000\u0000\u0000\u0000",
