{
  "AcquisitionMatrixPE": 104,
  "AcquisitionNumber": 1,
  "AcquisitionTime": "16:08:19.702500",
  "BandwidthPerPixelPhaseEncode": 13.935,
  "BaseResolution": 104,
  "CoilString": "C:HEA;HEP",
  "ConversionSoftware": "dcm2niix",
  "ConversionSoftwareVersion": "v1.0.20210317",
  "DerivedVendorReportedEchoSpacing": 0.000690017,
  "DeviceSerialNumber": "35450",
  "DwellTime": 2.5e-06,
  "EchoTime": 0.0348,
  "EffectiveEchoSpacing": 0.000690017,
  "FlipAngle": 55,
  "ImageComments": "Unaliased MB8/PE3 (remote)",
  "ImageOrientationPatientDICOM": [0.999925, 0.000724289, 0.0121913, 3.26753e-08, 0.99824, -0.0593083],
  "ImageType": [
    "ORIGINAL",
    "PRIMARY",
    "M",
    "MB",
    "ND",
    "MOSAIC"
],
  "ImagingFrequency": 123.234,
  "InPlanePhaseEncodingDirectionDICOM": "COL",
  "InstitutionAddress": "Univeristy Ave. 197,Newark,North East,US,07102-1814",
  "InstitutionName": "RUBIC",
  "InstitutionalDepartmentName": "Department",
  "MRAcquisitionType": "2D",
  "MagneticFieldStrength": 3,
  "Manufacturer": "Siemens",
  "ManufacturersModelName": "TrioTim",
  "Modality": "MR",
  "MultibandAccelerationFactor": 8,
  "PartialFourier": 0.875,
  "PatientPosition": "HFS",
  "PercentPhaseFOV": 100,
  "PercentSampling": 100,
  "PhaseEncodingDirection": "j-",
  "PhaseEncodingSteps": 91,
  "PhaseResolution": 1,
  "PixelBandwidth": 1923,
  "ProcedureStepDescription": "Cole^Michael",
  "ProtocolName": "cmrr_mbep2d_bold_2mm_MB8_Task_8x",
  "PulseSequenceDetails": "%CustomerSeq%\\cmrr_mbep2d_bold",
  "ReceiveCoilName": "32Ch_Head",
  "ReconMatrixPE": 104,
  "RepetitionTime": 0.785,
  "SAR": 0.127807,
  "ScanOptions": "PFP\\FS",
  "ScanningSequence": "EP",
  "SequenceName": "epfid2d1_104",
  "SequenceVariant": "SK\\SS",
  "SeriesDescription": "cmrr_mbep2d_bold_2mm_MB8_Task_8x",
  "SeriesNumber": 27,
  "ShimSetting": [2112, -456, -7254, 654, 49, -311, -149, 15],
  "SliceThickness": 2,
  "SliceTiming": [0, 0.4375, 0.0875, 0.525, 0.175, 0.6125, 0.2625, 0.7, 0.35, 0, 0.4375, 0.0875, 0.525, 0.175, 0.6125, 0.2625, 0.7, 0.35, 0, 0.4375, 0.0875, 0.525, 0.175, 0.6125, 0.2625, 0.7, 0.35, 0, 0.4375, 0.0875, 0.525, 0.175, 0.6125, 0.2625, 0.7, 0.35, 0, 0.4375, 0.0875, 0.525, 0.175, 0.6125, 0.2625, 0.7, 0.35, 0, 0.4375, 0.0875, 0.525, 0.175, 0.6125, 0.2625, 0.7, 0.35, 0, 0.4375, 0.0875, 0.525, 0.175, 0.6125, 0.2625, 0.7, 0.35, 0, 0.4375, 0.0875, 0.525, 0.175, 0.6125, 0.2625, 0.7, 0.35],
  "SoftwareVersions": "syngo MR B19",
  "SpacingBetweenSlices": 2,
  "StationName": "MRC35450",
  "TaskName": "cpro",
  "TotalReadoutTime": 0.0710717,
  "TxRefAmp": 330.384,
  "dcmmeta_affine": [
    [-1.999850869178772, 6.535065466550805e-08, 0.024425625801086426, 101.77136993408203],
    [-0.0014485777355730534, 1.9964793920516968, -0.11860779672861099, -89.56269073486328],
    [0.024382634088397026, 0.11861664801836014, 1.9963304996490479, -91.82665252685547],
    [0.0, 0.0, 0.0, 1.0]
],
  "dcmmeta_reorient_transform": [
    [0.0, -1.0, 0.0, 103.0],
    [1.0, 0.0, 0.0, 0.0],
    [0.0, 0.0, 1.0, 0.0],
    [0.0, 0.0, 0.0, 1.0]
],
  "dcmmeta_shape": [104, 104, 72, 581],
  "dcmmeta_slice_dim": 2,
  "dcmmeta_version": 0.6,
  "global": {
    "const": {
      "AcquisitionMatrix": [104, 0, 0, 104],
      "AngioFlag": "N",
      "BitsAllocated": 16,
      "BitsStored": 12,
      "Columns": 936,
      "EchoNumbers": 1,
      "EchoTime": 34.8,
      "EchoTrainLength": 1,
      "FlipAngle": 55.0,
      "HighBit": 11,
      "ImageOrientationPatient": [0.99992542081251, 0.00072428886562, 0.01219131734307, 3.2675328e-08, 0.99823971212994, -0.0593083225756],
      "ImagePositionPatient": [-933.70935110875, -947.21273996755, -40.407790963688],
      "ImageType": [
        "ORIGINAL",
        "PRIMARY",
        "M",
        "MB",
        "ND",
        "MOSAIC"
],
      "ImagedNucleus": "1H",
      "ImagingFrequency": 123.234498,
      "InPlanePhaseEncodingDirection": "COL",
      "MRAcquisitionType": "2D",
      "MagneticFieldStrength": 3.0,
      "Manufacturer": "SIEMENS",
      "ManufacturerModelName": "TrioTim",
      "Modality": "MR",
      "NumberOfAverages": 1.0,
      "NumberOfPhaseEncodingSteps": 91,
      "PercentPhaseFieldOfView": 100.0,
      "PercentSampling": 100.0,
      "PerformedProcedureStepStartTime": "134810.750000",
      "PhotometricInterpretation": "MONOCHROME2",
      "PixelBandwidth": 1923.0,
      "PixelRepresentation": 0,
      "PixelSpacing": [2.0, 2.0],
      "ProtocolName": "cmrr_mbep2d_bold_2mm_MB8_Task_8x",
      "RepetitionTime": 785.0,
      "Rows": 936,
      "SAR": 0.12780666900379,
      "SamplesPerPixel": 1,
      "ScanOptions": [
        "PFP",
        "FS"
],
      "ScanningSequence": "EP",
      "SequenceName": "epfid2d1_104",
      "SequenceVariant": [
        "SK",
        "SS"
],
      "SeriesDescription": "cmrr_mbep2d_bold_2mm_MB8_Task_8x",
      "SeriesNumber": 27,
      "SeriesTime": "160846.187000",
      "SliceLocation": -85.10384462754,
      "SliceThickness": 2.0,
      "SmallestImagePixelValue": 0,
      "SoftwareVersions": "syngo MR B19",
      "SpacingBetweenSlices": 1.9999999478811,
      "SpecificCharacterSet": "ISO_IR 100",
      "StudyID": "1",
      "StudyTime": "134810.656000",
      "TransmitCoilName": "Body",
      "VariableFlipAngleFlag": "N",
      "WindowCenterWidthExplanation": "Algo1",
      "dBdt": 0.0},
    "slices": {}
  },
  "time": {
    "samples": {
      "AcquisitionNumber": [1, 2, 3, 4, 5, 6, 7, 8, 9, 10, 11, 12, 13, 14, 15, 16, 17, 18, 19, 20, 21, 22, 23, 24, 25, 26, 27, 28, 29, 30, 31, 32, 33, 34, 35, 36, 37, 38, 39, 40, 41, 42, 43, 44, 45, 46, 47, 48, 49, 50, 51, 52, 53, 54, 55, 56, 57, 58, 59, 60, 61, 62, 63, 64, 65, 66, 67, 68, 69, 70, 71, 72, 73, 74, 75, 76, 77, 78, 79, 80, 81, 82, 83, 84, 85, 86, 87, 88, 89, 90, 91, 92, 93, 94, 95, 96, 97, 98, 99, 100, 101, 102, 103, 104, 105, 106, 107, 108, 109, 110, 111, 112, 113, 114, 115, 116, 117, 118, 119, 120, 121, 122, 123, 124, 125, 126, 127, 128, 129, 130, 131, 132, 133, 134, 135, 136, 137, 138, 139, 140, 141, 142, 143, 144, 145, 146, 147, 148, 149, 150, 151, 152, 153, 154, 155, 156, 157, 158, 159, 160, 161, 162, 163, 164, 165, 166, 167, 168, 169, 170, 171, 172, 173, 174, 175, 176, 177, 178, 179, 180, 181, 182, 183, 184, 185, 186, 187, 188, 189, 190, 191, 192, 193, 194, 195, 196, 197, 198, 199, 200, 201, 202, 203, 204, 205, 206, 207, 208, 209, 210, 211, 212, 213, 214, 215, 216, 217, 218, 219, 220, 221, 222, 223, 224, 225, 226, 227, 228, 229, 230, 231, 232, 233, 234, 235, 236, 237, 238, 239, 240, 241, 242, 243, 244, 245, 246, 247, 248, 249, 250, 251, 252, 253, 254, 255, 256, 257, 258, 259, 260, 261, 262, 263, 264, 265, 266, 267, 268, 269, 270, 271, 272, 273, 274, 275, 276, 277, 278, 279, 280, 281, 282, 283, 284, 285, 286, 287, 288, 289, 290, 291, 292, 293, 294, 295, 296, 297, 298, 299, 300, 301, 302, 303, 304, 305, 306, 307, 308, 309, 310, 311, 312, 313, 314, 315, 316, 317, 318, 319, 320, 321, 322, 323, 324, 325, 326, 327, 328, 329, 330, 331, 332, 333, 334, 335, 336, 337, 338, 339, 340, 341, 342, 343, 344, 345, 346, 347, 348, 349, 350, 351, 352, 353, 354, 355, 356, 357, 358, 359, 360, 361, 362, 363, 364, 365, 366, 367, 368, 369, 370, 371, 372, 373, 374, 375, 376, 377, 378, 379, 380, 381, 382, 383, 384, 385, 386, 387, 388, 389, 390, 391, 392, 393, 394, 395, 396, 397, 398, 399, 400, 401, 402, 403, 404, 405, 406, 407, 408, 409, 410, 411, 412, 413, 414, 415, 416, 417, 418, 419, 420, 421, 422, 423, 424, 425, 426, 427, 428, 429, 430, 431, 432, 433, 434, 435, 436, 437, 438, 439, 440, 441, 442, 443, 444, 445, 446, 447, 448, 449, 450, 451, 452, 453, 454, 455, 456, 457, 458, 459, 460, 461, 462, 463, 464, 465, 466, 467, 468, 469, 470, 471, 472, 473, 474, 475, 476, 477, 478, 479, 480, 481, 482, 483, 484, 485, 486, 487, 488, 489, 490, 491, 492, 493, 494, 495, 496, 497, 498, 499, 500, 501, 502, 503, 504, 505, 506, 507, 508, 509, 510, 511, 512, 513, 514, 515, 516, 517, 518, 519, 520, 521, 522, 523, 524, 525, 526, 527, 528, 529, 530, 531, 532, 533, 534, 535, 536, 537, 538, 539, 540, 541, 542, 543, 544, 545, 546, 547, 548, 549, 550, 551, 552, 553, 554, 555, 556, 557, 558, 559, 560, 561, 562, 563, 564, 565, 566, 567, 568, 569, 570, 571, 572, 573, 574, 575, 576, 577, 578, 579, 580, 581],
      "AcquisitionTime": ["160819.702500", "160820.490000", "160821.280000", "160822.067500", "160822.855000", "160823.642500", "160824.432500", "160825.220000", "160826.007500", "160826.795000", "160827.585000", "160828.372500", "160829.160000", "160829.947500", "160830.737500", "160831.525000", "160832.312500", "160833.100000", "160833.890000", "160834.677500", "160835.465000", "160836.252500", "160837.042500", "160837.830000", "160838.617500", "160839.407500", "160840.195000", "160840.982500", "160841.770000", "160842.560000", "160843.347500", "160844.135000", "160844.922500", "160845.712500", "160846.500000", "160847.287500", "160848.075000", "160848.865000", "160849.652500", "160850.440000", "160851.227500", "160852.017500", "160852.805000", "160853.592500", "160854.380000", "160855.170000", "160855.957500", "160856.745000", "160857.535000", "160858.322500", "160859.110000", "160859.897500", "160900.687500", "160901.475000", "160902.262500", "160903.050000", "160903.840000", "160904.627500", "160905.415000", "160906.202500", "160906.992500", "160907.780000", "160908.567500", "160909.355000", "160910.145000", "160910.932500", "160911.720000", "160912.507500", "160913.297500", "160914.085000", "160914.872500", "160915.662500", "160916.450000", "160917.237500", "160918.025000", "160918.815000", "160919.602500", "160920.390000", "160921.177500", "160921.967500", "160922.755000", "160923.542500", "160924.330000", "160925.120000", "160925.907500", "160926.695000", "160927.482500", "160928.272500", "160929.060000", "160929.847500", "160930.635000", "160931.425000", "160932.212500", "160933.000000", "160933.790000", "160934.577500", "160935.365000", "160936.152500", "160936.942500", "160937.730000", "160938.517500", "160939.305000", "160940.095000", "160940.882500", "160941.670000", "160942.457500", "160943.247500", "160944.035000", "160944.822500", "160945.610000", "160946.400000", "160947.187500", "160947.975000", "160948.762500", "160949.552500", "160950.340000", "160951.127500", "160951.917500", "160952.705000", "160953.492500", "160954.280000", "160955.070000", "160955.857500", "160956.645000", "160957.432500", "160958.222500", "160959.010000", "160959.797500", "161000.585000", "161001.375000", "161002.162500", "161002.950000", "161003.737500", "161004.527500", "161005.315000", "161006.102500", "161006.890000", "161007.680000", "161008.467500", "161009.255000", "161010.045000", "161010.832500", "161011.620000", "161012.407500", "161013.197500", "161013.985000", "161014.772500", "161015.560000", "161016.350000", "161017.137500", "161017.925000", "161018.712500", "161019.502500", "161020.290000", "161021.077500", "161021.865000", "161022.655000", "161023.442500", "161024.230000", "161025.017500", "161025.807500", "161026.595000", "161027.382500", "161028.172500", "161028.960000", "161029.747500", "161030.535000", "161031.325000", "161032.112500", "161032.900000", "161033.687500", "161034.477500", "161035.265000", "161036.052500", "161036.840000", "161037.630000", "161038.417500", "161039.205000", "161039.992500", "161040.782500", "161041.570000", "161042.357500", "161043.147500", "161043.935000", "161044.722500", "161045.510000", "161046.300000", "161047.087500", "161047.875000", "161048.662500", "161049.452500", "161050.240000", "161051.027500", "161051.815000", "161052.605000", "161053.392500", "161054.180000", "161054.967500", "161055.757500", "161056.545000", "161057.332500", "161058.120000", "161058.910000", "161059.697500", "161100.485000", "161101.275000", "161102.062500", "161102.850000", "161103.637500", "161104.427500", "161105.215000", "161106.002500", "161106.790000", "161107.580000", "161108.367500", "161109.155000", "161109.942500", "161110.732500", "161111.520000", "161112.307500", "161113.095000", "161113.885000", "161114.672500", "161115.460000", "161116.247500", "161117.037500", "161117.825000", "161118.612500", "161119.402500", "161120.190000", "161120.977500", "161121.765000", "161122.555000", "161123.342500", "161124.130000", "161124.917500", "161125.707500", "161126.495000", "161127.282500", "161128.070000", "161128.860000", "161129.647500", "161130.435000", "161131.222500", "161132.012500", "161132.800000", "161133.587500", "161134.375000", "161135.165000", "161135.952500", "161136.740000", "161137.530000", "161138.317500", "161139.105000", "161139.892500", "161140.682500", "161141.470000", "161142.257500", "161143.045000", "161143.835000", "161144.622500", "161145.410000", "161146.197500", "161146.987500", "161147.775000", "161148.562500", "161149.350000", "161150.140000", "161150.927500", "161151.715000", "161152.502500", "161153.292500", "161154.080000", "161154.867500", "161155.657500", "161156.445000", "161157.232500", "161158.020000", "161158.810000", "161159.597500", "161200.385000", "161201.172500", "161201.962500", "161202.750000", "161203.537500", "161204.325000", "161205.115000", "161205.902500", "161206.690000", "161207.477500", "161208.267500", "161209.055000", "161209.842500", "161210.630000", "161211.420000", "161212.207500", "161212.995000", "161213.785000", "161214.572500", "161215.360000", "161216.147500", "161216.937500", "161217.725000", "161218.512500", "161219.300000", "161220.090000", "161220.877500", "161221.665000", "161222.452500", "161223.242500", "161224.030000", "161224.817500", "161225.605000", "161226.395000", "161227.182500", "161227.970000", "161228.757500", "161229.547500", "161230.335000", "161231.122500", "161231.912500", "161232.700000", "161233.487500", "161234.275000", "161235.065000", "161235.852500", "161236.640000", "161237.427500", "161238.217500", "161239.005000", "161239.792500", "161240.580000", "161241.370000", "161242.157500", "161242.945000", "161243.732500", "161244.522500", "161245.310000", "161246.097500", "161246.885000", "161247.675000", "161248.462500", "161249.250000", "161250.040000", "161250.827500", "161251.615000", "161252.402500", "161253.192500", "161253.980000", "161254.767500", "161255.555000", "161256.345000", "161257.132500", "161257.920000", "161258.707500", "161259.497500", "161300.285000", "161301.072500", "161301.860000", "161302.650000", "161303.437500", "161304.225000", "161305.012500", "161305.802500", "161306.590000", "161307.377500", "161308.167500", "161308.955000", "161309.742500", "161310.530000", "161311.320000", "161312.107500", "161312.895000", "161313.682500", "161314.472500", "161315.260000", "161316.047500", "161316.835000", "161317.625000", "161318.412500", "161319.200000", "161319.987500", "161320.777500", "161321.565000", "161322.352500", "161323.140000", "161323.930000", "161324.717500", "161325.505000", "161326.295000", "161327.082500", "161327.870000", "161328.657500", "161329.447500", "161330.235000", "161331.022500", "161331.810000", "161332.600000", "161333.387500", "161334.175000", "161334.962500", "161335.752500", "161336.540000", "161337.327500", "161338.115000", "161338.905000", "161339.692500", "161340.480000", "161341.267500", "161342.057500", "161342.845000", "161343.632500", "161344.422500", "161345.210000", "161345.997500", "161346.785000", "161347.575000", "161348.362500", "161349.150000", "161349.937500", "161350.727500", "161351.515000", "161352.302500", "161353.090000", "161353.880000", "161354.667500", "161355.455000", "161356.242500", "161357.032500", "161357.820000", "161358.607500", "161359.397500", "161400.185000", "161400.972500", "161401.760000", "161402.550000", "161403.337500", "161404.125000", "161404.912500", "161405.702500", "161406.490000", "161407.277500", "161408.065000", "161408.855000", "161409.642500", "161410.430000", "161411.217500", "161412.007500", "161412.795000", "161413.582500", "161414.370000", "161415.160000", "161415.947500", "161416.735000", "161417.525000", "161418.312500", "161419.100000", "161419.887500", "161420.677500", "161421.465000", "161422.252500", "161423.040000", "161423.830000", "161424.617500", "161425.405000", "161426.192500", "161426.982500", "161427.770000", "161428.557500", "161429.345000", "161430.135000", "161430.922500", "161431.710000", "161432.497500", "161433.287500", "161434.075000", "161434.862500", "161435.652500", "161436.440000", "161437.227500", "161438.015000", "161438.805000", "161439.592500", "161440.380000", "161441.167500", "161441.957500", "161442.745000", "161443.532500", "161444.320000", "161445.110000", "161445.897500", "161446.685000", "161447.472500", "161448.262500", "161449.050000", "161449.837500", "161450.625000", "161451.415000", "161452.202500", "161452.990000", "161453.780000", "161454.567500", "161455.355000", "161456.142500", "161456.932500", "161457.720000", "161458.507500", "161459.295000", "161500.085000", "161500.872500", "161501.660000", "161502.447500", "161503.237500", "161504.025000", "161504.812500", "161505.600000", "161506.390000", "161507.177500", "161507.965000", "161508.752500", "161509.542500", "161510.330000", "161511.117500", "161511.907500", "161512.695000", "161513.482500", "161514.270000", "161515.060000", "161515.847500", "161516.635000", "161517.422500", "161518.212500", "161519.000000", "161519.787500", "161520.575000", "161521.365000", "161522.152500", "161522.940000", "161523.727500", "161524.517500", "161525.305000", "161526.092500", "161526.880000", "161527.670000", "161528.457500", "161529.245000", "161530.035000", "161530.822500", "161531.610000", "161532.397500", "161533.187500", "161533.975000", "161534.762500", "161535.550000", "161536.340000", "161537.127500", "161537.915000", "161538.702500", "161539.492500", "161540.280000", "161541.067500", "161541.855000", "161542.645000", "161543.432500", "161544.220000", "161545.007500", "161545.797500", "161546.585000", "161547.372500", "161548.162500", "161548.950000", "161549.737500", "161550.525000", "161551.315000", "161552.102500", "161552.890000", "161553.677500", "161554.467500", "161555.255000", "161556.042500", "161556.830000"],
      "ContentTime": ["160846.187000", "160846.203000", "160846.203000", "160846.203000", "160846.203000", "160846.203000", "160846.218000", "160846.218000", "160846.218000", "160846.218000", "160846.218000", "160846.218000", "160846.234000", "160846.234000", "160846.234000", "160846.234000", "160846.234000", "160846.234000", "160846.234000", "160846.250000", "160846.250000", "160846.250000", "160846.250000", "160846.250000", "160846.250000", "160846.250000", "160846.265000", "160846.265000", "160846.265000", "160846.265000", "160906.171000", "160906.171000", "160906.171000", "160906.171000", "160906.187000", "160906.187000", "160906.187000", "160906.187000", "160906.187000", "160906.187000", "160906.187000", "160906.203000", "160906.203000", "160906.203000", "160906.203000", "160906.203000", "160906.203000", "160906.203000", "160906.218000", "160906.218000", "160906.218000", "160906.218000", "160906.218000", "160906.218000", "160906.218000", "160926.171000", "160926.171000", "160926.171000", "160926.171000", "160926.187000", "160926.187000", "160926.187000", "160926.187000", "160926.187000", "160926.187000", "160926.187000", "160926.203000", "160926.203000", "160926.203000", "160926.203000", "160926.203000", "160926.203000", "160926.203000", "160926.218000", "160926.218000", "160926.218000", "160926.218000", "160926.218000", "160926.218000", "160926.218000", "160926.234000", "160946.171000", "160946.171000", "160946.171000", "160946.171000", "160946.187000", "160946.187000", "160946.187000", "160946.187000", "160946.187000", "160946.187000", "160946.187000", "160946.203000", "160946.203000", "160946.203000", "160946.203000", "160946.203000", "160946.203000", "160946.203000", "160946.218000", "160946.218000", "160946.218000", "160946.218000", "160946.218000", "160946.218000", "160946.218000", "161006.171000", "161006.171000", "161006.171000", "161006.187000", "161006.187000", "161006.187000", "161006.187000", "161006.187000", "161006.187000", "161006.203000", "161006.203000", "161006.203000", "161006.203000", "161006.203000", "161006.218000", "161006.218000", "161006.218000", "161006.218000", "161006.218000", "161006.218000", "161006.218000", "161006.234000", "161006.234000", "161006.234000", "161006.234000", "161006.234000", "161026.171000", "161026.171000", "161026.171000", "161026.171000", "161026.187000", "161026.187000", "161026.187000", "161026.187000", "161026.187000", "161026.187000", "161026.203000", "161026.203000", "161026.203000", "161026.203000", "161026.203000", "161026.203000", "161026.203000", "161026.203000", "161026.218000", "161026.218000", "161026.218000", "161026.218000", "161026.218000", "161026.218000", "161026.234000", "161046.171000", "161046.171000", "161046.171000", "161046.171000", "161046.187000", "161046.187000", "161046.187000", "161046.187000", "161046.187000", "161046.187000", "161046.187000", "161046.203000", "161046.203000", "161046.203000", "161046.203000", "161046.203000", "161046.203000", "161046.218000", "161046.218000", "161046.218000", "161046.218000", "161046.218000", "161046.218000", "161046.234000", "161046.234000", "161106.171000", "161106.171000", "161106.171000", "161106.171000", "161106.187000", "161106.187000", "161106.187000", "161106.187000", "161106.187000", "161106.187000", "161106.187000", "161106.203000", "161106.203000", "161106.203000", "161106.203000", "161106.203000", "161106.203000", "161106.203000", "161106.218000", "161106.218000", "161106.218000", "161106.218000", "161106.218000", "161106.218000", "161106.218000", "161106.234000", "161126.171000", "161126.171000", "161126.171000", "161126.171000", "161126.187000", "161126.187000", "161126.187000", "161126.187000", "161126.218000", "161126.218000", "161126.218000", "161126.218000", "161126.218000", "161126.218000", "161126.218000", "161126.234000", "161126.234000", "161126.234000", "161126.234000", "161126.234000", "161126.234000", "161126.234000", "161126.250000", "161126.250000", "161126.250000", "161146.171000", "161146.171000", "161146.171000", "161146.171000", "161146.187000", "161146.187000", "161146.187000", "161146.187000", "161146.187000", "161146.187000", "161146.203000", "161146.203000", "161146.203000", "161146.203000", "161146.203000", "161146.218000", "161146.218000", "161146.218000", "161146.218000", "161146.218000", "161146.218000", "161146.218000", "161146.234000", "161146.234000", "161146.234000", "161146.234000", "161206.171000", "161206.171000", "161206.171000", "161206.187000", "161206.187000", "161206.187000", "161206.187000", "161206.187000", "161206.187000", "161206.187000", "161206.203000", "161206.203000", "161206.218000", "161206.218000", "161206.218000", "161206.234000", "161206.234000", "161206.234000", "161206.234000", "161206.234000", "161206.234000", "161206.234000", "161206.250000", "161206.250000", "161206.250000", "161226.171000", "161226.171000", "161226.171000", "161226.171000", "161226.187000", "161226.187000", "161226.187000", "161226.187000", "161226.187000", "161226.187000", "161226.187000", "161226.187000", "161226.203000", "161226.203000", "161226.203000", "161226.203000", "161226.203000", "161226.203000", "161226.218000", "161226.218000", "161226.218000", "161226.218000", "161226.218000", "161226.234000", "161226.234000", "161226.234000", "161246.171000", "161246.171000", "161246.171000", "161246.171000", "161246.187000", "161246.187000", "161246.187000", "161246.187000", "161246.187000", "161246.187000", "161246.187000", "161246.203000", "161246.203000", "161246.203000", "161246.203000", "161246.203000", "161246.203000", "161246.203000", "161246.218000", "161246.218000", "161246.218000", "161246.218000", "161246.218000", "161246.218000", "161246.218000", "161306.171000", "161306.171000", "161306.171000", "161306.171000", "161306.187000", "161306.187000", "161306.187000", "161306.187000", "161306.187000", "161306.187000", "161306.187000", "161306.203000", "161306.203000", "161306.203000", "161306.203000", "161306.203000", "161306.203000", "161306.218000", "161306.218000", "161306.218000", "161306.218000", "161306.218000", "161306.218000", "161306.218000", "161306.234000", "161306.234000", "161326.171000", "161326.171000", "161326.171000", "161326.171000", "161326.187000", "161326.187000", "161326.187000", "161326.187000", "161326.187000", "161326.203000", "161326.203000", "161326.203000", "161326.203000", "161326.203000", "161326.203000", "161326.203000", "161326.218000", "161326.218000", "161326.218000", "161326.218000", "161326.218000", "161326.234000", "161326.234000", "161326.234000", "161326.234000", "161346.171000", "161346.171000", "161346.171000", "161346.171000", "161346.187000", "161346.187000", "161346.187000", "161346.187000", "161346.187000", "161346.187000", "161346.187000", "161346.203000", "161346.203000", "161346.203000", "161346.203000", "161346.203000", "161346.218000", "161346.218000", "161346.218000", "161346.218000", "161346.218000", "161346.218000", "161346.218000", "161346.234000", "161346.234000", "161346.234000", "161406.171000", "161406.171000", "161406.171000", "161406.171000", "161406.187000", "161406.187000", "161406.187000", "161406.187000", "161406.187000", "161406.187000", "161406.187000", "161406.203000", "161406.203000", "161406.203000", "161406.203000", "161406.203000", "161406.203000", "161406.203000", "161406.218000", "161406.218000", "161406.218000", "161406.218000", "161406.218000", "161406.218000", "161406.218000", "161426.171000", "161426.171000", "161426.171000", "161426.171000", "161426.187000", "161426.187000", "161426.187000", "161426.187000", "161426.187000", "161426.187000", "161426.187000", "161426.203000", "161426.203000", "161426.203000", "161426.203000", "161426.203000", "161426.203000", "161426.203000", "161426.218000", "161426.218000", "161426.218000", "161426.218000", "161426.218000", "161426.218000", "161426.218000", "161426.234000", "161446.171000", "161446.171000", "161446.171000", "161446.171000", "161446.187000", "161446.187000", "161446.187000", "161446.187000", "161446.187000", "161446.187000", "161446.187000", "161446.203000", "161446.203000", "161446.203000", "161446.203000", "161446.203000", "161446.218000", "161446.218000", "161446.218000", "161446.218000", "161446.218000", "161446.218000", "161446.218000", "161446.234000", "161446.234000", "161506.171000", "161506.171000", "161506.171000", "161506.171000", "161506.187000", "161506.187000", "161506.187000", "161506.187000", "161506.187000", "161506.187000", "161506.187000", "161506.203000", "161506.203000", "161506.203000", "161506.203000", "161506.203000", "161506.203000", "161506.203000", "161506.218000", "161506.218000", "161506.218000", "161506.218000", "161506.218000", "161506.218000", "161506.218000", "161506.234000", "161526.171000", "161526.171000", "161526.171000", "161526.171000", "161526.187000", "161526.187000", "161526.187000", "161526.187000", "161526.187000", "161526.187000", "161526.187000", "161526.203000", "161526.203000", "161526.203000", "161526.203000", "161526.203000", "161526.203000", "161526.203000", "161526.218000", "161526.218000", "161526.218000", "161526.218000", "161526.218000", "161526.218000", "161526.218000", "161546.171000", "161546.171000", "161546.171000", "161546.171000", "161546.187000", "161546.187000", "161546.187000", "161546.187000", "161546.187000", "161546.187000", "161546.187000", "161546.203000", "161546.203000", "161546.203000", "161546.203000", "161546.203000", "161546.203000", "161546.203000", "161546.218000", "161546.218000", "161546.218000", "161546.218000", "161546.218000", "161546.218000", "161546.218000", "161546.234000", "161558.593000", "161558.609000", "161558.609000", "161558.609000", "161558.609000", "161558.609000", "161558.625000", "161558.625000", "161558.625000", "161558.625000", "161558.625000", "161558.625000", "161558.625000", "161558.640000", "161558.640000", "161558.640000"],
      "DataSetTrailingPadding": [
        "\u0000\u0000\u0000\u0000\u0000\u0000\u0000\u0000\u0000\u0000\u0000\u0000\u0000\u0000\u0000\u0000\u0000\u0000\u0000\u0000\u0000\u0000\u0000\u0000\u0000\u0000\u0000\u0000\u0000\u0000\u0000\u0000\u0000\u0000\u0000\u0000\u0000\u0000\u0000\u0000\u0000\u0000\u0000\u0000\u0000\u0000\u0000\u0000\u0000\u0000\u0000\u0000\u0000\u0000\u0000\u0000\u0000\u0000\u0000\u0000\u0000\u0000\u0000\u0000\u0000\u0000\u0000\u0000",
        "\u0000\u0000\u0000\u0000\u0000\u0000\u0000\u0000\u0000\u0000\u0000\u0000\u0000\u0000\u0000\u0000\u0000\u0000\u0000\u0000\u0000\u0000\u0000\u0000\u0000\u0000\u0000\u0000\u0000\u0000\u0000\u0000\u0000\u0000\u0000\u0000\u0000\u0000\u0000\u0000\u0000\u0000\u0000\u0000\u0000\u0000\u0000\u0000\u0000\u0000\u0000\u0000\u0000\u0000\u0000\u0000\u0000\u0000\u0000\u0000\u0000\u0000\u0000\u0000\u0000\u0000\u0000\u0000",
        "\u0000\u0000\u0000\u0000\u0000\u0000\u0000\u0000\u0000\u0000\u0000\u0000\u0000\u0000\u0000\u0000\u0000\u0000\u0000\u0000\u0000\u0000\u0000\u0000\u0000\u0000\u0000\u0000\u0000\u0000\u0000\u0000\u0000\u0000\u0000\u0000\u0000\u0000\u0000\u0000\u0000\u0000\u0000\u0000\u0000\u0000\u0000\u0000\u0000\u0000\u0000\u0000\u0000\u0000\u0000\u0000\u0000\u0000\u0000\u0000\u0000\u0000\u0000\u0000\u0000\u0000\u0000\u0000",
        "\u0000\u0000\u0000\u0000\u0000\u0000\u0000\u0000\u0000\u0000\u0000\u0000\u0000\u0000\u0000\u0000\u0000\u0000\u0000\u0000\u0000\u0000\u0000\u0000\u0000\u0000\u0000\u0000\u0000\u0000\u0000\u0000\u0000\u0000\u0000\u0000\u0000\u0000\u0000\u0000\u0000\u0000\u0000\u0000\u0000\u0000\u0000\u0000\u0000\u0000\u0000\u0000\u0000\u0000\u0000\u0000\u0000\u0000\u0000\u0000\u0000\u0000\u0000\u0000\u0000\u0000",
