{
  "AcquisitionMatrixPE": 104,
  "AcquisitionNumber": 1,
  "AcquisitionTime": "15:51:55.727500",
  "BandwidthPerPixelPhaseEncode": 13.935,
  "BaseResolution": 104,
  "CoilString": "C:HEA;HEP",
  "ConversionSoftware": "dcm2niix",
  "ConversionSoftwareVersion": "v1.0.20210317",
  "DerivedVendorReportedEchoSpacing": 0.000690017,
  "DeviceSerialNumber": "35450",
  "DwellTime": 2.5e-06,
  "EchoTime": 0.0348,
  "EffectiveEchoSpacing": 0.000690017,
  "FlipAngle": 55,
  "ImageComments": "Unaliased MB8/PE3 (remote)",
  "ImageOrientationPatientDICOM": [0.999925, 0.000724289, 0.0121913, 3.26753e-08, 0.99824, -0.0593083],
  "ImageType": [
    "ORIGINAL",
    "PRIMARY",
    "M",
    "MB",
    "ND",
    "MOSAIC"
],
  "ImagingFrequency": 123.234,
  "InPlanePhaseEncodingDirectionDICOM": "COL",
  "InstitutionAddress": "Univeristy Ave. 197,Newark,North East,US,07102-1814",
  "InstitutionName": "RUBIC",
  "InstitutionalDepartmentName": "Department",
  "MRAcquisitionType": "2D",
  "MagneticFieldStrength": 3,
  "Manufacturer": "Siemens",
  "ManufacturersModelName": "TrioTim",
  "Modality": "MR",
  "MultibandAccelerationFactor": 8,
  "PartialFourier": 0.875,
  "PatientPosition": "HFS",
  "PercentPhaseFOV": 100,
  "PercentSampling": 100,
  "PhaseEncodingDirection": "j-",
  "PhaseEncodingSteps": 91,
  "PhaseResolution": 1,
  "PixelBandwidth": 1923,
  "ProcedureStepDescription": "Cole^Michael",
  "ProtocolName": "cmrr_mbep2d_bold_2mm_MB8_Task_8x",
  "PulseSequenceDetails": "%CustomerSeq%\\cmrr_mbep2d_bold",
  "ReceiveCoilName": "32Ch_Head",
  "ReconMatrixPE": 104,
  "RepetitionTime": 0.785,
  "SAR": 0.127807,
  "ScanOptions": "PFP\\FS",
  "ScanningSequence": "EP",
  "SequenceName": "epfid2d1_104",
  "SequenceVariant": "SK\\SS",
  "SeriesDescription": "cmrr_mbep2d_bold_2mm_MB8_Task_8x",
  "SeriesNumber": 23,
  "ShimSetting": [2112, -456, -7254, 654, 49, -311, -149, 15],
  "SliceThickness": 2,
  "SliceTiming": [0, 0.4375, 0.0875, 0.525, 0.175, 0.6125, 0.2625, 0.7, 0.35, 0, 0.4375, 0.0875, 0.525, 0.175, 0.6125, 0.2625, 0.7, 0.35, 0, 0.4375, 0.0875, 0.525, 0.175, 0.6125, 0.2625, 0.7, 0.35, 0, 0.4375, 0.0875, 0.525, 0.175, 0.6125, 0.2625, 0.7, 0.35, 0, 0.4375, 0.0875, 0.525, 0.175, 0.6125, 0.2625, 0.7, 0.35, 0, 0.4375, 0.0875, 0.525, 0.175, 0.6125, 0.2625, 0.7, 0.35, 0, 0.4375, 0.0875, 0.525, 0.175, 0.6125, 0.2625, 0.7, 0.35, 0, 0.4375, 0.0875, 0.525, 0.175, 0.6125, 0.2625, 0.7, 0.35],
  "SoftwareVersions": "syngo MR B19",
  "SpacingBetweenSlices": 2,
  "StationName": "MRC35450",
  "TaskName": "cpro",
  "TotalReadoutTime": 0.0710717,
  "TxRefAmp": 330.384,
  "dcmmeta_affine": [
    [-1.999850869178772, 6.535065466550805e-08, 0.024425625801086426, 101.77136993408203],
    [-0.0014485777355730534, 1.9964793920516968, -0.11860779672861099, -89.56269073486328],
    [0.024382634088397026, 0.11861664801836014, 1.9963304996490479, -91.82665252685547],
    [0.0, 0.0, 0.0, 1.0]
],
  "dcmmeta_reorient_transform": [
    [0.0, -1.0, 0.0, 103.0],
    [1.0, 0.0, 0.0, 0.0],
    [0.0, 0.0, 1.0, 0.0],
    [0.0, 0.0, 0.0, 1.0]
],
  "dcmmeta_shape": [104, 104, 72, 581],
  "dcmmeta_slice_dim": 2,
  "dcmmeta_version": 0.6,
  "global": {
    "const": {
      "AcquisitionMatrix": [104, 0, 0, 104],
      "AngioFlag": "N",
      "BitsAllocated": 16,
      "BitsStored": 12,
      "Columns": 936,
      "EchoNumbers": 1,
      "EchoTime": 34.8,
      "EchoTrainLength": 1,
      "FlipAngle": 55.0,
      "HighBit": 11,
      "ImageOrientationPatient": [0.99992542081251, 0.00072428886562, 0.01219131734307, 3.2675328e-08, 0.99823971212994, -0.0593083225756],
      "ImagePositionPatient": [-933.70935110875, -947.21273996755, -40.407790963688],
      "ImageType": [
        "ORIGINAL",
        "PRIMARY",
        "M",
        "MB",
        "ND",
        "MOSAIC"
],
      "ImagedNucleus": "1H",
      "ImagingFrequency": 123.234498,
      "InPlanePhaseEncodingDirection": "COL",
      "MRAcquisitionType": "2D",
      "MagneticFieldStrength": 3.0,
      "Manufacturer": "SIEMENS",
      "ManufacturerModelName": "TrioTim",
      "Modality": "MR",
      "NumberOfAverages": 1.0,
      "NumberOfPhaseEncodingSteps": 91,
      "PercentPhaseFieldOfView": 100.0,
      "PercentSampling": 100.0,
      "PerformedProcedureStepStartTime": "134810.750000",
      "PhotometricInterpretation": "MONOCHROME2",
      "PixelBandwidth": 1923.0,
      "PixelRepresentation": 0,
      "PixelSpacing": [2.0, 2.0],
      "ProtocolName": "cmrr_mbep2d_bold_2mm_MB8_Task_8x",
      "RepetitionTime": 785.0,
      "Rows": 936,
      "SAR": 0.12780666900379,
      "SamplesPerPixel": 1,
      "ScanOptions": [
        "PFP",
        "FS"
],
      "ScanningSequence": "EP",
      "SequenceName": "epfid2d1_104",
      "SequenceVariant": [
        "SK",
        "SS"
],
      "SeriesDescription": "cmrr_mbep2d_bold_2mm_MB8_Task_8x",
      "SeriesNumber": 23,
      "SeriesTime": "155226.171000",
      "SliceLocation": -85.10384462754,
      "SliceThickness": 2.0,
      "SmallestImagePixelValue": 0,
      "SoftwareVersions": "syngo MR B19",
      "SpacingBetweenSlices": 1.9999999478811,
      "SpecificCharacterSet": "ISO_IR 100",
      "StudyID": "1",
      "StudyTime": "134810.656000",
      "TransmitCoilName": "Body",
      "VariableFlipAngleFlag": "N",
      "WindowCenterWidthExplanation": "Algo1",
      "dBdt": 0.0},
    "slices": {}
  },
  "time": {
    "samples": {
      "AcquisitionNumber": [1, 2, 3, 4, 5, 6, 7, 8, 9, 10, 11, 12, 13, 14, 15, 16, 17, 18, 19, 20, 21, 22, 23, 24, 25, 26, 27, 28, 29, 30, 31, 32, 33, 34, 35, 36, 37, 38, 39, 40, 41, 42, 43, 44, 45, 46, 47, 48, 49, 50, 51, 52, 53, 54, 55, 56, 57, 58, 59, 60, 61, 62, 63, 64, 65, 66, 67, 68, 69, 70, 71, 72, 73, 74, 75, 76, 77, 78, 79, 80, 81, 82, 83, 84, 85, 86, 87, 88, 89, 90, 91, 92, 93, 94, 95, 96, 97, 98, 99, 100, 101, 102, 103, 104, 105, 106, 107, 108, 109, 110, 111, 112, 113, 114, 115, 116, 117, 118, 119, 120, 121, 122, 123, 124, 125, 126, 127, 128, 129, 130, 131, 132, 133, 134, 135, 136, 137, 138, 139, 140, 141, 142, 143, 144, 145, 146, 147, 148, 149, 150, 151, 152, 153, 154, 155, 156, 157, 158, 159, 160, 161, 162, 163, 164, 165, 166, 167, 168, 169, 170, 171, 172, 173, 174, 175, 176, 177, 178, 179, 180, 181, 182, 183, 184, 185, 186, 187, 188, 189, 190, 191, 192, 193, 194, 195, 196, 197, 198, 199, 200, 201, 202, 203, 204, 205, 206, 207, 208, 209, 210, 211, 212, 213, 214, 215, 216, 217, 218, 219, 220, 221, 222, 223, 224, 225, 226, 227, 228, 229, 230, 231, 232, 233, 234, 235, 236, 237, 238, 239, 240, 241, 242, 243, 244, 245, 246, 247, 248, 249, 250, 251, 252, 253, 254, 255, 256, 257, 258, 259, 260, 261, 262, 263, 264, 265, 266, 267, 268, 269, 270, 271, 272, 273, 274, 275, 276, 277, 278, 279, 280, 281, 282, 283, 284, 285, 286, 287, 288, 289, 290, 291, 292, 293, 294, 295, 296, 297, 298, 299, 300, 301, 302, 303, 304, 305, 306, 307, 308, 309, 310, 311, 312, 313, 314, 315, 316, 317, 318, 319, 320, 321, 322, 323, 324, 325, 326, 327, 328, 329, 330, 331, 332, 333, 334, 335, 336, 337, 338, 339, 340, 341, 342, 343, 344, 345, 346, 347, 348, 349, 350, 351, 352, 353, 354, 355, 356, 357, 358, 359, 360, 361, 362, 363, 364, 365, 366, 367, 368, 369, 370, 371, 372, 373, 374, 375, 376, 377, 378, 379, 380, 381, 382, 383, 384, 385, 386, 387, 388, 389, 390, 391, 392, 393, 394, 395, 396, 397, 398, 399, 400, 401, 402, 403, 404, 405, 406, 407, 408, 409, 410, 411, 412, 413, 414, 415, 416, 417, 418, 419, 420, 421, 422, 423, 424, 425, 426, 427, 428, 429, 430, 431, 432, 433, 434, 435, 436, 437, 438, 439, 440, 441, 442, 443, 444, 445, 446, 447, 448, 449, 450, 451, 452, 453, 454, 455, 456, 457, 458, 459, 460, 461, 462, 463, 464, 465, 466, 467, 468, 469, 470, 471, 472, 473, 474, 475, 476, 477, 478, 479, 480, 481, 482, 483, 484, 485, 486, 487, 488, 489, 490, 491, 492, 493, 494, 495, 496, 497, 498, 499, 500, 501, 502, 503, 504, 505, 506, 507, 508, 509, 510, 511, 512, 513, 514, 515, 516, 517, 518, 519, 520, 521, 522, 523, 524, 525, 526, 527, 528, 529, 530, 531, 532, 533, 534, 535, 536, 537, 538, 539, 540, 541, 542, 543, 544, 545, 546, 547, 548, 549, 550, 551, 552, 553, 554, 555, 556, 557, 558, 559, 560, 561, 562, 563, 564, 565, 566, 567, 568, 569, 570, 571, 572, 573, 574, 575, 576, 577, 578, 579, 580, 581],
      "AcquisitionTime": ["155155.727500", "155156.515000", "155157.302500", "155158.092500", "155158.880000", "155159.667500", "155200.457500", "155201.245000", "155202.032500", "155202.820000", "155203.610000", "155204.397500", "155205.185000", "155205.972500", "155206.762500", "155207.550000", "155208.337500", "155209.125000", "155209.915000", "155210.702500", "155211.490000", "155212.277500", "155213.067500", "155213.855000", "155214.642500", "155215.430000", "155216.220000", "155217.007500", "155217.795000", "155218.585000", "155219.372500", "155220.160000", "155220.947500", "155221.737500", "155222.525000", "155223.312500", "155224.100000", "155224.890000", "155225.677500", "155226.465000", "155227.252500", "155228.042500", "155228.830000", "155229.617500", "155230.405000", "155231.195000", "155231.982500", "155232.770000", "155233.557500", "155234.347500", "155235.135000", "155235.922500", "155236.712500", "155237.500000", "155238.287500", "155239.075000", "155239.865000", "155240.652500", "155241.440000", "155242.227500", "155243.017500", "155243.805000", "155244.592500", "155245.380000", "155246.170000", "155246.957500", "155247.745000", "155248.532500", "155249.322500", "155250.110000", "155250.897500", "155251.685000", "155252.475000", "155253.262500", "155254.050000", "155254.840000", "155255.627500", "155256.415000", "155257.202500", "155257.992500", "155258.780000", "155259.567500", "155300.355000", "155301.145000", "155301.932500", "155302.720000", "155303.507500", "155304.297500", "155305.085000", "155305.872500", "155306.660000", "155307.450000", "155308.237500", "155309.025000", "155309.812500", "155310.602500", "155311.390000", "155312.177500", "155312.967500", "155313.755000", "155314.542500", "155315.330000", "155316.120000", "155316.907500", "155317.695000", "155318.482500", "155319.272500", "155320.060000", "155320.847500", "155321.635000", "155322.425000", "155323.212500", "155324.000000", "155324.787500", "155325.577500", "155326.365000", "155327.152500", "155327.940000", "155328.730000", "155329.517500", "155330.305000", "155331.095000", "155331.882500", "155332.670000", "155333.457500", "155334.247500", "155335.035000", "155335.822500", "155336.610000", "155337.400000", "155338.187500", "155338.975000", "155339.762500", "155340.552500", "155341.340000", "155342.127500", "155342.915000", "155343.705000", "155344.492500", "155345.280000", "155346.067500", "155346.857500", "155347.645000", "155348.432500", "155349.222500", "155350.010000", "155350.797500", "155351.585000", "155352.375000", "155353.162500", "155353.950000", "155354.737500", "155355.527500", "155356.315000", "155357.102500", "155357.890000", "155358.680000", "155359.467500", "155400.255000", "155401.042500", "155401.832500", "155402.620000", "155403.407500", "155404.195000", "155404.985000", "155405.772500", "155406.560000", "155407.350000", "155408.137500", "155408.925000", "155409.712500", "155410.502500", "155411.290000", "155412.077500", "155412.865000", "155413.655000", "155414.442500", "155415.230000", "155416.017500", "155416.807500", "155417.595000", "155418.382500", "155419.170000", "155419.960000", "155420.747500", "155421.535000", "155422.325000", "155423.112500", "155423.900000", "155424.687500", "155425.477500", "155426.265000", "155427.052500", "155427.840000", "155428.630000", "155429.417500", "155430.205000", "155430.992500", "155431.782500", "155432.570000", "155433.357500", "155434.145000", "155434.935000", "155435.722500", "155436.510000", "155437.297500", "155438.087500", "155438.875000", "155439.662500", "155440.452500", "155441.240000", "155442.027500", "155442.815000", "155443.605000", "155444.392500", "155445.180000", "155445.967500", "155446.757500", "155447.545000", "155448.332500", "155449.120000", "155449.910000", "155450.697500", "155451.485000", "155452.272500", "155453.062500", "155453.850000", "155454.637500", "155455.425000", "155456.215000", "155457.002500", "155457.790000", "155458.580000", "155459.367500", "155500.155000", "155500.942500", "155501.732500", "155502.520000", "155503.307500", "155504.095000", "155504.885000", "155505.672500", "155506.460000", "155507.247500", "155508.037500", "155508.825000", "155509.612500", "155510.400000", "155511.190000", "155511.977500", "155512.765000", "155513.552500", "155514.342500", "155515.130000", "155515.917500", "155516.707500", "155517.495000", "155518.282500", "155519.070000", "155519.860000", "155520.647500", "155521.435000", "155522.222500", "155523.012500", "155523.800000", "155524.587500", "155525.375000", "155526.165000", "155526.952500", "155527.740000", "155528.527500", "155529.317500", "155530.105000", "155530.892500", "155531.680000", "155532.470000", "155533.257500", "155534.045000", "155534.835000", "155535.622500", "155536.410000", "155537.197500", "155537.987500", "155538.775000", "155539.562500", "155540.350000", "155541.140000", "155541.927500", "155542.715000", "155543.502500", "155544.292500", "155545.080000", "155545.867500", "155546.655000", "155547.445000", "155548.232500", "155549.020000", "155549.807500", "155550.597500", "155551.385000", "155552.172500", "155552.962500", "155553.750000", "155554.537500", "155555.325000", "155556.115000", "155556.902500", "155557.690000", "155558.477500", "155559.267500", "155600.055000", "155600.842500", "155601.630000", "155602.420000", "155603.207500", "155603.995000", "155604.782500", "155605.572500", "155606.360000", "155607.147500", "155607.935000", "155608.725000", "155609.512500", "155610.300000", "155611.090000", "155611.877500", "155612.665000", "155613.452500", "155614.242500", "155615.030000", "155615.817500", "155616.605000", "155617.395000", "155618.182500", "155618.970000", "155619.757500", "155620.547500", "155621.335000", "155622.122500", "155622.910000", "155623.700000", "155624.487500", "155625.275000", "155626.062500", "155626.852500", "155627.640000", "155628.427500", "155629.217500", "155630.005000", "155630.792500", "155631.580000", "155632.370000", "155633.157500", "155633.945000", "155634.732500", "155635.522500", "155636.310000", "155637.097500", "155637.885000", "155638.675000", "155639.462500", "155640.250000", "155641.037500", "155641.827500", "155642.615000", "155643.402500", "155644.190000", "155644.980000", "155645.767500", "155646.555000", "155647.345000", "155648.132500", "155648.920000", "155649.707500", "155650.497500", "155651.285000", "155652.072500", "155652.860000", "155653.650000", "155654.437500", "155655.225000", "155656.012500", "155656.802500", "155657.590000", "155658.377500", "155659.165000", "155659.955000", "155700.742500", "155701.530000", "155702.317500", "155703.107500", "155703.895000", "155704.682500", "155705.472500", "155706.260000", "155707.047500", "155707.835000", "155708.625000", "155709.412500", "155710.200000", "155710.987500", "155711.777500", "155712.565000", "155713.352500", "155714.140000", "155714.930000", "155715.717500", "155716.505000", "155717.292500", "155718.082500", "155718.870000", "155719.657500", "155720.445000", "155721.235000", "155722.022500", "155722.810000", "155723.600000", "155724.387500", "155725.175000", "155725.962500", "155726.752500", "155727.540000", "155728.327500", "155729.115000", "155729.905000", "155730.692500", "155731.480000", "155732.267500", "155733.057500", "155733.845000", "155734.632500", "155735.420000", "155736.210000", "155736.997500", "155737.785000", "155738.575000", "155739.362500", "155740.150000", "155740.937500", "155741.727500", "155742.515000", "155743.302500", "155744.090000", "155744.880000", "155745.667500", "155746.455000", "155747.242500", "155748.032500", "155748.820000", "155749.607500", "155750.395000", "155751.185000", "155751.972500", "155752.760000", "155753.547500", "155754.337500", "155755.125000", "155755.912500", "155756.702500", "155757.490000", "155758.277500", "155759.065000", "155759.855000", "155800.642500", "155801.430000", "155802.217500", "155803.007500", "155803.795000", "155804.582500", "155805.370000", "155806.160000", "155806.947500", "155807.735000", "155808.522500", "155809.312500", "155810.100000", "155810.887500", "155811.675000", "155812.465000", "155813.252500", "155814.040000", "155814.830000", "155815.617500", "155816.405000", "155817.192500", "155817.982500", "155818.770000", "155819.557500", "155820.345000", "155821.135000", "155821.922500", "155822.710000", "155823.497500", "155824.287500", "155825.075000", "155825.862500", "155826.650000", "155827.440000", "155828.227500", "155829.015000", "155829.802500", "155830.592500", "155831.380000", "155832.167500", "155832.957500", "155833.745000", "155834.532500", "155835.320000", "155836.110000", "155836.897500", "155837.685000", "155838.472500", "155839.262500", "155840.050000", "155840.837500", "155841.625000", "155842.415000", "155843.202500", "155843.990000", "155844.777500", "155845.567500", "155846.355000", "155847.142500", "155847.930000", "155848.720000", "155849.507500", "155850.295000", "155851.085000", "155851.872500", "155852.660000", "155853.447500", "155854.237500", "155855.025000", "155855.812500", "155856.600000", "155857.390000", "155858.177500", "155858.965000", "155859.752500", "155900.542500", "155901.330000", "155902.117500", "155902.905000", "155903.695000", "155904.482500", "155905.270000", "155906.057500", "155906.847500", "155907.635000", "155908.422500", "155909.212500", "155910.000000", "155910.787500", "155911.575000", "155912.365000", "155913.152500", "155913.940000", "155914.727500", "155915.517500", "155916.305000", "155917.092500", "155917.880000", "155918.670000", "155919.457500", "155920.245000", "155921.032500", "155921.822500", "155922.610000", "155923.397500", "155924.185000", "155924.975000", "155925.762500", "155926.550000", "155927.340000", "155928.127500", "155928.915000", "155929.702500", "155930.492500", "155931.280000", "155932.067500", "155932.855000"],
      "ContentTime": ["155226.171000", "155226.171000", "155226.171000", "155226.171000", "155226.171000", "155226.171000", "155226.187000", "155226.187000", "155226.187000", "155226.187000", "155226.187000", "155226.187000", "155226.203000", "155226.203000", "155226.203000", "155226.203000", "155226.203000", "155226.203000", "155226.203000", "155226.218000", "155226.218000", "155226.218000", "155226.218000", "155226.218000", "155226.218000", "155226.218000", "155226.234000", "155226.234000", "155226.234000", "155226.234000", "155226.234000", "155226.234000", "155226.234000", "155226.250000", "155226.250000", "155246.140000", "155246.140000", "155246.140000", "155246.140000", "155246.156000", "155246.156000", "155246.156000", "155246.156000", "155246.156000", "155246.171000", "155246.171000", "155246.171000", "155246.171000", "155246.171000", "155246.171000", "155246.171000", "155246.187000", "155246.187000", "155246.187000", "155246.187000", "155246.187000", "155246.187000", "155246.187000", "155246.203000", "155246.203000", "155246.203000", "155306.140000", "155306.140000", "155306.140000", "155306.140000", "155306.156000", "155306.156000", "155306.156000", "155306.156000", "155306.156000", "155306.156000", "155306.156000", "155306.171000", "155306.171000", "155306.171000", "155306.171000", "155306.171000", "155306.171000", "155306.187000", "155306.187000", "155306.187000", "155306.187000", "155306.187000", "155306.187000", "155306.187000", "155306.203000", "155326.140000", "155326.140000", "155326.140000", "155326.140000", "155326.156000", "155326.156000", "155326.156000", "155326.156000", "155326.156000", "155326.156000", "155326.156000", "155326.171000", "155326.171000", "155326.171000", "155326.171000", "155326.171000", "155326.171000", "155326.171000", "155326.187000", "155326.187000", "155326.187000", "155326.187000", "155326.187000", "155326.187000", "155326.203000", "155326.203000", "155346.140000", "155346.140000", "155346.140000", "155346.140000", "155346.156000", "155346.156000", "155346.156000", "155346.156000", "155346.156000", "155346.156000", "155346.171000", "155346.171000", "155346.171000", "155346.171000", "155346.171000", "155346.171000", "155346.187000", "155346.187000", "155346.187000", "155346.187000", "155346.187000", "155346.203000", "155346.203000", "155346.203000", "155346.203000", "155406.140000", "155406.140000", "155406.140000", "155406.140000", "155406.156000", "155406.156000", "155406.156000", "155406.156000", "155406.156000", "155406.156000", "155406.156000", "155406.171000", "155406.171000", "155406.171000", "155406.171000", "155406.171000", "155406.171000", "155406.171000", "155406.187000", "155406.187000", "155406.187000", "155406.187000", "155406.187000", "155406.187000", "155406.187000", "155406.203000", "155426.140000", "155426.140000", "155426.140000", "155426.140000", "155426.156000", "155426.156000", "155426.156000", "155426.156000", "155426.156000", "155426.156000", "155426.156000", "155426.171000", "155426.171000", "155426.171000", "155426.171000", "155426.171000", "155426.171000", "155426.187000", "155426.187000", "155426.187000", "155426.187000", "155426.187000", "155426.187000", "155426.203000", "155426.203000", "155446.140000", "155446.140000", "155446.140000", "155446.140000", "155446.156000", "155446.156000", "155446.156000", "155446.156000", "155446.156000", "155446.156000", "155446.156000", "155446.171000", "155446.171000", "155446.171000", "155446.171000", "155446.171000", "155446.171000", "155446.171000", "155446.187000", "155446.187000", "155446.187000", "155446.187000", "155446.187000", "155446.187000", "155446.203000", "155446.203000", "155506.140000", "155506.140000", "155506.140000", "155506.140000", "155506.156000", "155506.156000", "155506.156000", "155506.156000", "155506.156000", "155506.156000", "155506.171000", "155506.171000", "155506.171000", "155506.171000", "155506.171000", "155506.171000", "155506.187000", "155506.187000", "155506.187000", "155506.187000", "155506.187000", "155506.187000", "155506.187000", "155506.203000", "155506.203000", "155526.140000", "155526.140000", "155526.140000", "155526.140000", "155526.156000", "155526.156000", "155526.156000", "155526.156000", "155526.156000", "155526.171000", "155526.171000", "155526.171000", "155526.171000", "155526.171000", "155526.171000", "155526.171000", "155526.187000", "155526.187000", "155526.187000", "155526.187000", "155526.187000", "155526.203000", "155526.203000", "155526.203000", "155526.203000", "155526.203000", "155546.140000", "155546.140000", "155546.140000", "155546.140000", "155546.156000", "155546.156000", "155546.156000", "155546.156000", "155546.156000", "155546.156000", "155546.156000", "155546.171000", "155546.171000", "155546.171000", "155546.171000", "155546.171000", "155546.171000", "155546.171000", "155546.187000", "155546.187000", "155546.187000", "155546.187000", "155546.203000", "155546.203000", "155546.203000", "155606.140000", "155606.140000", "155606.140000", "155606.140000", "155606.156000", "155606.156000", "155606.156000", "155606.156000", "155606.156000", "155606.156000", "155606.156000", "155606.171000", "155606.171000", "155606.171000", "155606.171000", "155606.171000", "155606.171000", "155606.171000", "155606.187000", "155606.187000", "155606.187000", "155606.187000", "155606.187000", "155606.187000", "155606.187000", "155606.203000", "155626.140000", "155626.140000", "155626.140000", "155626.140000", "155626.156000", "155626.156000", "155626.156000", "155626.156000", "155626.156000", "155626.156000", "155626.171000", "155626.171000", "155626.171000", "155626.171000", "155626.171000", "155626.171000", "155626.187000", "155626.187000", "155626.187000", "155626.187000", "155626.187000", "155626.187000", "155626.187000", "155626.203000", "155626.203000", "155646.140000", "155646.140000", "155646.140000", "155646.140000", "155646.156000", "155646.156000", "155646.156000", "155646.156000", "155646.156000", "155646.156000", "155646.156000", "155646.171000", "155646.171000", "155646.171000", "155646.171000", "155646.171000", "155646.171000", "155646.171000", "155646.187000", "155646.187000", "155646.187000", "155646.187000", "155646.187000", "155646.187000", "155646.187000", "155646.203000", "155706.140000", "155706.140000", "155706.140000", "155706.140000", "155706.156000", "155706.156000", "155706.156000", "155706.156000", "155706.156000", "155706.156000", "155706.156000", "155706.171000", "155706.171000", "155706.171000", "155706.171000", "155706.171000", "155706.171000", "155706.171000", "155706.187000", "155706.187000", "155706.187000", "155706.187000", "155706.187000", "155706.187000", "155706.187000", "155726.140000", "155726.140000", "155726.140000", "155726.140000", "155726.156000", "155726.156000", "155726.156000", "155726.156000", "155726.156000", "155726.156000", "155726.156000", "155726.171000", "155726.171000", "155726.171000", "155726.171000", "155726.171000", "155726.171000", "155726.171000", "155726.187000", "155726.187000", "155726.187000", "155726.187000", "155726.187000", "155726.187000", "155726.203000", "155726.203000", "155746.140000", "155746.140000", "155746.140000", "155746.140000", "155746.156000", "155746.156000", "155746.156000", "155746.156000", "155746.156000", "155746.156000", "155746.156000", "155746.171000", "155746.171000", "155746.171000", "155746.171000", "155746.171000", "155746.171000", "155746.171000", "155746.187000", "155746.187000", "155746.187000", "155746.187000", "155746.187000", "155746.187000", "155746.203000", "155806.140000", "155806.140000", "155806.140000", "155806.140000", "155806.156000", "155806.156000", "155806.156000", "155806.156000", "155806.156000", "155806.156000", "155806.156000", "155806.171000", "155806.171000", "155806.171000", "155806.171000", "155806.171000", "155806.171000", "155806.171000", "155806.187000", "155806.187000", "155806.187000", "155806.187000", "155806.187000", "155806.187000", "155806.187000", "155806.203000", "155826.140000", "155826.140000", "155826.140000", "155826.140000", "155826.156000", "155826.156000", "155826.156000", "155826.156000", "155826.156000", "155826.156000", "155826.171000", "155826.171000", "155826.171000", "155826.171000", "155826.187000", "155826.187000", "155826.187000", "155826.187000", "155826.187000", "155826.187000", "155826.187000", "155826.203000", "155826.203000", "155826.203000", "155826.203000", "155846.140000", "155846.140000", "155846.140000", "155846.140000", "155846.156000", "155846.156000", "155846.156000", "155846.156000", "155846.156000", "155846.156000", "155846.156000", "155846.171000", "155846.171000", "155846.171000", "155846.171000", "155846.171000", "155846.171000", "155846.171000", "155846.187000", "155846.187000", "155846.187000", "155846.187000", "155846.187000", "155846.187000", "155846.203000", "155846.203000", "155906.140000", "155906.140000", "155906.140000", "155906.140000", "155906.156000", "155906.156000", "155906.156000", "155906.156000", "155906.156000", "155906.156000", "155906.156000", "155906.171000", "155906.171000", "155906.171000", "155906.171000", "155906.171000", "155906.171000", "155906.187000", "155906.187000", "155906.187000", "155906.187000", "155906.187000", "155906.187000", "155906.187000", "155906.203000", "155926.140000", "155926.140000", "155926.140000", "155926.140000", "155926.156000", "155926.156000", "155926.156000", "155926.156000", "155926.156000", "155926.156000", "155926.156000", "155926.171000", "155926.171000", "155926.171000", "155926.171000", "155926.171000", "155926.171000", "155926.187000", "155926.187000", "155926.187000", "155926.187000", "155926.187000", "155926.203000", "155926.203000", "155926.203000", "155926.203000", "155934.031000", "155934.031000", "155934.031000", "155934.046000", "155934.046000", "155934.046000", "155934.046000", "155934.046000", "155934.046000", "155934.046000"],
      "DataSetTrailingPadding": [
        "\u0000\u0000\u0000\u0000\u0000\u0000\u0000\u0000\u0000\u0000\u0000\u0000\u0000\u0000\u0000\u0000\u0000\u0000\u0000\u0000\u0000\u0000\u0000\u0000\u0000\u0000\u0000\u0000\u0000\u0000\u0000\u0000\u0000\u0000\u0000\u0000\u0000\u0000\u0000\u0000\u0000\u0000\u0000\u0000\u0000\u0000\u0000\u0000\u0000\u0000\u0000\u0000\u0000\u0000\u0000\u0000\u0000\u0000\u0000\u0000\u0000\u0000\u0000\u0000\u0000\u0000\u0000\u0000",
        "\u0000\u0000\u0000\u0000\u0000\u0000\u0000\u0000\u0000\u0000\u0000\u0000\u0000\u0000\u0000\u0000\u0000\u0000\u0000\u0000\u0000\u0000\u0000\u0000\u0000\u0000\u0000\u0000\u0000\u0000\u0000\u0000\u0000\u0000\u0000\u0000\u0000\u0000\u0000\u0000\u0000\u0000\u0000\u0000\u0000\u0000\u0000\u0000\u0000\u0000\u0000\u0000\u0000\u0000\u0000\u0000\u0000\u0000\u0000\u0000\u0000\u0000\u0000\u0000\u0000\u0000\u0000\u0000",
        "\u0000\u0000\u0000\u0000\u0000\u0000\u0000\u0000\u0000\u0000\u0000\u0000\u0000\u0000\u0000\u0000\u0000\u0000\u0000\u0000\u0000\u0000\u0000\u0000\u0000\u0000\u0000\u0000\u0000\u0000\u0000\u0000\u0000\u0000\u0000\u0000\u0000\u0000\u0000\u0000\u0000\u0000\u0000\u0000\u0000\u0000\u0000\u0000\u0000\u0000\u0000\u0000\u0000\u0000\u0000\u0000\u0000\u0000\u0000\u0000\u0000\u0000\u0000\u0000\u0000\u0000",
        "\u0000\u0000\u0000\u0000\u0000\u0000\u0000\u0000\u0000\u0000\u0000\u0000\u0000\u0000\u0000\u0000\u0000\u0000\u0000\u0000\u0000\u0000\u0000\u0000\u0000\u0000\u0000\u0000\u0000\u0000\u0000\u0000\u0000\u0000\u0000\u0000\u0000\u0000\u0000\u0000\u0000\u0000\u0000\u0000\u0000\u0000\u0000\u0000\u0000\u0000\u0000\u0000\u0000\u0000\u0000\u0000\u0000\u0000\u0000\u0000\u0000\u0000\u0000\u0000\u0000\u0000",
