{
  "AcquisitionMatrixPE": 104,
  "AcquisitionNumber": 1,
  "AcquisitionTime": "12:28:54.725000",
  "BandwidthPerPixelPhaseEncode": 13.935,
  "BaseResolution": 104,
  "CoilString": "C:HEA;HEP",
  "ConversionSoftware": "dcm2niix",
  "ConversionSoftwareVersion": "v1.0.20210317",
  "DerivedVendorReportedEchoSpacing": 0.000690017,
  "DeviceSerialNumber": "35450",
  "DwellTime": 2.5e-06,
  "EchoTime": 0.0348,
  "EffectiveEchoSpacing": 0.000690017,
  "FlipAngle": 55,
  "ImageComments": "Unaliased MB8/PE3 (remote)",
  "ImageOrientationPatientDICOM": [0.999754, -0.00574006, -0.0214189, 8.63938e-09, 0.965916, -0.258856],
  "ImageType": [
    "ORIGINAL",
    "PRIMARY",
    "M",
    "MB",
    "ND",
    "MOSAIC"
],
  "ImagingFrequency": 123.234,
  "InPlanePhaseEncodingDirectionDICOM": "COL",
  "InstitutionAddress": "Univeristy Ave. 197,Newark,North East,US,07102-1814",
  "InstitutionName": "RUBIC",
  "InstitutionalDepartmentName": "Department",
  "MRAcquisitionType": "2D",
  "MagneticFieldStrength": 3,
  "Manufacturer": "Siemens",
  "ManufacturersModelName": "TrioTim",
  "Modality": "MR",
  "MultibandAccelerationFactor": 8,
  "PartialFourier": 0.875,
  "PatientPosition": "HFS",
  "PercentPhaseFOV": 100,
  "PercentSampling": 100,
  "PhaseEncodingDirection": "j-",
  "PhaseEncodingSteps": 91,
  "PhaseResolution": 1,
  "PixelBandwidth": 1923,
  "ProcedureStepDescription": "Cole^Michael",
  "ProtocolName": "cmrr_mbep2d_bold_2mm_MB8_Task_8x",
  "PulseSequenceDetails": "%CustomerSeq%\\cmrr_mbep2d_bold",
  "ReceiveCoilName": "32Ch_Head",
  "ReconMatrixPE": 104,
  "RepetitionTime": 0.785,
  "SAR": 0.14118,
  "ScanOptions": "PFP\\FS",
  "ScanningSequence": "EP",
  "SequenceName": "epfid2d1_104",
  "SequenceVariant": "SK\\SS",
  "SeriesDescription": "cmrr_mbep2d_bold_2mm_MB8_Task_8x",
  "SeriesNumber": 27,
  "ShimSetting": [2099, -369, -7322, 330, 31, -362, 427, 93],
  "SliceThickness": 2,
  "SliceTiming": [0, 0.4375, 0.0875, 0.525, 0.175, 0.6125, 0.2625, 0.7, 0.35, 0, 0.4375, 0.0875, 0.525, 0.175, 0.6125, 0.2625, 0.7, 0.35, 0, 0.4375, 0.0875, 0.525, 0.175, 0.6125, 0.2625, 0.7, 0.35, 0, 0.4375, 0.0875, 0.525, 0.175, 0.6125, 0.2625, 0.7, 0.35, 0, 0.4375, 0.0875, 0.525, 0.175, 0.6125, 0.2625, 0.7, 0.35, 0, 0.4375, 0.0875, 0.525, 0.175, 0.6125, 0.2625, 0.7, 0.35, 0, 0.4375, 0.0875, 0.525, 0.175, 0.6125, 0.2625, 0.7, 0.35, 0, 0.4375, 0.0875, 0.525, 0.175, 0.6125, 0.2625, 0.7, 0.35],
  "SoftwareVersions": "syngo MR B19",
  "SpacingBetweenSlices": 2,
  "StationName": "MRC35450",
  "TaskName": "cpro",
  "TotalReadoutTime": 0.0710717,
  "TxRefAmp": 342.455,
  "dcmmeta_affine": [
    [-1.999508261680603, 1.727876330903655e-08, -0.04434943199157715, 103.35143280029297],
    [0.011480111628770828, 1.9318320751190186, -0.5175837278366089, -68.3075942993164],
    [-0.042837824672460556, 0.5177110433578491, 1.9313570261001587, -120.01380157470703],
    [0.0, 0.0, 0.0, 1.0]
],
  "dcmmeta_reorient_transform": [
    [0.0, -1.0, 0.0, 103.0],
    [1.0, 0.0, 0.0, 0.0],
    [0.0, 0.0, 1.0, 0.0],
    [0.0, 0.0, 0.0, 1.0]
],
  "dcmmeta_shape": [104, 104, 72, 581],
  "dcmmeta_slice_dim": 2,
  "dcmmeta_version": 0.6,
  "global": {
    "const": {
      "AcquisitionMatrix": [104, 0, 0, 104],
      "AngioFlag": "N",
      "BitsAllocated": 16,
      "BitsStored": 12,
      "Columns": 936,
      "EchoNumbers": 1,
      "EchoTime": 34.8,
      "EchoTrainLength": 1,
      "FlipAngle": 55.0,
      "HighBit": 11,
      "ImageOrientationPatient": [0.9997541107618, -0.0057400556602, -0.0214189116413, 8.639382e-09, 0.96591605499928, -0.2588555092993],
      "ImagePositionPatient": [-935.14686229027, -929.53754437184, 166.49875375237],
      "ImageType": [
        "ORIGINAL",
        "PRIMARY",
        "M",
        "MB",
        "ND",
        "MOSAIC"
],
      "ImagedNucleus": "1H",
      "ImagingFrequency": 123.234471,
      "InPlanePhaseEncodingDirection": "COL",
      "MRAcquisitionType": "2D",
      "MagneticFieldStrength": 3.0,
      "Manufacturer": "SIEMENS",
      "ManufacturerModelName": "TrioTim",
      "Modality": "MR",
      "NumberOfAverages": 1.0,
      "NumberOfPhaseEncodingSteps": 91,
      "PercentPhaseFieldOfView": 100.0,
      "PercentSampling": 100.0,
      "PerformedProcedureStepStartTime": "102230.000000",
      "PhotometricInterpretation": "MONOCHROME2",
      "PixelBandwidth": 1923.0,
      "PixelRepresentation": 0,
      "PixelSpacing": [2.0, 2.0],
      "ProtocolName": "cmrr_mbep2d_bold_2mm_MB8_Task_8x",
      "RepetitionTime": 785.0,
      "Rows": 936,
      "SAR": 0.14117982885331,
      "SamplesPerPixel": 1,
      "ScanOptions": [
        "PFP",
        "FS"
],
      "ScanningSequence": "EP",
      "SequenceName": "epfid2d1_104",
      "SequenceVariant": [
        "SK",
        "SS"
],
      "SeriesDescription": "cmrr_mbep2d_bold_2mm_MB8_Task_8x",
      "SeriesNumber": 27,
      "SeriesTime": "122915.140000",
      "SliceLocation": -100.50909065418,
      "SliceThickness": 2.0,
      "SmallestImagePixelValue": 0,
      "SoftwareVersions": "syngo MR B19",
      "SpacingBetweenSlices": 1.999999961397,
      "SpecificCharacterSet": "ISO_IR 100",
      "StudyID": "1",
      "StudyTime": "102229.890000",
      "TransmitCoilName": "Body",
      "VariableFlipAngleFlag": "N",
      "WindowCenterWidthExplanation": "Algo1",
      "dBdt": 0.0},
    "slices": {}
  },
  "time": {
    "samples": {
      "AcquisitionNumber": [1, 2, 3, 4, 5, 6, 7, 8, 9, 10, 11, 12, 13, 14, 15, 16, 17, 18, 19, 20, 21, 22, 23, 24, 25, 26, 27, 28, 29, 30, 31, 32, 33, 34, 35, 36, 37, 38, 39, 40, 41, 42, 43, 44, 45, 46, 47, 48, 49, 50, 51, 52, 53, 54, 55, 56, 57, 58, 59, 60, 61, 62, 63, 64, 65, 66, 67, 68, 69, 70, 71, 72, 73, 74, 75, 76, 77, 78, 79, 80, 81, 82, 83, 84, 85, 86, 87, 88, 89, 90, 91, 92, 93, 94, 95, 96, 97, 98, 99, 100, 101, 102, 103, 104, 105, 106, 107, 108, 109, 110, 111, 112, 113, 114, 115, 116, 117, 118, 119, 120, 121, 122, 123, 124, 125, 126, 127, 128, 129, 130, 131, 132, 133, 134, 135, 136, 137, 138, 139, 140, 141, 142, 143, 144, 145, 146, 147, 148, 149, 150, 151, 152, 153, 154, 155, 156, 157, 158, 159, 160, 161, 162, 163, 164, 165, 166, 167, 168, 169, 170, 171, 172, 173, 174, 175, 176, 177, 178, 179, 180, 181, 182, 183, 184, 185, 186, 187, 188, 189, 190, 191, 192, 193, 194, 195, 196, 197, 198, 199, 200, 201, 202, 203, 204, 205, 206, 207, 208, 209, 210, 211, 212, 213, 214, 215, 216, 217, 218, 219, 220, 221, 222, 223, 224, 225, 226, 227, 228, 229, 230, 231, 232, 233, 234, 235, 236, 237, 238, 239, 240, 241, 242, 243, 244, 245, 246, 247, 248, 249, 250, 251, 252, 253, 254, 255, 256, 257, 258, 259, 260, 261, 262, 263, 264, 265, 266, 267, 268, 269, 270, 271, 272, 273, 274, 275, 276, 277, 278, 279, 280, 281, 282, 283, 284, 285, 286, 287, 288, 289, 290, 291, 292, 293, 294, 295, 296, 297, 298, 299, 300, 301, 302, 303, 304, 305, 306, 307, 308, 309, 310, 311, 312, 313, 314, 315, 316, 317, 318, 319, 320, 321, 322, 323, 324, 325, 326, 327, 328, 329, 330, 331, 332, 333, 334, 335, 336, 337, 338, 339, 340, 341, 342, 343, 344, 345, 346, 347, 348, 349, 350, 351, 352, 353, 354, 355, 356, 357, 358, 359, 360, 361, 362, 363, 364, 365, 366, 367, 368, 369, 370, 371, 372, 373, 374, 375, 376, 377, 378, 379, 380, 381, 382, 383, 384, 385, 386, 387, 388, 389, 390, 391, 392, 393, 394, 395, 396, 397, 398, 399, 400, 401, 402, 403, 404, 405, 406, 407, 408, 409, 410, 411, 412, 413, 414, 415, 416, 417, 418, 419, 420, 421, 422, 423, 424, 425, 426, 427, 428, 429, 430, 431, 432, 433, 434, 435, 436, 437, 438, 439, 440, 441, 442, 443, 444, 445, 446, 447, 448, 449, 450, 451, 452, 453, 454, 455, 456, 457, 458, 459, 460, 461, 462, 463, 464, 465, 466, 467, 468, 469, 470, 471, 472, 473, 474, 475, 476, 477, 478, 479, 480, 481, 482, 483, 484, 485, 486, 487, 488, 489, 490, 491, 492, 493, 494, 495, 496, 497, 498, 499, 500, 501, 502, 503, 504, 505, 506, 507, 508, 509, 510, 511, 512, 513, 514, 515, 516, 517, 518, 519, 520, 521, 522, 523, 524, 525, 526, 527, 528, 529, 530, 531, 532, 533, 534, 535, 536, 537, 538, 539, 540, 541, 542, 543, 544, 545, 546, 547, 548, 549, 550, 551, 552, 553, 554, 555, 556, 557, 558, 559, 560, 561, 562, 563, 564, 565, 566, 567, 568, 569, 570, 571, 572, 573, 574, 575, 576, 577, 578, 579, 580, 581],
      "AcquisitionTime": ["122854.725000", "122855.512500", "122856.300000", "122857.090000", "122857.877500", "122858.665000", "122859.452500", "122900.242500", "122901.030000", "122901.817500", "122902.605000", "122903.395000", "122904.182500", "122904.970000", "122905.757500", "122906.547500", "122907.335000", "122908.122500", "122908.910000", "122909.700000", "122910.487500", "122911.275000", "122912.065000", "122912.852500", "122913.640000", "122914.427500", "122915.217500", "122916.005000", "122916.792500", "122917.580000", "122918.370000", "122919.157500", "122919.945000", "122920.732500", "122921.522500", "122922.310000", "122923.097500", "122923.885000", "122924.675000", "122925.462500", "122926.250000", "122927.037500", "122927.827500", "122928.615000", "122929.402500", "122930.192500", "122930.980000", "122931.767500", "122932.555000", "122933.345000", "122934.132500", "122934.920000", "122935.707500", "122936.497500", "122937.285000", "122938.072500", "122938.860000", "122939.650000", "122940.437500", "122941.225000", "122942.012500", "122942.802500", "122943.590000", "122944.377500", "122945.165000", "122945.955000", "122946.742500", "122947.530000", "122948.320000", "122949.107500", "122949.895000", "122950.682500", "122951.472500", "122952.260000", "122953.047500", "122953.835000", "122954.625000", "122955.412500", "122956.200000", "122956.987500", "122957.777500", "122958.565000", "122959.352500", "123000.140000", "123000.930000", "123001.717500", "123002.505000", "123003.292500", "123004.082500", "123004.870000", "123005.657500", "123006.447500", "123007.235000", "123008.022500", "123008.810000", "123009.600000", "123010.387500", "123011.175000", "123011.962500", "123012.752500", "123013.540000", "123014.327500", "123015.115000", "123015.905000", "123016.692500", "123017.480000", "123018.267500", "123019.057500", "123019.845000", "123020.632500", "123021.420000", "123022.210000", "123022.997500", "123023.785000", "123024.575000", "123025.362500", "123026.150000", "123026.937500", "123027.727500", "123028.515000", "123029.302500", "123030.090000", "123030.880000", "123031.667500", "123032.455000", "123033.242500", "123034.032500", "123034.820000", "123035.607500", "123036.395000", "123037.185000", "123037.972500", "123038.760000", "123039.547500", "123040.337500", "123041.125000", "123041.912500", "123042.702500", "123043.490000", "123044.277500", "123045.065000", "123045.855000", "123046.642500", "123047.430000", "123048.217500", "123049.007500", "123049.795000", "123050.582500", "123051.370000", "123052.160000", "123052.947500", "123053.735000", "123054.522500", "123055.312500", "123056.100000", "123056.887500", "123057.675000", "123058.465000", "123059.252500", "123100.040000", "123100.830000", "123101.617500", "123102.405000", "123103.192500", "123103.982500", "123104.770000", "123105.557500", "123106.345000", "123107.135000", "123107.922500", "123108.710000", "123109.497500", "123110.287500", "123111.075000", "123111.862500", "123112.650000", "123113.440000", "123114.227500", "123115.015000", "123115.805000", "123116.592500", "123117.380000", "123118.167500", "123118.957500", "123119.745000", "123120.532500", "123121.320000", "123122.110000", "123122.897500", "123123.685000", "123124.472500", "123125.262500", "123126.050000", "123126.837500", "123127.625000", "123128.415000", "123129.202500", "123129.990000", "123130.777500", "123131.567500", "123132.355000", "123133.142500", "123133.932500", "123134.720000", "123135.507500", "123136.295000", "123137.085000", "123137.872500", "123138.660000", "123139.447500", "123140.237500", "123141.025000", "123141.812500", "123142.600000", "123143.390000", "123144.177500", "123144.965000", "123145.752500", "123146.542500", "123147.330000", "123148.117500", "123148.905000", "123149.695000", "123150.482500", "123151.270000", "123152.060000", "123152.847500", "123153.635000", "123154.422500", "123155.212500", "123156.000000", "123156.787500", "123157.575000", "123158.365000", "123159.152500", "123159.940000", "123200.727500", "123201.517500", "123202.305000", "123203.092500", "123203.880000", "123204.670000", "123205.457500", "123206.245000", "123207.032500", "123207.822500", "123208.610000", "123209.397500", "123210.187500", "123210.975000", "123211.762500", "123212.550000", "123213.340000", "123214.127500", "123214.915000", "123215.702500", "123216.492500", "123217.280000", "123218.067500", "123218.855000", "123219.645000", "123220.432500", "123221.220000", "123222.007500", "123222.797500", "123223.585000", "123224.372500", "123225.160000", "123225.950000", "123226.737500", "123227.525000", "123228.315000", "123229.102500", "123229.890000", "123230.677500", "123231.467500", "123232.255000", "123233.042500", "123233.830000", "123234.620000", "123235.407500", "123236.195000", "123236.982500", "123237.772500", "123238.560000", "123239.347500", "123240.135000", "123240.925000", "123241.712500", "123242.500000", "123243.287500", "123244.077500", "123244.865000", "123245.652500", "123246.442500", "123247.230000", "123248.017500", "123248.805000", "123249.595000", "123250.382500", "123251.170000", "123251.957500", "123252.747500", "123253.535000", "123254.322500", "123255.110000", "123255.900000", "123256.687500", "123257.475000", "123258.262500", "123259.052500", "123259.840000", "123300.627500", "123301.415000", "123302.205000", "123302.992500", "123303.780000", "123304.570000", "123305.357500", "123306.145000", "123306.932500", "123307.722500", "123308.510000", "123309.297500", "123310.085000", "123310.875000", "123311.662500", "123312.450000", "123313.237500", "123314.027500", "123314.815000", "123315.602500", "123316.390000", "123317.180000", "123317.967500", "123318.755000", "123319.542500", "123320.332500", "123321.120000", "123321.907500", "123322.697500", "123323.485000", "123324.272500", "123325.060000", "123325.850000", "123326.637500", "123327.425000", "123328.212500", "123329.002500", "123329.790000", "123330.577500", "123331.365000", "123332.155000", "123332.942500", "123333.730000", "123334.517500", "123335.307500", "123336.095000", "123336.882500", "123337.670000", "123338.460000", "123339.247500", "123340.035000", "123340.825000", "123341.612500", "123342.400000", "123343.187500", "123343.977500", "123344.765000", "123345.552500", "123346.340000", "123347.130000", "123347.917500", "123348.705000", "123349.492500", "123350.282500", "123351.070000", "123351.857500", "123352.645000", "123353.435000", "123354.222500", "123355.010000", "123355.797500", "123356.587500", "123357.375000", "123358.162500", "123358.952500", "123359.740000", "123400.527500", "123401.315000", "123402.105000", "123402.892500", "123403.680000", "123404.467500", "123405.257500", "123406.045000", "123406.832500", "123407.620000", "123408.410000", "123409.197500", "123409.985000", "123410.772500", "123411.562500", "123412.350000", "123413.137500", "123413.925000", "123414.715000", "123415.502500", "123416.290000", "123417.080000", "123417.867500", "123418.655000", "123419.442500", "123420.232500", "123421.020000", "123421.807500", "123422.595000", "123423.385000", "123424.172500", "123424.960000", "123425.747500", "123426.537500", "123427.325000", "123428.112500", "123428.900000", "123429.690000", "123430.477500", "123431.265000", "123432.055000", "123432.842500", "123433.630000", "123434.417500", "123435.207500", "123435.995000", "123436.782500", "123437.570000", "123438.360000", "123439.147500", "123439.935000", "123440.722500", "123441.512500", "123442.300000", "123443.087500", "123443.875000", "123444.665000", "123445.452500", "123446.240000", "123447.027500", "123447.817500", "123448.605000", "123449.392500", "123450.182500", "123450.970000", "123451.757500", "123452.545000", "123453.335000", "123454.122500", "123454.910000", "123455.697500", "123456.487500", "123457.275000", "123458.062500", "123458.850000", "123459.640000", "123500.427500", "123501.215000", "123502.002500", "123502.792500", "123503.580000", "123504.367500", "123505.155000", "123505.945000", "123506.732500", "123507.520000", "123508.310000", "123509.097500", "123509.885000", "123510.672500", "123511.462500", "123512.250000", "123513.037500", "123513.825000", "123514.615000", "123515.402500", "123516.190000", "123516.977500", "123517.767500", "123518.555000", "123519.342500", "123520.130000", "123520.920000", "123521.707500", "123522.495000", "123523.282500", "123524.072500", "123524.860000", "123525.647500", "123526.437500", "123527.225000", "123528.012500", "123528.800000", "123529.590000", "123530.377500", "123531.165000", "123531.952500", "123532.742500", "123533.530000", "123534.317500", "123535.105000", "123535.895000", "123536.682500", "123537.470000", "123538.257500", "123539.047500", "123539.835000", "123540.622500", "123541.410000", "123542.200000", "123542.987500", "123543.775000", "123544.565000", "123545.352500", "123546.140000", "123546.927500", "123547.717500", "123548.505000", "123549.292500", "123550.080000", "123550.870000", "123551.657500", "123552.445000", "123553.232500", "123554.022500", "123554.810000", "123555.597500", "123556.385000", "123557.175000", "123557.962500", "123558.750000", "123559.537500", "123600.327500", "123601.115000", "123601.902500", "123602.692500", "123603.480000", "123604.267500", "123605.055000", "123605.845000", "123606.632500", "123607.420000", "123608.207500", "123608.997500", "123609.785000", "123610.572500", "123611.360000", "123612.150000", "123612.937500", "123613.725000", "123614.512500", "123615.302500", "123616.090000", "123616.877500", "123617.665000", "123618.455000", "123619.242500", "123620.030000", "123620.820000", "123621.607500", "123622.395000", "123623.182500", "123623.972500", "123624.760000", "123625.547500", "123626.335000", "123627.125000", "123627.912500", "123628.700000", "123629.487500", "123630.277500", "123631.065000", "123631.852500"],
      "ContentTime": ["122915.140000", "122915.140000", "122915.140000", "122915.140000", "122915.140000", "122915.140000", "122915.156000", "122915.156000", "122915.156000", "122915.156000", "122915.156000", "122915.156000", "122915.171000", "122915.171000", "122915.171000", "122915.171000", "122915.171000", "122915.171000", "122915.171000", "122915.187000", "122915.187000", "122915.187000", "122915.187000", "122915.187000", "122935.109000", "122935.109000", "122935.125000", "122935.125000", "122935.125000", "122935.125000", "122935.125000", "122935.125000", "122935.125000", "122935.140000", "122935.140000", "122935.140000", "122935.140000", "122935.140000", "122935.140000", "122935.140000", "122935.140000", "122935.156000", "122935.156000", "122935.156000", "122935.156000", "122935.156000", "122935.156000", "122935.156000", "122935.171000", "122955.109000", "122955.109000", "122955.125000", "122955.125000", "122955.125000", "122955.125000", "122955.125000", "122955.125000", "122955.125000", "122955.140000", "122955.140000", "122955.140000", "122955.140000", "122955.140000", "122955.140000", "122955.140000", "122955.140000", "122955.156000", "122955.156000", "122955.156000", "122955.156000", "122955.156000", "122955.156000", "122955.156000", "122955.156000", "122955.171000", "123015.109000", "123015.125000", "123015.125000", "123015.125000", "123015.125000", "123015.125000", "123015.125000", "123015.140000", "123015.140000", "123015.140000", "123015.140000", "123015.140000", "123015.140000", "123015.140000", "123015.156000", "123015.156000", "123015.156000", "123015.156000", "123015.156000", "123015.156000", "123015.156000", "123015.156000", "123015.171000", "123015.171000", "123015.171000", "123035.109000", "123035.109000", "123035.125000", "123035.125000", "123035.125000", "123035.125000", "123035.125000", "123035.125000", "123035.125000", "123035.140000", "123035.140000", "123035.140000", "123035.140000", "123035.140000", "123035.140000", "123035.140000", "123035.140000", "123035.156000", "123035.156000", "123035.156000", "123035.156000", "123035.156000", "123035.156000", "123035.156000", "123035.171000", "123035.171000", "123055.109000", "123055.109000", "123055.125000", "123055.125000", "123055.125000", "123055.125000", "123055.125000", "123055.125000", "123055.125000", "123055.140000", "123055.140000", "123055.140000", "123055.140000", "123055.140000", "123055.140000", "123055.140000", "123055.156000", "123055.156000", "123055.156000", "123055.156000", "123055.156000", "123055.156000", "123055.156000", "123055.156000", "123055.171000", "123115.109000", "123115.109000", "123115.125000", "123115.125000", "123115.125000", "123115.125000", "123115.125000", "123115.125000", "123115.125000", "123115.140000", "123115.140000", "123115.140000", "123115.140000", "123115.140000", "123115.140000", "123115.140000", "123115.140000", "123115.156000", "123115.156000", "123115.156000", "123115.156000", "123115.156000", "123115.156000", "123115.156000", "123115.171000", "123115.171000", "123135.109000", "123135.109000", "123135.125000", "123135.125000", "123135.125000", "123135.125000", "123135.125000", "123135.125000", "123135.125000", "123135.140000", "123135.140000", "123135.140000", "123135.140000", "123135.140000", "123135.140000", "123135.140000", "123135.156000", "123135.156000", "123135.156000", "123135.156000", "123135.156000", "123135.156000", "123135.156000", "123135.171000", "123135.171000", "123155.109000", "123155.109000", "123155.125000", "123155.125000", "123155.125000", "123155.125000", "123155.125000", "123155.125000", "123155.125000", "123155.140000", "123155.140000", "123155.140000", "123155.140000", "123155.140000", "123155.140000", "123155.140000", "123155.140000", "123155.156000", "123155.156000", "123155.156000", "123155.156000", "123155.156000", "123155.156000", "123155.156000", "123155.171000", "123155.171000", "123215.109000", "123215.109000", "123215.125000", "123215.125000", "123215.125000", "123215.125000", "123215.125000", "123215.125000", "123215.125000", "123215.140000", "123215.140000", "123215.140000", "123215.140000", "123215.140000", "123215.140000", "123215.140000", "123215.156000", "123215.156000", "123215.156000", "123215.156000", "123215.156000", "123215.156000", "123215.171000", "123215.171000", "123215.171000", "123235.109000", "123235.125000", "123235.125000", "123235.125000", "123235.125000", "123235.125000", "123235.125000", "123235.125000", "123235.140000", "123235.140000", "123235.140000", "123235.140000", "123235.140000", "123235.140000", "123235.156000", "123235.156000", "123235.156000", "123235.156000", "123235.156000", "123235.156000", "123235.156000", "123235.156000", "123235.171000", "123235.171000", "123235.171000", "123255.109000", "123255.109000", "123255.125000", "123255.125000", "123255.125000", "123255.125000", "123255.125000", "123255.125000", "123255.125000", "123255.140000", "123255.140000", "123255.140000", "123255.140000", "123255.140000", "123255.140000", "123255.140000", "123255.140000", "123255.156000", "123255.156000", "123255.156000", "123255.156000", "123255.156000", "123255.156000", "123255.156000", "123255.171000", "123255.171000", "123315.109000", "123315.109000", "123315.125000", "123315.125000", "123315.125000", "123315.125000", "123315.125000", "123315.125000", "123315.125000", "123315.140000", "123315.140000", "123315.140000", "123315.140000", "123315.140000", "123315.140000", "123315.140000", "123315.140000", "123315.156000", "123315.156000", "123315.156000", "123315.156000", "123315.171000", "123315.171000", "123315.171000", "123315.171000", "123335.109000", "123335.125000", "123335.125000", "123335.125000", "123335.125000", "123335.125000", "123335.125000", "123335.125000", "123335.125000", "123335.140000", "123335.140000", "123335.140000", "123335.140000", "123335.140000", "123335.140000", "123335.140000", "123335.140000", "123335.156000", "123335.156000", "123335.156000", "123335.156000", "123335.156000", "123335.156000", "123335.156000", "123335.171000", "123335.171000", "123355.109000", "123355.125000", "123355.125000", "123355.125000", "123355.125000", "123355.125000", "123355.140000", "123355.140000", "123355.140000", "123355.140000", "123355.140000", "123355.140000", "123355.156000", "123355.156000", "123355.156000", "123355.156000", "123355.156000", "123355.156000", "123355.156000", "123355.171000", "123355.171000", "123355.171000", "123355.171000", "123355.171000", "123355.171000", "123415.109000", "123415.109000", "123415.125000", "123415.125000", "123415.125000", "123415.125000", "123415.125000", "123415.125000", "123415.125000", "123415.140000", "123415.140000", "123415.140000", "123415.140000", "123415.140000", "123415.140000", "123415.140000", "123415.140000", "123415.156000", "123415.156000", "123415.156000", "123415.156000", "123415.156000", "123415.156000", "123415.156000", "123415.171000", "123415.171000", "123435.109000", "123435.109000", "123435.125000", "123435.125000", "123435.125000", "123435.125000", "123435.125000", "123435.125000", "123435.125000", "123435.140000", "123435.140000", "123435.140000", "123435.140000", "123435.140000", "123435.140000", "123435.140000", "123435.140000", "123435.156000", "123435.156000", "123435.156000", "123435.156000", "123435.156000", "123435.156000", "123435.156000", "123435.171000", "123455.109000", "123455.109000", "123455.125000", "123455.125000", "123455.125000", "123455.125000", "123455.125000", "123455.125000", "123455.125000", "123455.140000", "123455.140000", "123455.140000", "123455.140000", "123455.140000", "123455.140000", "123455.140000", "123455.140000", "123455.156000", "123455.156000", "123455.156000", "123455.156000", "123455.156000", "123455.156000", "123455.156000", "123455.171000", "123455.171000", "123515.109000", "123515.109000", "123515.125000", "123515.125000", "123515.125000", "123515.125000", "123515.125000", "123515.125000", "123515.125000", "123515.140000", "123515.140000", "123515.140000", "123515.140000", "123515.140000", "123515.140000", "123515.140000", "123515.156000", "123515.156000", "123515.156000", "123515.156000", "123515.156000", "123515.156000", "123515.171000", "123515.171000", "123515.171000", "123535.109000", "123535.109000", "123535.125000", "123535.125000", "123535.125000", "123535.125000", "123535.125000", "123535.125000", "123535.125000", "123535.140000", "123535.140000", "123535.140000", "123535.140000", "123535.140000", "123535.140000", "123535.140000", "123535.140000", "123535.156000", "123535.156000", "123535.156000", "123535.156000", "123535.156000", "123535.156000", "123535.171000", "123535.171000", "123535.171000", "123555.109000", "123555.109000", "123555.125000", "123555.125000", "123555.125000", "123555.125000", "123555.125000", "123555.125000", "123555.125000", "123555.140000", "123555.140000", "123555.140000", "123555.140000", "123555.140000", "123555.140000", "123555.140000", "123555.140000", "123555.156000", "123555.156000", "123555.156000", "123555.156000", "123555.156000", "123555.156000", "123555.156000", "123555.171000", "123615.109000", "123615.125000", "123615.125000", "123615.125000", "123615.125000", "123615.125000", "123615.125000", "123615.125000", "123615.140000", "123615.140000", "123615.140000", "123615.140000", "123615.140000", "123615.140000", "123615.140000", "123615.156000", "123615.156000", "123615.156000", "123615.156000", "123615.156000", "123615.156000", "123615.156000", "123615.156000", "123615.171000", "123615.171000", "123615.171000", "123632.296000", "123632.312000", "123632.312000", "123632.312000", "123632.328000", "123632.328000", "123632.328000", "123632.328000", "123632.328000", "123632.328000", "123632.328000", "123632.328000", "123632.343000", "123632.343000", "123632.343000", "123632.343000", "123632.343000", "123632.343000", "123632.343000", "123632.359000", "123632.359000", "123632.359000"],
