{
  "AcquisitionMatrixPE": 104,
  "AcquisitionNumber": 1,
  "AcquisitionTime": "11:41:14.742500",
  "BandwidthPerPixelPhaseEncode": 13.935,
  "BaseResolution": 104,
  "CoilString": "C:HEA;HEP",
  "ConversionSoftware": "dcm2niix",
  "ConversionSoftwareVersion": "v1.0.20210317",
  "DerivedVendorReportedEchoSpacing": 0.000690017,
  "DeviceSerialNumber": "35450",
  "DwellTime": 2.5e-06,
  "EchoTime": 0.0348,
  "EffectiveEchoSpacing": 0.000690017,
  "FlipAngle": 55,
  "ImageComments": "Unaliased MB8/PE3 (remote)",
  "ImageOrientationPatientDICOM": [0.999754, -0.00574006, -0.0214189, 8.63938e-09, 0.965916, -0.258856],
  "ImageType": [
    "ORIGINAL",
    "PRIMARY",
    "M",
    "MB",
    "ND",
    "MOSAIC"
],
  "ImagingFrequency": 123.234,
  "InPlanePhaseEncodingDirectionDICOM": "COL",
  "InstitutionAddress": "Univeristy Ave. 197,Newark,North East,US,07102-1814",
  "InstitutionName": "RUBIC",
  "InstitutionalDepartmentName": "Department",
  "MRAcquisitionType": "2D",
  "MagneticFieldStrength": 3,
  "Manufacturer": "Siemens",
  "ManufacturersModelName": "TrioTim",
  "Modality": "MR",
  "MultibandAccelerationFactor": 8,
  "PartialFourier": 0.875,
  "PatientPosition": "HFS",
  "PercentPhaseFOV": 100,
  "PercentSampling": 100,
  "PhaseEncodingDirection": "j-",
  "PhaseEncodingSteps": 91,
  "PhaseResolution": 1,
  "PixelBandwidth": 1923,
  "ProcedureStepDescription": "Cole^Michael",
  "ProtocolName": "cmrr_mbep2d_bold_2mm_MB8_Task_8x",
  "PulseSequenceDetails": "%CustomerSeq%\\cmrr_mbep2d_bold",
  "ReceiveCoilName": "32Ch_Head",
  "ReconMatrixPE": 104,
  "RepetitionTime": 0.785,
  "SAR": 0.14118,
  "ScanOptions": "PFP\\FS",
  "ScanningSequence": "EP",
  "SequenceName": "epfid2d1_104",
  "SequenceVariant": "SK\\SS",
  "SeriesDescription": "cmrr_mbep2d_bold_2mm_MB8_Task_8x",
  "SeriesNumber": 15,
  "ShimSetting": [2099, -369, -7322, 330, 31, -362, 427, 93],
  "SliceThickness": 2,
  "SliceTiming": [0, 0.4375, 0.0875, 0.525, 0.175, 0.6125, 0.2625, 0.7, 0.35, 0, 0.4375, 0.0875, 0.525, 0.175, 0.6125, 0.2625, 0.7, 0.35, 0, 0.4375, 0.0875, 0.525, 0.175, 0.6125, 0.2625, 0.7, 0.35, 0, 0.4375, 0.0875, 0.525, 0.175, 0.6125, 0.2625, 0.7, 0.35, 0, 0.4375, 0.0875, 0.525, 0.175, 0.6125, 0.2625, 0.7, 0.35, 0, 0.4375, 0.0875, 0.525, 0.175, 0.6125, 0.2625, 0.7, 0.35, 0, 0.4375, 0.0875, 0.525, 0.175, 0.6125, 0.2625, 0.7, 0.35, 0, 0.4375, 0.0875, 0.525, 0.175, 0.6125, 0.2625, 0.7, 0.35],
  "SoftwareVersions": "syngo MR B19",
  "SpacingBetweenSlices": 2,
  "StationName": "MRC35450",
  "TaskName": "cpro",
  "TotalReadoutTime": 0.0710717,
  "TxRefAmp": 342.455,
  "dcmmeta_affine": [
    [-1.999508261680603, 1.727876330903655e-08, -0.04434943199157715, 103.35143280029297],
    [0.011480111628770828, 1.9318320751190186, -0.5175837278366089, -68.3075942993164],
    [-0.042837824672460556, 0.5177110433578491, 1.9313570261001587, -120.01380157470703],
    [0.0, 0.0, 0.0, 1.0]
],
  "dcmmeta_reorient_transform": [
    [0.0, -1.0, 0.0, 103.0],
    [1.0, 0.0, 0.0, 0.0],
    [0.0, 0.0, 1.0, 0.0],
    [0.0, 0.0, 0.0, 1.0]
],
  "dcmmeta_shape": [104, 104, 72, 581],
  "dcmmeta_slice_dim": 2,
  "dcmmeta_version": 0.6,
  "global": {
    "const": {
      "AcquisitionMatrix": [104, 0, 0, 104],
      "AngioFlag": "N",
      "BitsAllocated": 16,
      "BitsStored": 12,
      "Columns": 936,
      "EchoNumbers": 1,
      "EchoTime": 34.8,
      "EchoTrainLength": 1,
      "FlipAngle": 55.0,
      "HighBit": 11,
      "ImageOrientationPatient": [0.9997541107618, -0.0057400556602, -0.0214189116413, 8.639382e-09, 0.96591605499928, -0.2588555092993],
      "ImagePositionPatient": [-935.14686229027, -929.53754437184, 166.49875375237],
      "ImageType": [
        "ORIGINAL",
        "PRIMARY",
        "M",
        "MB",
        "ND",
        "MOSAIC"
],
      "ImagedNucleus": "1H",
      "ImagingFrequency": 123.234471,
      "InPlanePhaseEncodingDirection": "COL",
      "MRAcquisitionType": "2D",
      "MagneticFieldStrength": 3.0,
      "Manufacturer": "SIEMENS",
      "ManufacturerModelName": "TrioTim",
      "Modality": "MR",
      "NumberOfAverages": 1.0,
      "NumberOfPhaseEncodingSteps": 91,
      "PercentPhaseFieldOfView": 100.0,
      "PercentSampling": 100.0,
      "PerformedProcedureStepStartTime": "102230.000000",
      "PhotometricInterpretation": "MONOCHROME2",
      "PixelBandwidth": 1923.0,
      "PixelRepresentation": 0,
      "PixelSpacing": [2.0, 2.0],
      "ProtocolName": "cmrr_mbep2d_bold_2mm_MB8_Task_8x",
      "RepetitionTime": 785.0,
      "Rows": 936,
      "SAR": 0.14117982885331,
      "SamplesPerPixel": 1,
      "ScanOptions": [
        "PFP",
        "FS"
],
      "ScanningSequence": "EP",
      "SequenceName": "epfid2d1_104",
      "SequenceVariant": [
        "SK",
        "SS"
],
      "SeriesDescription": "cmrr_mbep2d_bold_2mm_MB8_Task_8x",
      "SeriesNumber": 15,
      "SeriesTime": "114135.140000",
      "SliceLocation": -100.50909065418,
      "SliceThickness": 2.0,
      "SmallestImagePixelValue": 0,
      "SoftwareVersions": "syngo MR B19",
      "SpacingBetweenSlices": 1.999999961397,
      "SpecificCharacterSet": "ISO_IR 100",
      "StudyID": "1",
      "StudyTime": "102229.890000",
      "TransmitCoilName": "Body",
      "VariableFlipAngleFlag": "N",
      "WindowCenterWidthExplanation": "Algo1",
      "dBdt": 0.0},
    "slices": {}
  },
  "time": {
    "samples": {
      "AcquisitionNumber": [1, 2, 3, 4, 5, 6, 7, 8, 9, 10, 11, 12, 13, 14, 15, 16, 17, 18, 19, 20, 21, 22, 23, 24, 25, 26, 27, 28, 29, 30, 31, 32, 33, 34, 35, 36, 37, 38, 39, 40, 41, 42, 43, 44, 45, 46, 47, 48, 49, 50, 51, 52, 53, 54, 55, 56, 57, 58, 59, 60, 61, 62, 63, 64, 65, 66, 67, 68, 69, 70, 71, 72, 73, 74, 75, 76, 77, 78, 79, 80, 81, 82, 83, 84, 85, 86, 87, 88, 89, 90, 91, 92, 93, 94, 95, 96, 97, 98, 99, 100, 101, 102, 103, 104, 105, 106, 107, 108, 109, 110, 111, 112, 113, 114, 115, 116, 117, 118, 119, 120, 121, 122, 123, 124, 125, 126, 127, 128, 129, 130, 131, 132, 133, 134, 135, 136, 137, 138, 139, 140, 141, 142, 143, 144, 145, 146, 147, 148, 149, 150, 151, 152, 153, 154, 155, 156, 157, 158, 159, 160, 161, 162, 163, 164, 165, 166, 167, 168, 169, 170, 171, 172, 173, 174, 175, 176, 177, 178, 179, 180, 181, 182, 183, 184, 185, 186, 187, 188, 189, 190, 191, 192, 193, 194, 195, 196, 197, 198, 199, 200, 201, 202, 203, 204, 205, 206, 207, 208, 209, 210, 211, 212, 213, 214, 215, 216, 217, 218, 219, 220, 221, 222, 223, 224, 225, 226, 227, 228, 229, 230, 231, 232, 233, 234, 235, 236, 237, 238, 239, 240, 241, 242, 243, 244, 245, 246, 247, 248, 249, 250, 251, 252, 253, 254, 255, 256, 257, 258, 259, 260, 261, 262, 263, 264, 265, 266, 267, 268, 269, 270, 271, 272, 273, 274, 275, 276, 277, 278, 279, 280, 281, 282, 283, 284, 285, 286, 287, 288, 289, 290, 291, 292, 293, 294, 295, 296, 297, 298, 299, 300, 301, 302, 303, 304, 305, 306, 307, 308, 309, 310, 311, 312, 313, 314, 315, 316, 317, 318, 319, 320, 321, 322, 323, 324, 325, 326, 327, 328, 329, 330, 331, 332, 333, 334, 335, 336, 337, 338, 339, 340, 341, 342, 343, 344, 345, 346, 347, 348, 349, 350, 351, 352, 353, 354, 355, 356, 357, 358, 359, 360, 361, 362, 363, 364, 365, 366, 367, 368, 369, 370, 371, 372, 373, 374, 375, 376, 377, 378, 379, 380, 381, 382, 383, 384, 385, 386, 387, 388, 389, 390, 391, 392, 393, 394, 395, 396, 397, 398, 399, 400, 401, 402, 403, 404, 405, 406, 407, 408, 409, 410, 411, 412, 413, 414, 415, 416, 417, 418, 419, 420, 421, 422, 423, 424, 425, 426, 427, 428, 429, 430, 431, 432, 433, 434, 435, 436, 437, 438, 439, 440, 441, 442, 443, 444, 445, 446, 447, 448, 449, 450, 451, 452, 453, 454, 455, 456, 457, 458, 459, 460, 461, 462, 463, 464, 465, 466, 467, 468, 469, 470, 471, 472, 473, 474, 475, 476, 477, 478, 479, 480, 481, 482, 483, 484, 485, 486, 487, 488, 489, 490, 491, 492, 493, 494, 495, 496, 497, 498, 499, 500, 501, 502, 503, 504, 505, 506, 507, 508, 509, 510, 511, 512, 513, 514, 515, 516, 517, 518, 519, 520, 521, 522, 523, 524, 525, 526, 527, 528, 529, 530, 531, 532, 533, 534, 535, 536, 537, 538, 539, 540, 541, 542, 543, 544, 545, 546, 547, 548, 549, 550, 551, 552, 553, 554, 555, 556, 557, 558, 559, 560, 561, 562, 563, 564, 565, 566, 567, 568, 569, 570, 571, 572, 573, 574, 575, 576, 577, 578, 579, 580, 581],
      "AcquisitionTime": ["114114.742500", "114115.532500", "114116.320000", "114117.107500", "114117.895000", "114118.685000", "114119.472500", "114120.260000", "114121.047500", "114121.837500", "114122.625000", "114123.412500", "114124.200000", "114124.990000", "114125.777500", "114126.565000", "114127.355000", "114128.142500", "114128.930000", "114129.717500", "114130.507500", "114131.295000", "114132.082500", "114132.870000", "114133.660000", "114134.447500", "114135.235000", "114136.022500", "114136.812500", "114137.600000", "114138.387500", "114139.175000", "114139.965000", "114140.752500", "114141.540000", "114142.327500", "114143.117500", "114143.905000", "114144.692500", "114145.482500", "114146.270000", "114147.057500", "114147.845000", "114148.635000", "114149.422500", "114150.210000", "114150.997500", "114151.787500", "114152.575000", "114153.362500", "114154.150000", "114154.940000", "114155.727500", "114156.515000", "114157.302500", "114158.092500", "114158.880000", "114159.667500", "114200.455000", "114201.245000", "114202.032500", "114202.820000", "114203.610000", "114204.397500", "114205.185000", "114205.972500", "114206.762500", "114207.550000", "114208.337500", "114209.125000", "114209.915000", "114210.702500", "114211.490000", "114212.277500", "114213.067500", "114213.855000", "114214.642500", "114215.430000", "114216.220000", "114217.007500", "114217.795000", "114218.582500", "114219.372500", "114220.160000", "114220.947500", "114221.737500", "114222.525000", "114223.312500", "114224.100000", "114224.890000", "114225.677500", "114226.465000", "114227.252500", "114228.042500", "114228.830000", "114229.617500", "114230.405000", "114231.195000", "114231.982500", "114232.770000", "114233.557500", "114234.347500", "114235.135000", "114235.922500", "114236.710000", "114237.500000", "114238.287500", "114239.075000", "114239.865000", "114240.652500", "114241.440000", "114242.227500", "114243.017500", "114243.805000", "114244.592500", "114245.380000", "114246.170000", "114246.957500", "114247.745000", "114248.532500", "114249.322500", "114250.110000", "114250.897500", "114251.685000", "114252.475000", "114253.262500", "114254.050000", "114254.837500", "114255.627500", "114256.415000", "114257.202500", "114257.992500", "114258.780000", "114259.567500", "114300.355000", "114301.145000", "114301.932500", "114302.720000", "114303.507500", "114304.297500", "114305.085000", "114305.872500", "114306.660000", "114307.450000", "114308.237500", "114309.025000", "114309.812500", "114310.602500", "114311.390000", "114312.177500", "114312.965000", "114313.755000", "114314.542500", "114315.330000", "114316.120000", "114316.907500", "114317.695000", "114318.482500", "114319.272500", "114320.060000", "114320.847500", "114321.635000", "114322.425000", "114323.212500", "114324.000000", "114324.787500", "114325.577500", "114326.365000", "114327.152500", "114327.940000", "114328.730000", "114329.517500", "114330.305000", "114331.092500", "114331.882500", "114332.670000", "114333.457500", "114334.247500", "114335.035000", "114335.822500", "114336.610000", "114337.400000", "114338.187500", "114338.975000", "114339.762500", "114340.552500", "114341.340000", "114342.127500", "114342.915000", "114343.705000", "114344.492500", "114345.280000", "114346.067500", "114346.857500", "114347.645000", "114348.432500", "114349.222500", "114350.010000", "114350.797500", "114351.585000", "114352.375000", "114353.162500", "114353.950000", "114354.737500", "114355.527500", "114356.315000", "114357.102500", "114357.890000", "114358.680000", "114359.467500", "114400.255000", "114401.042500", "114401.832500", "114402.620000", "114403.407500", "114404.195000", "114404.985000", "114405.772500", "114406.560000", "114407.350000", "114408.137500", "114408.925000", "114409.712500", "114410.502500", "114411.290000", "114412.077500", "114412.865000", "114413.655000", "114414.442500", "114415.230000", "114416.017500", "114416.807500", "114417.595000", "114418.382500", "114419.170000", "114419.960000", "114420.747500", "114421.535000", "114422.322500", "114423.112500", "114423.900000", "114424.687500", "114425.477500", "114426.265000", "114427.052500", "114427.840000", "114428.630000", "114429.417500", "114430.205000", "114430.992500", "114431.782500", "114432.570000", "114433.357500", "114434.145000", "114434.935000", "114435.722500", "114436.510000", "114437.297500", "114438.087500", "114438.875000", "114439.662500", "114440.450000", "114441.240000", "114442.027500", "114442.815000", "114443.605000", "114444.392500", "114445.180000", "114445.967500", "114446.757500", "114447.545000", "114448.332500", "114449.120000", "114449.910000", "114450.697500", "114451.485000", "114452.272500", "114453.062500", "114453.850000", "114454.637500", "114455.425000", "114456.215000", "114457.002500", "114457.790000", "114458.577500", "114459.367500", "114500.155000", "114500.942500", "114501.732500", "114502.520000", "114503.307500", "114504.095000", "114504.885000", "114505.672500", "114506.460000", "114507.247500", "114508.037500", "114508.825000", "114509.612500", "114510.400000", "114511.190000", "114511.977500", "114512.765000", "114513.552500", "114514.342500", "114515.130000", "114515.917500", "114516.705000", "114517.495000", "114518.282500", "114519.070000", "114519.860000", "114520.647500", "114521.435000", "114522.222500", "114523.012500", "114523.800000", "114524.587500", "114525.375000", "114526.165000", "114526.952500", "114527.740000", "114528.527500", "114529.317500", "114530.105000", "114530.892500", "114531.680000", "114532.470000", "114533.257500", "114534.045000", "114534.832500", "114535.622500", "114536.410000", "114537.197500", "114537.987500", "114538.775000", "114539.562500", "114540.350000", "114541.140000", "114541.927500", "114542.715000", "114543.502500", "114544.292500", "114545.080000", "114545.867500", "114546.655000", "114547.445000", "114548.232500", "114549.020000", "114549.807500", "114550.597500", "114551.385000", "114552.172500", "114552.960000", "114553.750000", "114554.537500", "114555.325000", "114556.115000", "114556.902500", "114557.690000", "114558.477500", "114559.267500", "114600.055000", "114600.842500", "114601.630000", "114602.420000", "114603.207500", "114603.995000", "114604.782500", "114605.572500", "114606.360000", "114607.147500", "114607.935000", "114608.725000", "114609.512500", "114610.300000", "114611.087500", "114611.877500", "114612.665000", "114613.452500", "114614.242500", "114615.030000", "114615.817500", "114616.605000", "114617.395000", "114618.182500", "114618.970000", "114619.757500", "114620.547500", "114621.335000", "114622.122500", "114622.910000", "114623.700000", "114624.487500", "114625.275000", "114626.062500", "114626.852500", "114627.640000", "114628.427500", "114629.215000", "114630.005000", "114630.792500", "114631.580000", "114632.370000", "114633.157500", "114633.945000", "114634.732500", "114635.522500", "114636.310000", "114637.097500", "114637.885000", "114638.675000", "114639.462500", "114640.250000", "114641.037500", "114641.827500", "114642.615000", "114643.402500", "114644.190000", "114644.980000", "114645.767500", "114646.555000", "114647.342500", "114648.132500", "114648.920000", "114649.707500", "114650.497500", "114651.285000", "114652.072500", "114652.860000", "114653.650000", "114654.437500", "114655.225000", "114656.012500", "114656.802500", "114657.590000", "114658.377500", "114659.165000", "114659.955000", "114700.742500", "114701.530000", "114702.317500", "114703.107500", "114703.895000", "114704.682500", "114705.472500", "114706.260000", "114707.047500", "114707.835000", "114708.625000", "114709.412500", "114710.200000", "114710.987500", "114711.777500", "114712.565000", "114713.352500", "114714.140000", "114714.930000", "114715.717500", "114716.505000", "114717.292500", "114718.082500", "114718.870000", "114719.657500", "114720.445000", "114721.235000", "114722.022500", "114722.810000", "114723.600000", "114724.387500", "114725.175000", "114725.962500", "114726.752500", "114727.540000", "114728.327500", "114729.115000", "114729.905000", "114730.692500", "114731.480000", "114732.267500", "114733.057500", "114733.845000", "114734.632500", "114735.420000", "114736.210000", "114736.997500", "114737.785000", "114738.572500", "114739.362500", "114740.150000", "114740.937500", "114741.727500", "114742.515000", "114743.302500", "114744.090000", "114744.880000", "114745.667500", "114746.455000", "114747.242500", "114748.032500", "114748.820000", "114749.607500", "114750.395000", "114751.185000", "114751.972500", "114752.760000", "114753.547500", "114754.337500", "114755.125000", "114755.912500", "114756.700000", "114757.490000", "114758.277500", "114759.065000", "114759.855000", "114800.642500", "114801.430000", "114802.217500", "114803.007500", "114803.795000", "114804.582500", "114805.370000", "114806.160000", "114806.947500", "114807.735000", "114808.522500", "114809.312500", "114810.100000", "114810.887500", "114811.675000", "114812.465000", "114813.252500", "114814.040000", "114814.827500", "114815.617500", "114816.405000", "114817.192500", "114817.982500", "114818.770000", "114819.557500", "114820.345000", "114821.135000", "114821.922500", "114822.710000", "114823.497500", "114824.287500", "114825.075000", "114825.862500", "114826.650000", "114827.440000", "114828.227500", "114829.015000", "114829.802500", "114830.592500", "114831.380000", "114832.167500", "114832.955000", "114833.745000", "114834.532500", "114835.320000", "114836.110000", "114836.897500", "114837.685000", "114838.472500", "114839.262500", "114840.050000", "114840.837500", "114841.625000", "114842.415000", "114843.202500", "114843.990000", "114844.777500", "114845.567500", "114846.355000", "114847.142500", "114847.930000", "114848.720000", "114849.507500", "114850.295000", "114851.082500", "114851.872500"],
      "ContentTime": ["114135.140000", "114135.140000", "114135.140000", "114135.140000", "114135.140000", "114135.140000", "114135.156000", "114135.156000", "114135.156000", "114135.156000", "114135.156000", "114135.156000", "114135.156000", "114135.156000", "114135.171000", "114135.171000", "114135.171000", "114135.171000", "114135.171000", "114135.187000", "114135.187000", "114135.187000", "114135.187000", "114135.187000", "114155.109000", "114155.109000", "114155.125000", "114155.125000", "114155.125000", "114155.125000", "114155.125000", "114155.125000", "114155.125000", "114155.140000", "114155.140000", "114155.140000", "114155.140000", "114155.140000", "114155.140000", "114155.140000", "114155.140000", "114155.156000", "114155.156000", "114155.156000", "114155.156000", "114155.156000", "114155.156000", "114155.156000", "114155.171000", "114215.109000", "114215.109000", "114215.125000", "114215.125000", "114215.125000", "114215.125000", "114215.125000", "114215.140000", "114215.140000", "114215.140000", "114215.140000", "114215.140000", "114215.140000", "114215.140000", "114215.140000", "114215.156000", "114215.156000", "114215.156000", "114215.156000", "114215.156000", "114215.156000", "114215.156000", "114215.156000", "114215.171000", "114215.171000", "114215.171000", "114235.109000", "114235.109000", "114235.125000", "114235.125000", "114235.125000", "114235.125000", "114235.125000", "114235.125000", "114235.125000", "114235.140000", "114235.140000", "114235.140000", "114235.140000", "114235.140000", "114235.140000", "114235.140000", "114235.156000", "114235.156000", "114235.156000", "114235.156000", "114235.156000", "114235.156000", "114235.156000", "114235.156000", "114235.171000", "114255.109000", "114255.109000", "114255.125000", "114255.125000", "114255.125000", "114255.125000", "114255.140000", "114255.140000", "114255.140000", "114255.140000", "114255.140000", "114255.140000", "114255.140000", "114255.156000", "114255.156000", "114255.156000", "114255.156000", "114255.156000", "114255.156000", "114255.156000", "114255.171000", "114255.171000", "114255.171000", "114255.171000", "114255.171000", "114315.109000", "114315.109000", "114315.125000", "114315.125000", "114315.125000", "114315.125000", "114315.125000", "114315.125000", "114315.125000", "114315.140000", "114315.140000", "114315.140000", "114315.140000", "114315.140000", "114315.140000", "114315.140000", "114315.140000", "114315.156000", "114315.156000", "114315.156000", "114315.156000", "114315.156000", "114315.156000", "114315.156000", "114315.171000", "114315.171000", "114335.109000", "114335.125000", "114335.125000", "114335.125000", "114335.125000", "114335.125000", "114335.125000", "114335.125000", "114335.125000", "114335.140000", "114335.140000", "114335.140000", "114335.140000", "114335.140000", "114335.140000", "114335.156000", "114335.156000", "114335.156000", "114335.156000", "114335.156000", "114335.156000", "114335.171000", "114335.171000", "114335.171000", "114335.171000", "114335.171000", "114355.109000", "114355.109000", "114355.125000", "114355.125000", "114355.125000", "114355.125000", "114355.125000", "114355.125000", "114355.125000", "114355.140000", "114355.140000", "114355.140000", "114355.140000", "114355.140000", "114355.140000", "114355.140000", "114355.140000", "114355.156000", "114355.156000", "114355.156000", "114355.156000", "114355.156000", "114355.156000", "114355.156000", "114355.171000", "114415.109000", "114415.109000", "114415.125000", "114415.125000", "114415.125000", "114415.125000", "114415.125000", "114415.125000", "114415.125000", "114415.140000", "114415.140000", "114415.140000", "114415.140000", "114415.140000", "114415.140000", "114415.140000", "114415.140000", "114415.156000", "114415.156000", "114415.156000", "114415.156000", "114415.156000", "114415.156000", "114415.156000", "114415.171000", "114415.171000", "114435.109000", "114435.109000", "114435.125000", "114435.125000", "114435.125000", "114435.125000", "114435.125000", "114435.125000", "114435.125000", "114435.140000", "114435.140000", "114435.140000", "114435.140000", "114435.140000", "114435.140000", "114435.156000", "114435.156000", "114435.156000", "114435.156000", "114435.156000", "114435.156000", "114435.156000", "114435.156000", "114435.171000", "114435.171000", "114455.109000", "114455.109000", "114455.125000", "114455.125000", "114455.125000", "114455.125000", "114455.125000", "114455.125000", "114455.125000", "114455.140000", "114455.140000", "114455.156000", "114455.156000", "114455.156000", "114455.156000", "114455.156000", "114455.156000", "114455.156000", "114455.171000", "114455.171000", "114455.171000", "114455.171000", "114455.171000", "114455.171000", "114455.171000", "114515.109000", "114515.109000", "114515.125000", "114515.125000", "114515.125000", "114515.125000", "114515.125000", "114515.125000", "114515.125000", "114515.140000", "114515.140000", "114515.140000", "114515.140000", "114515.140000", "114515.140000", "114515.140000", "114515.140000", "114515.156000", "114515.156000", "114515.156000", "114515.156000", "114515.156000", "114515.156000", "114515.156000", "114515.171000", "114515.171000", "114535.109000", "114535.125000", "114535.125000", "114535.125000", "114535.125000", "114535.125000", "114535.125000", "114535.125000", "114535.125000", "114535.140000", "114535.140000", "114535.140000", "114535.140000", "114535.140000", "114535.156000", "114535.156000", "114535.156000", "114535.156000", "114535.171000", "114535.171000", "114535.171000", "114535.171000", "114535.171000", "114535.171000", "114535.171000", "114555.109000", "114555.125000", "114555.125000", "114555.125000", "114555.125000", "114555.125000", "114555.125000", "114555.125000", "114555.125000", "114555.140000", "114555.140000", "114555.140000", "114555.140000", "114555.140000", "114555.140000", "114555.140000", "114555.156000", "114555.156000", "114555.156000", "114555.156000", "114555.156000", "114555.156000", "114555.156000", "114555.156000", "114555.171000", "114555.171000", "114615.109000", "114615.125000", "114615.125000", "114615.125000", "114615.125000", "114615.125000", "114615.125000", "114615.125000", "114615.125000", "114615.140000", "114615.140000", "114615.140000", "114615.140000", "114615.140000", "114615.140000", "114615.140000", "114615.156000", "114615.156000", "114615.156000", "114615.156000", "114615.156000", "114615.156000", "114615.156000", "114615.171000", "114615.171000", "114635.109000", "114635.109000", "114635.125000", "114635.125000", "114635.125000", "114635.125000", "114635.125000", "114635.125000", "114635.125000", "114635.140000", "114635.140000", "114635.140000", "114635.140000", "114635.140000", "114635.140000", "114635.140000", "114635.156000", "114635.156000", "114635.156000", "114635.156000", "114635.156000", "114635.156000", "114635.156000", "114635.171000", "114635.171000", "114635.171000", "114655.109000", "114655.109000", "114655.125000", "114655.125000", "114655.125000", "114655.125000", "114655.125000", "114655.125000", "114655.125000", "114655.140000", "114655.140000", "114655.140000", "114655.140000", "114655.140000", "114655.140000", "114655.140000", "114655.156000", "114655.156000", "114655.156000", "114655.156000", "114655.156000", "114655.156000", "114655.171000", "114655.171000", "114655.171000", "114715.109000", "114715.109000", "114715.125000", "114715.125000", "114715.125000", "114715.125000", "114715.125000", "114715.125000", "114715.125000", "114715.140000", "114715.140000", "114715.140000", "114715.140000", "114715.140000", "114715.140000", "114715.140000", "114715.156000", "114715.156000", "114715.156000", "114715.156000", "114715.156000", "114715.156000", "114715.171000", "114715.171000", "114715.171000", "114715.171000", "114735.109000", "114735.109000", "114735.125000", "114735.125000", "114735.125000", "114735.125000", "114735.125000", "114735.125000", "114735.125000", "114735.140000", "114735.140000", "114735.140000", "114735.140000", "114735.140000", "114735.140000", "114735.140000", "114735.140000", "114735.156000", "114735.156000", "114735.156000", "114735.156000", "114735.156000", "114735.156000", "114735.156000", "114735.171000", "114755.109000", "114755.109000", "114755.125000", "114755.125000", "114755.125000", "114755.125000", "114755.125000", "114755.125000", "114755.125000", "114755.140000", "114755.140000", "114755.140000", "114755.140000", "114755.140000", "114755.140000", "114755.140000", "114755.156000", "114755.156000", "114755.156000", "114755.156000", "114755.156000", "114755.156000", "114755.156000", "114755.156000", "114755.171000", "114755.171000", "114815.109000", "114815.109000", "114815.125000", "114815.125000", "114815.125000", "114815.140000", "114815.140000", "114815.140000", "114815.140000", "114815.140000", "114815.140000", "114815.140000", "114815.156000", "114815.156000", "114815.156000", "114815.156000", "114815.156000", "114815.171000", "114815.171000", "114815.171000", "114815.171000", "114815.171000", "114815.171000", "114815.171000", "114815.171000", "114835.109000", "114835.109000", "114835.125000", "114835.125000", "114835.125000", "114835.125000", "114835.125000", "114835.125000", "114835.125000", "114835.140000", "114835.140000", "114835.140000", "114835.140000", "114835.140000", "114835.140000", "114835.140000", "114835.156000", "114835.156000", "114835.156000", "114835.156000", "114835.156000", "114835.156000", "114835.156000", "114835.156000", "114835.171000", "114835.171000", "114852.125000", "114852.125000", "114852.140000", "114852.140000", "114852.140000", "114852.140000", "114852.140000", "114852.140000", "114852.140000", "114852.156000", "114852.156000", "114852.156000", "114852.156000", "114852.156000", "114852.156000", "114852.156000", "114852.156000", "114852.171000", "114852.171000", "114852.171000", "114852.171000", "114852.171000"],
