{
  "AcquisitionMatrixPE": 104,
  "AcquisitionNumber": 1,
  "AcquisitionTime": "11:08:8.915000",
  "BandwidthPerPixelPhaseEncode": 13.935,
  "BaseResolution": 104,
  "CoilString": "C:HEA;HEP",
  "ConversionSoftware": "dcm2niix",
  "ConversionSoftwareVersion": "v1.0.20210317",
  "DerivedVendorReportedEchoSpacing": 0.000690017,
  "DeviceSerialNumber": "35450",
  "DwellTime": 2.5e-06,
  "EchoTime": 0.0348,
  "EffectiveEchoSpacing": 0.000690017,
  "FlipAngle": 55,
  "ImageComments": "Unaliased MB8/PE3 (remote)",
  "ImageOrientationPatientDICOM": [0.999754, -0.00574006, -0.0214189, 8.63938e-09, 0.965916, -0.258856],
  "ImageType": [
    "ORIGINAL",
    "PRIMARY",
    "M",
    "MB",
    "ND",
    "MOSAIC"
],
  "ImagingFrequency": 123.234,
  "InPlanePhaseEncodingDirectionDICOM": "COL",
  "InstitutionAddress": "Univeristy Ave. 197,Newark,North East,US,07102-1814",
  "InstitutionName": "RUBIC",
  "InstitutionalDepartmentName": "Department",
  "MRAcquisitionType": "2D",
  "MagneticFieldStrength": 3,
  "Manufacturer": "Siemens",
  "ManufacturersModelName": "TrioTim",
  "Modality": "MR",
  "MultibandAccelerationFactor": 8,
  "PartialFourier": 0.875,
  "PatientPosition": "HFS",
  "PercentPhaseFOV": 100,
  "PercentSampling": 100,
  "PhaseEncodingDirection": "j-",
  "PhaseEncodingSteps": 91,
  "PhaseResolution": 1,
  "PixelBandwidth": 1923,
  "ProcedureStepDescription": "Cole^Michael",
  "ProtocolName": "cmrr_mbep2d_bold_2mm_MB8_Rest",
  "PulseSequenceDetails": "%CustomerSeq%\\cmrr_mbep2d_bold",
  "ReceiveCoilName": "32Ch_Head",
  "ReconMatrixPE": 104,
  "RepetitionTime": 0.785,
  "SAR": 0.139288,
  "ScanOptions": "PFP\\FS",
  "ScanningSequence": "EP",
  "SequenceName": "epfid2d1_104",
  "SequenceVariant": "SK\\SS",
  "SeriesDescription": "cmrr_mbep2d_bold_2mm_MB8_Rest",
  "SeriesNumber": 9,
  "ShimSetting": [2099, -369, -7322, 330, 31, -362, 427, 93],
  "SliceThickness": 2,
  "SliceTiming": [0, 0.4375, 0.0875, 0.525, 0.175, 0.6125, 0.2625, 0.7, 0.35, 0, 0.4375, 0.0875, 0.525, 0.175, 0.6125, 0.2625, 0.7, 0.35, 0, 0.4375, 0.0875, 0.525, 0.175, 0.6125, 0.2625, 0.7, 0.35, 0, 0.4375, 0.0875, 0.525, 0.175, 0.6125, 0.2625, 0.7, 0.35, 0, 0.4375, 0.0875, 0.525, 0.175, 0.6125, 0.2625, 0.7, 0.35, 0, 0.4375, 0.0875, 0.525, 0.175, 0.6125, 0.2625, 0.7, 0.35, 0, 0.4375, 0.0875, 0.525, 0.175, 0.6125, 0.2625, 0.7, 0.35, 0, 0.4375, 0.0875, 0.525, 0.175, 0.6125, 0.2625, 0.7, 0.35],
  "SoftwareVersions": "syngo MR B19",
  "SpacingBetweenSlices": 2,
  "StationName": "MRC35450",
  "TaskName": "rest",
  "TotalReadoutTime": 0.0710717,
  "TxRefAmp": 342.455,
  "dcmmeta_affine": [
    [-1.999508261680603, 1.727876330903655e-08, -0.04434943199157715, 103.35143280029297],
    [0.011480111628770828, 1.9318320751190186, -0.5175837278366089, -68.3075942993164],
    [-0.042837824672460556, 0.5177110433578491, 1.9313570261001587, -120.01380157470703],
    [0.0, 0.0, 0.0, 1.0]
],
  "dcmmeta_reorient_transform": [
    [0.0, -1.0, 0.0, 103.0],
    [1.0, 0.0, 0.0, 0.0],
    [0.0, 0.0, 1.0, 0.0],
    [0.0, 0.0, 0.0, 1.0]
],
  "dcmmeta_shape": [104, 104, 72, 1070],
  "dcmmeta_slice_dim": 2,
  "dcmmeta_version": 0.6,
  "global": {
    "const": {
      "AcquisitionMatrix": [104, 0, 0, 104],
      "AngioFlag": "N",
      "BitsAllocated": 16,
      "BitsStored": 12,
      "Columns": 936,
      "EchoNumbers": 1,
      "EchoTime": 34.8,
      "EchoTrainLength": 1,
      "FlipAngle": 55.0,
      "HighBit": 11,
      "ImageOrientationPatient": [0.9997541107618, -0.0057400556602, -0.0214189116413, 8.639382e-09, 0.96591605499928, -0.2588555092993],
      "ImagePositionPatient": [-935.14686229027, -929.53754437184, 166.49875375237],
      "ImageType": [
        "ORIGINAL",
        "PRIMARY",
        "M",
        "MB",
        "ND",
        "MOSAIC"
],
      "ImagedNucleus": "1H",
      "ImagingFrequency": 123.234406,
      "InPlanePhaseEncodingDirection": "COL",
      "MRAcquisitionType": "2D",
      "MagneticFieldStrength": 3.0,
      "Manufacturer": "SIEMENS",
      "ManufacturerModelName": "TrioTim",
      "Modality": "MR",
      "NumberOfAverages": 1.0,
      "NumberOfPhaseEncodingSteps": 91,
      "PercentPhaseFieldOfView": 100.0,
      "PercentSampling": 100.0,
      "PerformedProcedureStepStartTime": "102230.000000",
      "PhotometricInterpretation": "MONOCHROME2",
      "PixelBandwidth": 1923.0,
      "PixelRepresentation": 0,
      "PixelSpacing": [2.0, 2.0],
      "ProtocolName": "cmrr_mbep2d_bold_2mm_MB8_Rest",
      "RepetitionTime": 785.0,
      "Rows": 936,
      "SAR": 0.13928820330192,
      "SamplesPerPixel": 1,
      "ScanOptions": [
        "PFP",
        "FS"
],
      "ScanningSequence": "EP",
      "SequenceName": "epfid2d1_104",
      "SequenceVariant": [
        "SK",
        "SS"
],
      "SeriesDescription": "cmrr_mbep2d_bold_2mm_MB8_Rest",
      "SeriesNumber": 9,
      "SeriesTime": "110835.140000",
      "SliceLocation": -100.50909065418,
      "SliceThickness": 2.0,
      "SmallestImagePixelValue": 0,
      "SoftwareVersions": "syngo MR B19",
      "SpacingBetweenSlices": 1.999999961397,
      "SpecificCharacterSet": "ISO_IR 100",
      "StudyID": "1",
      "StudyTime": "102229.890000",
      "TransmitCoilName": "Body",
      "VariableFlipAngleFlag": "N",
      "WindowCenterWidthExplanation": "Algo1",
      "dBdt": 0.0},
    "slices": {}
  },
  "time": {
    "samples": {
      "AcquisitionNumber": [1, 2, 3, 4, 5, 6, 7, 8, 9, 10, 11, 12, 13, 14, 15, 16, 17, 18, 19, 20, 21, 22, 23, 24, 25, 26, 27, 28, 29, 30, 31, 32, 33, 34, 35, 36, 37, 38, 39, 40, 41, 42, 43, 44, 45, 46, 47, 48, 49, 50, 51, 52, 53, 54, 55, 56, 57, 58, 59, 60, 61, 62, 63, 64, 65, 66, 67, 68, 69, 70, 71, 72, 73, 74, 75, 76, 77, 78, 79, 80, 81, 82, 83, 84, 85, 86, 87, 88, 89, 90, 91, 92, 93, 94, 95, 96, 97, 98, 99, 100, 101, 102, 103, 104, 105, 106, 107, 108, 109, 110, 111, 112, 113, 114, 115, 116, 117, 118, 119, 120, 121, 122, 123, 124, 125, 126, 127, 128, 129, 130, 131, 132, 133, 134, 135, 136, 137, 138, 139, 140, 141, 142, 143, 144, 145, 146, 147, 148, 149, 150, 151, 152, 153, 154, 155, 156, 157, 158, 159, 160, 161, 162, 163, 164, 165, 166, 167, 168, 169, 170, 171, 172, 173, 174, 175, 176, 177, 178, 179, 180, 181, 182, 183, 184, 185, 186, 187, 188, 189, 190, 191, 192, 193, 194, 195, 196, 197, 198, 199, 200, 201, 202, 203, 204, 205, 206, 207, 208, 209, 210, 211, 212, 213, 214, 215, 216, 217, 218, 219, 220, 221, 222, 223, 224, 225, 226, 227, 228, 229, 230, 231, 232, 233, 234, 235, 236, 237, 238, 239, 240, 241, 242, 243, 244, 245, 246, 247, 248, 249, 250, 251, 252, 253, 254, 255, 256, 257, 258, 259, 260, 261, 262, 263, 264, 265, 266, 267, 268, 269, 270, 271, 272, 273, 274, 275, 276, 277, 278, 279, 280, 281, 282, 283, 284, 285, 286, 287, 288, 289, 290, 291, 292, 293, 294, 295, 296, 297, 298, 299, 300, 301, 302, 303, 304, 305, 306, 307, 308, 309, 310, 311, 312, 313, 314, 315, 316, 317, 318, 319, 320, 321, 322, 323, 324, 325, 326, 327, 328, 329, 330, 331, 332, 333, 334, 335, 336, 337, 338, 339, 340, 341, 342, 343, 344, 345, 346, 347, 348, 349, 350, 351, 352, 353, 354, 355, 356, 357, 358, 359, 360, 361, 362, 363, 364, 365, 366, 367, 368, 369, 370, 371, 372, 373, 374, 375, 376, 377, 378, 379, 380, 381, 382, 383, 384, 385, 386, 387, 388, 389, 390, 391, 392, 393, 394, 395, 396, 397, 398, 399, 400, 401, 402, 403, 404, 405, 406, 407, 408, 409, 410, 411, 412, 413, 414, 415, 416, 417, 418, 419, 420, 421, 422, 423, 424, 425, 426, 427, 428, 429, 430, 431, 432, 433, 434, 435, 436, 437, 438, 439, 440, 441, 442, 443, 444, 445, 446, 447, 448, 449, 450, 451, 452, 453, 454, 455, 456, 457, 458, 459, 460, 461, 462, 463, 464, 465, 466, 467, 468, 469, 470, 471, 472, 473, 474, 475, 476, 477, 478, 479, 480, 481, 482, 483, 484, 485, 486, 487, 488, 489, 490, 491, 492, 493, 494, 495, 496, 497, 498, 499, 500, 501, 502, 503, 504, 505, 506, 507, 508, 509, 510, 511, 512, 513, 514, 515, 516, 517, 518, 519, 520, 521, 522, 523, 524, 525, 526, 527, 528, 529, 530, 531, 532, 533, 534, 535, 536, 537, 538, 539, 540, 541, 542, 543, 544, 545, 546, 547, 548, 549, 550, 551, 552, 553, 554, 555, 556, 557, 558, 559, 560, 561, 562, 563, 564, 565, 566, 567, 568, 569, 570, 571, 572, 573, 574, 575, 576, 577, 578, 579, 580, 581, 582, 583, 584, 585, 586, 587, 588, 589, 590, 591, 592, 593, 594, 595, 596, 597, 598, 599, 600, 601, 602, 603, 604, 605, 606, 607, 608, 609, 610, 611, 612, 613, 614, 615, 616, 617, 618, 619, 620, 621, 622, 623, 624, 625, 626, 627, 628, 629, 630, 631, 632, 633, 634, 635, 636, 637, 638, 639, 640, 641, 642, 643, 644, 645, 646, 647, 648, 649, 650, 651, 652, 653, 654, 655, 656, 657, 658, 659, 660, 661, 662, 663, 664, 665, 666, 667, 668, 669, 670, 671, 672, 673, 674, 675, 676, 677, 678, 679, 680, 681, 682, 683, 684, 685, 686, 687, 688, 689, 690, 691, 692, 693, 694, 695, 696, 697, 698, 699, 700, 701, 702, 703, 704, 705, 706, 707, 708, 709, 710, 711, 712, 713, 714, 715, 716, 717, 718, 719, 720, 721, 722, 723, 724, 725, 726, 727, 728, 729, 730, 731, 732, 733, 734, 735, 736, 737, 738, 739, 740, 741, 742, 743, 744, 745, 746, 747, 748, 749, 750, 751, 752, 753, 754, 755, 756, 757, 758, 759, 760, 761, 762, 763, 764, 765, 766, 767, 768, 769, 770, 771, 772, 773, 774, 775, 776, 777, 778, 779, 780, 781, 782, 783, 784, 785, 786, 787, 788, 789, 790, 791, 792, 793, 794, 795, 796, 797, 798, 799, 800, 801, 802, 803, 804, 805, 806, 807, 808, 809, 810, 811, 812, 813, 814, 815, 816, 817, 818, 819, 820, 821, 822, 823, 824, 825, 826, 827, 828, 829, 830, 831, 832, 833, 834, 835, 836, 837, 838, 839, 840, 841, 842, 843, 844, 845, 846, 847, 848, 849, 850, 851, 852, 853, 854, 855, 856, 857, 858, 859, 860, 861, 862, 863, 864, 865, 866, 867, 868, 869, 870, 871, 872, 873, 874, 875, 876, 877, 878, 879, 880, 881, 882, 883, 884, 885, 886, 887, 888, 889, 890, 891, 892, 893, 894, 895, 896, 897, 898, 899, 900, 901, 902, 903, 904, 905, 906, 907, 908, 909, 910, 911, 912, 913, 914, 915, 916, 917, 918, 919, 920, 921, 922, 923, 924, 925, 926, 927, 928, 929, 930, 931, 932, 933, 934, 935, 936, 937, 938, 939, 940, 941, 942, 943, 944, 945, 946, 947, 948, 949, 950, 951, 952, 953, 954, 955, 956, 957, 958, 959, 960, 961, 962, 963, 964, 965, 966, 967, 968, 969, 970, 971, 972, 973, 974, 975, 976, 977, 978, 979, 980, 981, 982, 983, 984, 985, 986, 987, 988, 989, 990, 991, 992, 993, 994, 995, 996, 997, 998, 999, 1000, 1001, 1002, 1003, 1004, 1005, 1006, 1007, 1008, 1009, 1010, 1011, 1012, 1013, 1014, 1015, 1016, 1017, 1018, 1019, 1020, 1021, 1022, 1023, 1024, 1025, 1026, 1027, 1028, 1029, 1030, 1031, 1032, 1033, 1034, 1035, 1036, 1037, 1038, 1039, 1040, 1041, 1042, 1043, 1044, 1045, 1046, 1047, 1048, 1049, 1050, 1051, 1052, 1053, 1054, 1055, 1056, 1057, 1058, 1059, 1060, 1061, 1062, 1063, 1064, 1065, 1066, 1067, 1068, 1069, 1070],
      "AcquisitionTime": ["110808.915000", "110809.702500", "110810.492500", "110811.280000", "110812.067500", "110812.855000", "110813.645000", "110814.432500", "110815.220000", "110816.007500", "110816.797500", "110817.585000", "110818.372500", "110819.162500", "110819.950000", "110820.737500", "110821.525000", "110822.315000", "110823.102500", "110823.890000", "110824.677500", "110825.467500", "110826.255000", "110827.042500", "110827.830000", "110828.620000", "110829.407500", "110830.195000", "110830.982500", "110831.772500", "110832.560000", "110833.347500", "110834.135000", "110834.925000", "110835.712500", "110836.500000", "110837.290000", "110838.077500", "110838.865000", "110839.652500", "110840.442500", "110841.230000", "110842.017500", "110842.805000", "110843.595000", "110844.382500", "110845.170000", "110845.957500", "110846.747500", "110847.535000", "110848.322500", "110849.110000", "110849.900000", "110850.687500", "110851.475000", "110852.262500", "110853.052500", "110853.840000", "110854.627500", "110855.417500", "110856.205000", "110856.992500", "110857.780000", "110858.570000", "110859.357500", "110900.145000", "110900.932500", "110901.722500", "110902.510000", "110903.297500", "110904.085000", "110904.875000", "110905.662500", "110906.450000", "110907.237500", "110908.027500", "110908.815000", "110909.602500", "110910.390000", "110911.180000", "110911.967500", "110912.755000", "110913.545000", "110914.332500", "110915.120000", "110915.907500", "110916.697500", "110917.485000", "110918.272500", "110919.060000", "110919.850000", "110920.637500", "110921.425000", "110922.212500", "110923.002500", "110923.790000", "110924.577500", "110925.365000", "110926.155000", "110926.942500", "110927.730000", "110928.517500", "110929.307500", "110930.095000", "110930.882500", "110931.672500", "110932.460000", "110933.247500", "110934.035000", "110934.825000", "110935.612500", "110936.400000", "110937.187500", "110937.977500", "110938.765000", "110939.552500", "110940.340000", "110941.130000", "110941.917500", "110942.705000", "110943.492500", "110944.282500", "110945.070000", "110945.857500", "110946.645000", "110947.435000", "110948.222500", "110949.010000", "110949.800000", "110950.587500", "110951.375000", "110952.162500", "110952.952500", "110953.740000", "110954.527500", "110955.315000", "110956.105000", "110956.892500", "110957.680000", "110958.467500", "110959.257500", "111000.045000", "111000.832500", "111001.620000", "111002.410000", "111003.197500", "111003.985000", "111004.772500", "111005.562500", "111006.350000", "111007.137500", "111007.927500", "111008.715000", "111009.502500", "111010.290000", "111011.080000", "111011.867500", "111012.655000", "111013.442500", "111014.232500", "111015.020000", "111015.807500", "111016.595000", "111017.385000", "111018.172500", "111018.960000", "111019.747500", "111020.537500", "111021.325000", "111022.112500", "111022.902500", "111023.690000", "111024.477500", "111025.265000", "111026.055000", "111026.842500", "111027.630000", "111028.417500", "111029.207500", "111029.995000", "111030.782500", "111031.570000", "111032.360000", "111033.147500", "111033.935000", "111034.722500", "111035.512500", "111036.300000", "111037.087500", "111037.875000", "111038.665000", "111039.452500", "111040.240000", "111041.030000", "111041.817500", "111042.605000", "111043.392500", "111044.182500", "111044.970000", "111045.757500", "111046.545000", "111047.335000", "111048.122500", "111048.910000", "111049.697500", "111050.487500", "111051.275000", "111052.062500", "111052.850000", "111053.640000", "111054.427500", "111055.215000", "111056.002500", "111056.792500", "111057.580000", "111058.367500", "111059.157500", "111059.945000", "111100.732500", "111101.520000", "111102.310000", "111103.097500", "111103.885000", "111104.672500", "111105.462500", "111106.250000", "111107.037500", "111107.825000", "111108.615000", "111109.402500", "111110.190000", "111110.977500", "111111.767500", "111112.555000", "111113.342500", "111114.130000", "111114.920000", "111115.707500", "111116.495000", "111117.285000", "111118.072500", "111118.860000", "111119.647500", "111120.437500", "111121.225000", "111122.012500", "111122.800000", "111123.590000", "111124.377500", "111125.165000", "111125.952500", "111126.742500", "111127.530000", "111128.317500", "111129.105000", "111129.895000", "111130.682500", "111131.470000", "111132.257500", "111133.047500", "111133.835000", "111134.622500", "111135.412500", "111136.200000", "111136.987500", "111137.775000", "111138.565000", "111139.352500", "111140.140000", "111140.927500", "111141.717500", "111142.505000", "111143.292500", "111144.080000", "111144.870000", "111145.657500", "111146.445000", "111147.232500", "111148.022500", "111148.810000", "111149.597500", "111150.385000", "111151.175000", "111151.962500", "111152.750000", "111153.540000", "111154.327500", "111155.115000", "111155.902500", "111156.692500", "111157.480000", "111158.267500", "111159.055000", "111159.845000", "111200.632500", "111201.420000", "111202.207500", "111202.997500", "111203.785000", "111204.572500", "111205.360000", "111206.150000", "111206.937500", "111207.725000", "111208.512500", "111209.302500", "111210.090000", "111210.877500", "111211.667500", "111212.455000", "111213.242500", "111214.030000", "111214.820000", "111215.607500", "111216.395000", "111217.182500", "111217.972500", "111218.760000", "111219.547500", "111220.335000", "111221.125000", "111221.912500", "111222.700000", "111223.487500", "111224.277500", "111225.065000", "111225.852500", "111226.640000", "111227.430000", "111228.217500", "111229.005000", "111229.795000", "111230.582500", "111231.370000", "111232.157500", "111232.947500", "111233.735000", "111234.522500", "111235.310000", "111236.100000", "111236.887500", "111237.675000", "111238.462500", "111239.252500", "111240.040000", "111240.827500", "111241.615000", "111242.405000", "111243.192500", "111243.980000", "111244.767500", "111245.557500", "111246.345000", "111247.132500", "111247.922500", "111248.710000", "111249.497500", "111250.285000", "111251.075000", "111251.862500", "111252.650000", "111253.437500", "111254.227500", "111255.015000", "111255.802500", "111256.590000", "111257.380000", "111258.167500", "111258.955000", "111259.742500", "111300.532500", "111301.320000", "111302.107500", "111302.895000", "111303.685000", "111304.472500", "111305.260000", "111306.050000", "111306.837500", "111307.625000", "111308.412500", "111309.202500", "111309.990000", "111310.777500", "111311.565000", "111312.355000", "111313.142500", "111313.930000", "111314.717500", "111315.507500", "111316.295000", "111317.082500", "111317.870000", "111318.660000", "111319.447500", "111320.235000", "111321.022500", "111321.812500", "111322.600000", "111323.387500", "111324.177500", "111324.965000", "111325.752500", "111326.540000", "111327.330000", "111328.117500", "111328.905000", "111329.692500", "111330.482500", "111331.270000", "111332.057500", "111332.845000", "111333.635000", "111334.422500", "111335.210000", "111335.997500", "111336.787500", "111337.575000", "111338.362500", "111339.152500", "111339.940000", "111340.727500", "111341.515000", "111342.305000", "111343.092500", "111343.880000", "111344.667500", "111345.457500", "111346.245000", "111347.032500", "111347.820000", "111348.610000", "111349.397500", "111350.185000", "111350.972500", "111351.762500", "111352.550000", "111353.337500", "111354.125000", "111354.915000", "111355.702500", "111356.490000", "111357.280000", "111358.067500", "111358.855000", "111359.642500", "111400.432500", "111401.220000", "111402.007500", "111402.795000", "111403.585000", "111404.372500", "111405.160000", "111405.947500", "111406.737500", "111407.525000", "111408.312500", "111409.100000", "111409.890000", "111410.677500", "111411.465000", "111412.252500", "111413.042500", "111413.830000", "111414.617500", "111415.407500", "111416.195000", "111416.982500", "111417.770000", "111418.560000", "111419.347500", "111420.135000", "111420.922500", "111421.712500", "111422.500000", "111423.287500", "111424.075000", "111424.865000", "111425.652500", "111426.440000", "111427.227500", "111428.017500", "111428.805000", "111429.592500", "111430.380000", "111431.170000", "111431.957500", "111432.745000", "111433.535000", "111434.322500", "111435.110000", "111435.897500", "111436.687500", "111437.475000", "111438.262500", "111439.050000", "111439.840000", "111440.627500", "111441.415000", "111442.202500", "111442.992500", "111443.780000", "111444.567500", "111445.355000", "111446.145000", "111446.932500", "111447.720000", "111448.507500", "111449.297500", "111450.085000", "111450.872500", "111451.662500", "111452.450000", "111453.237500", "111454.025000", "111454.815000", "111455.602500", "111456.390000", "111457.177500", "111457.967500", "111458.755000", "111459.542500", "111500.330000", "111501.120000", "111501.907500", "111502.695000", "111503.482500", "111504.272500", "111505.060000", "111505.847500", "111506.635000", "111507.425000", "111508.212500", "111509.000000", "111509.790000", "111510.577500", "111511.365000", "111512.152500", "111512.942500", "111513.730000", "111514.517500", "111515.305000", "111516.095000", "111516.882500", "111517.670000", "111518.457500", "111519.247500", "111520.035000", "111520.822500", "111521.610000", "111522.400000", "111523.187500", "111523.975000", "111524.762500", "111525.552500", "111526.340000", "111527.127500", "111527.917500", "111528.705000", "111529.492500", "111530.280000", "111531.070000", "111531.857500", "111532.645000", "111533.432500", "111534.222500", "111535.010000", "111535.797500", "111536.585000", "111537.375000", "111538.162500", "111538.950000", "111539.737500", "111540.527500", "111541.315000", "111542.102500", "111542.890000", "111543.680000", "111544.467500", "111545.255000", "111546.045000", "111546.832500", "111547.620000", "111548.407500", "111549.197500", "111549.985000", "111550.772500", "111551.560000", "111552.350000", "111553.137500", "111553.925000", "111554.712500", "111555.502500", "111556.290000", "111557.077500", "111557.865000", "111558.655000", "111559.442500", "111600.230000", "111601.017500", "111601.807500", "111602.595000", "111603.382500", "111604.172500", "111604.960000", "111605.747500", "111606.535000", "111607.325000", "111608.112500", "111608.900000", "111609.687500", "111610.477500", "111611.265000", "111612.052500", "111612.840000", "111613.630000", "111614.417500", "111615.205000", "111615.992500", "111616.782500", "111617.570000", "111618.357500", "111619.145000", "111619.935000", "111620.722500", "111621.510000", "111622.300000", "111623.087500", "111623.875000", "111624.662500", "111625.452500", "111626.240000", "111627.027500", "111627.815000", "111628.605000", "111629.392500", "111630.180000", "111630.967500", "111631.757500", "111632.545000", "111633.332500", "111634.120000", "111634.910000", "111635.697500", "111636.485000", "111637.272500", "111638.062500", "111638.850000", "111639.637500", "111640.427500", "111641.215000", "111642.002500", "111642.790000", "111643.580000", "111644.367500", "111645.155000", "111645.942500", "111646.732500", "111647.520000", "111648.307500", "111649.095000", "111649.885000", "111650.672500", "111651.460000", "111652.247500", "111653.037500", "111653.825000", "111654.612500", "111655.402500", "111656.190000", "111656.977500", "111657.765000", "111658.555000", "111659.342500", "111700.130000", "111700.917500", "111701.707500", "111702.495000", "111703.282500", "111704.070000", "111704.860000", "111705.647500", "111706.435000", "111707.222500", "111708.012500", "111708.800000", "111709.587500", "111710.375000", "111711.165000", "111711.952500", "111712.740000", "111713.530000", "111714.317500", "111715.105000", "111715.892500", "111716.682500", "111717.470000", "111718.257500", "111719.045000", "111719.835000", "111720.622500", "111721.410000", "111722.197500", "111722.987500", "111723.775000", "111724.562500", "111725.350000", "111726.140000", "111726.927500", "111727.715000", "111728.502500", "111729.292500", "111730.080000", "111730.867500", "111731.657500", "111732.445000", "111733.232500", "111734.020000", "111734.810000", "111735.597500", "111736.385000", "111737.172500", "111737.962500", "111738.750000", "111739.537500", "111740.325000", "111741.115000", "111741.902500", "111742.690000", "111743.477500", "111744.267500", "111745.055000", "111745.842500", "111746.630000", "111747.420000", "111748.207500", "111748.995000", "111749.785000", "111750.572500", "111751.360000", "111752.147500", "111752.937500", "111753.725000", "111754.512500", "111755.300000", "111756.090000", "111756.877500", "111757.665000", "111758.452500", "111759.242500", "111800.030000", "111800.817500", "111801.605000", "111802.395000", "111803.182500", "111803.970000", "111804.757500", "111805.547500", "111806.335000", "111807.122500", "111807.912500", "111808.700000", "111809.487500", "111810.275000", "111811.065000", "111811.852500", "111812.640000", "111813.427500", "111814.217500", "111815.005000", "111815.792500", "111816.580000", "111817.370000", "111818.157500", "111818.945000", "111819.732500", "111820.522500", "111821.310000", "111822.097500", "111822.885000", "111823.675000", "111824.462500", "111825.250000", "111826.040000", "111826.827500", "111827.615000", "111828.402500", "111829.192500", "111829.980000", "111830.767500", "111831.555000", "111832.345000", "111833.132500", "111833.920000", "111834.707500", "111835.497500", "111836.285000", "111837.072500", "111837.860000", "111838.650000", "111839.437500", "111840.225000", "111841.012500", "111841.802500", "111842.590000", "111843.377500", "111844.167500", "111844.955000", "111845.742500", "111846.530000", "111847.320000", "111848.107500", "111848.895000", "111849.682500", "111850.472500", "111851.260000", "111852.047500", "111852.835000", "111853.625000", "111854.412500", "111855.200000", "111855.987500", "111856.777500", "111857.565000", "111858.352500", "111859.140000", "111859.930000", "111900.717500", "111901.505000", "111902.295000", "111903.082500", "111903.870000", "111904.657500", "111905.447500", "111906.235000", "111907.022500", "111907.810000", "111908.600000", "111909.387500", "111910.175000", "111910.962500", "111911.752500", "111912.540000", "111913.327500", "111914.115000", "111914.905000", "111915.692500", "111916.480000", "111917.267500", "111918.057500", "111918.845000", "111919.632500", "111920.422500", "111921.210000", "111921.997500", "111922.785000", "111923.575000", "111924.362500", "111925.150000", "111925.937500", "111926.727500", "111927.515000", "111928.302500", "111929.090000", "111929.880000", "111930.667500", "111931.455000", "111932.242500", "111933.032500", "111933.820000", "111934.607500", "111935.395000", "111936.185000", "111936.972500", "111937.760000", "111938.550000", "111939.337500", "111940.125000", "111940.912500", "111941.702500", "111942.490000", "111943.277500", "111944.065000", "111944.855000", "111945.642500", "111946.430000", "111947.217500", "111948.007500", "111948.795000", "111949.582500", "111950.370000", "111951.160000", "111951.947500", "111952.735000", "111953.522500", "111954.312500", "111955.100000", "111955.887500", "111956.677500", "111957.465000", "111958.252500", "111959.040000", "111959.830000", "112000.617500", "112001.405000", "112002.192500", "112002.982500", "112003.770000", "112004.557500", "112005.345000", "112006.135000", "112006.922500", "112007.710000", "112008.497500", "112009.287500", "112010.075000", "112010.862500", "112011.652500", "112012.440000", "112013.227500", "112014.015000", "112014.805000", "112015.592500", "112016.380000", "112017.167500", "112017.957500", "112018.745000", "112019.532500", "112020.320000", "112021.110000", "112021.897500", "112022.685000", "112023.472500", "112024.262500", "112025.050000", "112025.837500", "112026.625000", "112027.415000", "112028.202500", "112028.990000", "112029.780000", "112030.567500", "112031.355000", "112032.142500", "112032.932500", "112033.720000", "112034.507500", "112035.295000", "112036.085000", "112036.872500", "112037.660000", "112038.447500", "112039.237500", "112040.025000", "112040.812500", "112041.600000", "112042.390000", "112043.177500", "112043.965000", "112044.752500", "112045.542500", "112046.330000", "112047.117500", "112047.907500", "112048.695000", "112049.482500", "112050.270000", "112051.060000", "112051.847500", "112052.635000", "112053.422500", "112054.212500", "112055.000000", "112055.787500", "112056.575000", "112057.365000", "112058.152500", "112058.940000", "112059.727500", "112100.517500", "112101.305000", "112102.092500", "112102.880000", "112103.670000", "112104.457500", "112105.245000", "112106.035000", "112106.822500", "112107.610000", "112108.397500", "112109.187500", "112109.975000", "112110.762500", "112111.550000", "112112.340000", "112113.127500", "112113.915000", "112114.702500", "112115.492500", "112116.280000", "112117.067500", "112117.855000", "112118.645000", "112119.432500", "112120.220000", "112121.007500", "112121.797500", "112122.585000", "112123.372500", "112124.162500", "112124.950000", "112125.737500", "112126.525000", "112127.315000", "112128.102500", "112128.890000", "112129.677500", "112130.467500", "112131.255000", "112132.042500", "112132.830000", "112133.620000", "112134.407500", "112135.195000", "112135.982500", "112136.772500", "112137.560000", "112138.347500", "112139.135000", "112139.925000", "112140.712500", "112141.500000", "112142.290000", "112143.077500", "112143.865000", "112144.652500", "112145.442500", "112146.230000", "112147.017500", "112147.805000", "112148.595000", "112149.382500", "112150.170000", "112150.957500", "112151.747500", "112152.535000", "112153.322500", "112154.110000", "112154.900000", "112155.687500", "112156.475000", "112157.262500", "112158.052500", "112158.840000", "112159.627500", "112200.417500", "112201.205000", "112201.992500", "112202.780000", "112203.570000", "112204.357500", "112205.145000", "112205.932500", "112206.722500", "112207.510000", "112208.297500", "112209.085000", "112209.875000", "112210.662500", "112211.450000"],
