{
  "AcquisitionMatrixPE": 104,
  "AcquisitionNumber": 1,
  "AcquisitionTime": "12:13:2.725000",
  "BandwidthPerPixelPhaseEncode": 13.935,
  "BaseResolution": 104,
  "CoilString": "C:HEA;HEP",
  "ConversionSoftware": "dcm2niix",
  "ConversionSoftwareVersion": "v1.0.20210317",
  "DerivedVendorReportedEchoSpacing": 0.000690017,
  "DeviceSerialNumber": "35450",
  "DwellTime": 2.5e-06,
  "EchoTime": 0.0348,
  "EffectiveEchoSpacing": 0.000690017,
  "FlipAngle": 55,
  "ImageComments": "Unaliased MB8/PE3 (remote)",
  "ImageOrientationPatientDICOM": [0.999754, -0.00574006, -0.0214189, 8.63938e-09, 0.965916, -0.258856],
  "ImageType": [
    "ORIGINAL",
    "PRIMARY",
    "M",
    "MB",
    "ND",
    "MOSAIC"
],
  "ImagingFrequency": 123.234,
  "InPlanePhaseEncodingDirectionDICOM": "COL",
  "InstitutionAddress": "Univeristy Ave. 197,Newark,North East,US,07102-1814",
  "InstitutionName": "RUBIC",
  "InstitutionalDepartmentName": "Department",
  "MRAcquisitionType": "2D",
  "MagneticFieldStrength": 3,
  "Manufacturer": "Siemens",
  "ManufacturersModelName": "TrioTim",
  "Modality": "MR",
  "MultibandAccelerationFactor": 8,
  "PartialFourier": 0.875,
  "PatientPosition": "HFS",
  "PercentPhaseFOV": 100,
  "PercentSampling": 100,
  "PhaseEncodingDirection": "j-",
  "PhaseEncodingSteps": 91,
  "PhaseResolution": 1,
  "PixelBandwidth": 1923,
  "ProcedureStepDescription": "Cole^Michael",
  "ProtocolName": "cmrr_mbep2d_bold_2mm_MB8_Task_8x",
  "PulseSequenceDetails": "%CustomerSeq%\\cmrr_mbep2d_bold",
  "ReceiveCoilName": "32Ch_Head",
  "ReconMatrixPE": 104,
  "RepetitionTime": 0.785,
  "SAR": 0.14118,
  "ScanOptions": "PFP\\FS",
  "ScanningSequence": "EP",
  "SequenceName": "epfid2d1_104",
  "SequenceVariant": "SK\\SS",
  "SeriesDescription": "cmrr_mbep2d_bold_2mm_MB8_Task_8x",
  "SeriesNumber": 23,
  "ShimSetting": [2099, -369, -7322, 330, 31, -362, 427, 93],
  "SliceThickness": 2,
  "SliceTiming": [0, 0.4375, 0.0875, 0.525, 0.175, 0.6125, 0.2625, 0.7, 0.35, 0, 0.4375, 0.0875, 0.525, 0.175, 0.6125, 0.2625, 0.7, 0.35, 0, 0.4375, 0.0875, 0.525, 0.175, 0.6125, 0.2625, 0.7, 0.35, 0, 0.4375, 0.0875, 0.525, 0.175, 0.6125, 0.2625, 0.7, 0.35, 0, 0.4375, 0.0875, 0.525, 0.175, 0.6125, 0.2625, 0.7, 0.35, 0, 0.4375, 0.0875, 0.525, 0.175, 0.6125, 0.2625, 0.7, 0.35, 0, 0.4375, 0.0875, 0.525, 0.175, 0.6125, 0.2625, 0.7, 0.35, 0, 0.4375, 0.0875, 0.525, 0.175, 0.6125, 0.2625, 0.7, 0.35],
  "SoftwareVersions": "syngo MR B19",
  "SpacingBetweenSlices": 2,
  "StationName": "MRC35450",
  "TaskName": "cpro",
  "TotalReadoutTime": 0.0710717,
  "TxRefAmp": 342.455,
  "dcmmeta_affine": [
    [-1.999508261680603, 1.727876330903655e-08, -0.04434943199157715, 103.35143280029297],
    [0.011480111628770828, 1.9318320751190186, -0.5175837278366089, -68.3075942993164],
    [-0.042837824672460556, 0.5177110433578491, 1.9313570261001587, -120.01380157470703],
    [0.0, 0.0, 0.0, 1.0]
],
  "dcmmeta_reorient_transform": [
    [0.0, -1.0, 0.0, 103.0],
    [1.0, 0.0, 0.0, 0.0],
    [0.0, 0.0, 1.0, 0.0],
    [0.0, 0.0, 0.0, 1.0]
],
  "dcmmeta_shape": [104, 104, 72, 581],
  "dcmmeta_slice_dim": 2,
  "dcmmeta_version": 0.6,
  "global": {
    "const": {
      "AcquisitionMatrix": [104, 0, 0, 104],
      "AngioFlag": "N",
      "BitsAllocated": 16,
      "BitsStored": 12,
      "Columns": 936,
      "EchoNumbers": 1,
      "EchoTime": 34.8,
      "EchoTrainLength": 1,
      "FlipAngle": 55.0,
      "HighBit": 11,
      "ImageOrientationPatient": [0.9997541107618, -0.0057400556602, -0.0214189116413, 8.639382e-09, 0.96591605499928, -0.2588555092993],
      "ImagePositionPatient": [-935.14686229027, -929.53754437184, 166.49875375237],
      "ImageType": [
        "ORIGINAL",
        "PRIMARY",
        "M",
        "MB",
        "ND",
        "MOSAIC"
],
      "ImagedNucleus": "1H",
      "ImagingFrequency": 123.234471,
      "InPlanePhaseEncodingDirection": "COL",
      "MRAcquisitionType": "2D",
      "MagneticFieldStrength": 3.0,
      "Manufacturer": "SIEMENS",
      "ManufacturerModelName": "TrioTim",
      "Modality": "MR",
      "NumberOfAverages": 1.0,
      "NumberOfPhaseEncodingSteps": 91,
      "PercentPhaseFieldOfView": 100.0,
      "PercentSampling": 100.0,
      "PerformedProcedureStepStartTime": "102230.000000",
      "PhotometricInterpretation": "MONOCHROME2",
      "PixelBandwidth": 1923.0,
      "PixelRepresentation": 0,
      "PixelSpacing": [2.0, 2.0],
      "ProtocolName": "cmrr_mbep2d_bold_2mm_MB8_Task_8x",
      "RepetitionTime": 785.0,
      "Rows": 936,
      "SAR": 0.14117982885331,
      "SamplesPerPixel": 1,
      "ScanOptions": [
        "PFP",
        "FS"
],
      "ScanningSequence": "EP",
      "SequenceName": "epfid2d1_104",
      "SequenceVariant": [
        "SK",
        "SS"
],
      "SeriesDescription": "cmrr_mbep2d_bold_2mm_MB8_Task_8x",
      "SeriesNumber": 23,
      "SeriesTime": "121335.125000",
      "SliceLocation": -100.50909065418,
      "SliceThickness": 2.0,
      "SmallestImagePixelValue": 0,
      "SoftwareVersions": "syngo MR B19",
      "SpacingBetweenSlices": 1.999999961397,
      "SpecificCharacterSet": "ISO_IR 100",
      "StudyID": "1",
      "StudyTime": "102229.890000",
      "TransmitCoilName": "Body",
      "VariableFlipAngleFlag": "N",
      "WindowCenterWidthExplanation": "Algo1",
      "dBdt": 0.0},
    "slices": {}
  },
  "time": {
    "samples": {
      "AcquisitionNumber": [1, 2, 3, 4, 5, 6, 7, 8, 9, 10, 11, 12, 13, 14, 15, 16, 17, 18, 19, 20, 21, 22, 23, 24, 25, 26, 27, 28, 29, 30, 31, 32, 33, 34, 35, 36, 37, 38, 39, 40, 41, 42, 43, 44, 45, 46, 47, 48, 49, 50, 51, 52, 53, 54, 55, 56, 57, 58, 59, 60, 61, 62, 63, 64, 65, 66, 67, 68, 69, 70, 71, 72, 73, 74, 75, 76, 77, 78, 79, 80, 81, 82, 83, 84, 85, 86, 87, 88, 89, 90, 91, 92, 93, 94, 95, 96, 97, 98, 99, 100, 101, 102, 103, 104, 105, 106, 107, 108, 109, 110, 111, 112, 113, 114, 115, 116, 117, 118, 119, 120, 121, 122, 123, 124, 125, 126, 127, 128, 129, 130, 131, 132, 133, 134, 135, 136, 137, 138, 139, 140, 141, 142, 143, 144, 145, 146, 147, 148, 149, 150, 151, 152, 153, 154, 155, 156, 157, 158, 159, 160, 161, 162, 163, 164, 165, 166, 167, 168, 169, 170, 171, 172, 173, 174, 175, 176, 177, 178, 179, 180, 181, 182, 183, 184, 185, 186, 187, 188, 189, 190, 191, 192, 193, 194, 195, 196, 197, 198, 199, 200, 201, 202, 203, 204, 205, 206, 207, 208, 209, 210, 211, 212, 213, 214, 215, 216, 217, 218, 219, 220, 221, 222, 223, 224, 225, 226, 227, 228, 229, 230, 231, 232, 233, 234, 235, 236, 237, 238, 239, 240, 241, 242, 243, 244, 245, 246, 247, 248, 249, 250, 251, 252, 253, 254, 255, 256, 257, 258, 259, 260, 261, 262, 263, 264, 265, 266, 267, 268, 269, 270, 271, 272, 273, 274, 275, 276, 277, 278, 279, 280, 281, 282, 283, 284, 285, 286, 287, 288, 289, 290, 291, 292, 293, 294, 295, 296, 297, 298, 299, 300, 301, 302, 303, 304, 305, 306, 307, 308, 309, 310, 311, 312, 313, 314, 315, 316, 317, 318, 319, 320, 321, 322, 323, 324, 325, 326, 327, 328, 329, 330, 331, 332, 333, 334, 335, 336, 337, 338, 339, 340, 341, 342, 343, 344, 345, 346, 347, 348, 349, 350, 351, 352, 353, 354, 355, 356, 357, 358, 359, 360, 361, 362, 363, 364, 365, 366, 367, 368, 369, 370, 371, 372, 373, 374, 375, 376, 377, 378, 379, 380, 381, 382, 383, 384, 385, 386, 387, 388, 389, 390, 391, 392, 393, 394, 395, 396, 397, 398, 399, 400, 401, 402, 403, 404, 405, 406, 407, 408, 409, 410, 411, 412, 413, 414, 415, 416, 417, 418, 419, 420, 421, 422, 423, 424, 425, 426, 427, 428, 429, 430, 431, 432, 433, 434, 435, 436, 437, 438, 439, 440, 441, 442, 443, 444, 445, 446, 447, 448, 449, 450, 451, 452, 453, 454, 455, 456, 457, 458, 459, 460, 461, 462, 463, 464, 465, 466, 467, 468, 469, 470, 471, 472, 473, 474, 475, 476, 477, 478, 479, 480, 481, 482, 483, 484, 485, 486, 487, 488, 489, 490, 491, 492, 493, 494, 495, 496, 497, 498, 499, 500, 501, 502, 503, 504, 505, 506, 507, 508, 509, 510, 511, 512, 513, 514, 515, 516, 517, 518, 519, 520, 521, 522, 523, 524, 525, 526, 527, 528, 529, 530, 531, 532, 533, 534, 535, 536, 537, 538, 539, 540, 541, 542, 543, 544, 545, 546, 547, 548, 549, 550, 551, 552, 553, 554, 555, 556, 557, 558, 559, 560, 561, 562, 563, 564, 565, 566, 567, 568, 569, 570, 571, 572, 573, 574, 575, 576, 577, 578, 579, 580, 581],
      "AcquisitionTime": ["121302.725000", "121303.512500", "121304.300000", "121305.087500", "121305.877500", "121306.665000", "121307.452500", "121308.242500", "121309.030000", "121309.817500", "121310.605000", "121311.395000", "121312.182500", "121312.970000", "121313.757500", "121314.547500", "121315.335000", "121316.122500", "121316.910000", "121317.700000", "121318.487500", "121319.275000", "121320.062500", "121320.852500", "121321.640000", "121322.427500", "121323.215000", "121324.005000", "121324.792500", "121325.580000", "121326.370000", "121327.157500", "121327.945000", "121328.732500", "121329.522500", "121330.310000", "121331.097500", "121331.885000", "121332.675000", "121333.462500", "121334.250000", "121335.037500", "121335.827500", "121336.615000", "121337.402500", "121338.190000", "121338.980000", "121339.767500", "121340.555000", "121341.342500", "121342.132500", "121342.920000", "121343.707500", "121344.497500", "121345.285000", "121346.072500", "121346.860000", "121347.650000", "121348.437500", "121349.225000", "121350.012500", "121350.802500", "121351.590000", "121352.377500", "121353.165000", "121353.955000", "121354.742500", "121355.530000", "121356.317500", "121357.107500", "121357.895000", "121358.682500", "121359.470000", "121400.260000", "121401.047500", "121401.835000", "121402.625000", "121403.412500", "121404.200000", "121404.987500", "121405.777500", "121406.565000", "121407.352500", "121408.140000", "121408.930000", "121409.717500", "121410.505000", "121411.292500", "121412.082500", "121412.870000", "121413.657500", "121414.445000", "121415.235000", "121416.022500", "121416.810000", "121417.597500", "121418.387500", "121419.175000", "121419.962500", "121420.752500", "121421.540000", "121422.327500", "121423.115000", "121423.905000", "121424.692500", "121425.480000", "121426.267500", "121427.057500", "121427.845000", "121428.632500", "121429.420000", "121430.210000", "121430.997500", "121431.785000", "121432.572500", "121433.362500", "121434.150000", "121434.937500", "121435.727500", "121436.515000", "121437.302500", "121438.090000", "121438.880000", "121439.667500", "121440.455000", "121441.242500", "121442.032500", "121442.820000", "121443.607500", "121444.395000", "121445.185000", "121445.972500", "121446.760000", "121447.547500", "121448.337500", "121449.125000", "121449.912500", "121450.700000", "121451.490000", "121452.277500", "121453.065000", "121453.855000", "121454.642500", "121455.430000", "121456.217500", "121457.007500", "121457.795000", "121458.582500", "121459.370000", "121500.160000", "121500.947500", "121501.735000", "121502.522500", "121503.312500", "121504.100000", "121504.887500", "121505.675000", "121506.465000", "121507.252500", "121508.040000", "121508.827500", "121509.617500", "121510.405000", "121511.192500", "121511.982500", "121512.770000", "121513.557500", "121514.345000", "121515.135000", "121515.922500", "121516.710000", "121517.497500", "121518.287500", "121519.075000", "121519.862500", "121520.650000", "121521.440000", "121522.227500", "121523.015000", "121523.802500", "121524.592500", "121525.380000", "121526.167500", "121526.955000", "121527.745000", "121528.532500", "121529.320000", "121530.110000", "121530.897500", "121531.685000", "121532.472500", "121533.262500", "121534.050000", "121534.837500", "121535.625000", "121536.415000", "121537.202500", "121537.990000", "121538.777500", "121539.567500", "121540.355000", "121541.142500", "121541.930000", "121542.720000", "121543.507500", "121544.295000", "121545.082500", "121545.872500", "121546.660000", "121547.447500", "121548.237500", "121549.025000", "121549.812500", "121550.600000", "121551.390000", "121552.177500", "121552.965000", "121553.752500", "121554.542500", "121555.330000", "121556.117500", "121556.905000", "121557.695000", "121558.482500", "121559.270000", "121600.057500", "121600.847500", "121601.635000", "121602.422500", "121603.210000", "121604.000000", "121604.787500", "121605.575000", "121606.365000", "121607.152500", "121607.940000", "121608.727500", "121609.517500", "121610.305000", "121611.092500", "121611.880000", "121612.670000", "121613.457500", "121614.245000", "121615.032500", "121615.822500", "121616.610000", "121617.397500", "121618.185000", "121618.975000", "121619.762500", "121620.550000", "121621.337500", "121622.127500", "121622.915000", "121623.702500", "121624.492500", "121625.280000", "121626.067500", "121626.855000", "121627.645000", "121628.432500", "121629.220000", "121630.007500", "121630.797500", "121631.585000", "121632.372500", "121633.160000", "121633.950000", "121634.737500", "121635.525000", "121636.312500", "121637.102500", "121637.890000", "121638.677500", "121639.465000", "121640.255000", "121641.042500", "121641.830000", "121642.620000", "121643.407500", "121644.195000", "121644.982500", "121645.772500", "121646.560000", "121647.347500", "121648.135000", "121648.925000", "121649.712500", "121650.500000", "121651.287500", "121652.077500", "121652.865000", "121653.652500", "121654.440000", "121655.230000", "121656.017500", "121656.805000", "121657.592500", "121658.382500", "121659.170000", "121659.957500", "121700.747500", "121701.535000", "121702.322500", "121703.110000", "121703.900000", "121704.687500", "121705.475000", "121706.262500", "121707.052500", "121707.840000", "121708.627500", "121709.415000", "121710.205000", "121710.992500", "121711.780000", "121712.567500", "121713.357500", "121714.145000", "121714.932500", "121715.720000", "121716.510000", "121717.297500", "121718.085000", "121718.875000", "121719.662500", "121720.450000", "121721.237500", "121722.027500", "121722.815000", "121723.602500", "121724.390000", "121725.180000", "121725.967500", "121726.755000", "121727.542500", "121728.332500", "121729.120000", "121729.907500", "121730.695000", "121731.485000", "121732.272500", "121733.060000", "121733.847500", "121734.637500", "121735.425000", "121736.212500", "121737.002500", "121737.790000", "121738.577500", "121739.365000", "121740.155000", "121740.942500", "121741.730000", "121742.517500", "121743.307500", "121744.095000", "121744.882500", "121745.670000", "121746.460000", "121747.247500", "121748.035000", "121748.822500", "121749.612500", "121750.400000", "121751.187500", "121751.977500", "121752.765000", "121753.552500", "121754.340000", "121755.130000", "121755.917500", "121756.705000", "121757.492500", "121758.282500", "121759.070000", "121759.857500", "121800.645000", "121801.435000", "121802.222500", "121803.010000", "121803.797500", "121804.587500", "121805.375000", "121806.162500", "121806.950000", "121807.740000", "121808.527500", "121809.315000", "121810.105000", "121810.892500", "121811.680000", "121812.467500", "121813.257500", "121814.045000", "121814.832500", "121815.620000", "121816.410000", "121817.197500", "121817.985000", "121818.772500", "121819.562500", "121820.350000", "121821.137500", "121821.925000", "121822.715000", "121823.502500", "121824.290000", "121825.077500", "121825.867500", "121826.655000", "121827.442500", "121828.232500", "121829.020000", "121829.807500", "121830.595000", "121831.385000", "121832.172500", "121832.960000", "121833.747500", "121834.537500", "121835.325000", "121836.112500", "121836.900000", "121837.690000", "121838.477500", "121839.265000", "121840.052500", "121840.842500", "121841.630000", "121842.417500", "121843.205000", "121843.995000", "121844.782500", "121845.570000", "121846.360000", "121847.147500", "121847.935000", "121848.722500", "121849.512500", "121850.300000", "121851.087500", "121851.875000", "121852.665000", "121853.452500", "121854.240000", "121855.027500", "121855.817500", "121856.605000", "121857.392500", "121858.180000", "121858.970000", "121859.757500", "121900.545000", "121901.332500", "121902.122500", "121902.910000", "121903.697500", "121904.487500", "121905.275000", "121906.062500", "121906.850000", "121907.640000", "121908.427500", "121909.215000", "121910.002500", "121910.792500", "121911.580000", "121912.367500", "121913.155000", "121913.945000", "121914.732500", "121915.520000", "121916.307500", "121917.097500", "121917.885000", "121918.672500", "121919.460000", "121920.250000", "121921.037500", "121921.825000", "121922.615000", "121923.402500", "121924.190000", "121924.977500", "121925.767500", "121926.555000", "121927.342500", "121928.130000", "121928.920000", "121929.707500", "121930.495000", "121931.282500", "121932.072500", "121932.860000", "121933.647500", "121934.435000", "121935.225000", "121936.012500", "121936.800000", "121937.587500", "121938.377500", "121939.165000", "121939.952500", "121940.742500", "121941.530000", "121942.317500", "121943.105000", "121943.895000", "121944.682500", "121945.470000", "121946.257500", "121947.047500", "121947.835000", "121948.622500", "121949.410000", "121950.200000", "121950.987500", "121951.775000", "121952.562500", "121953.352500", "121954.140000", "121954.927500", "121955.715000", "121956.505000", "121957.292500", "121958.080000", "121958.870000", "121959.657500", "122000.445000", "122001.232500", "122002.022500", "122002.810000", "122003.597500", "122004.385000", "122005.175000", "122005.962500", "122006.750000", "122007.537500", "122008.327500", "122009.115000", "122009.902500", "122010.690000", "122011.480000", "122012.267500", "122013.055000", "122013.842500", "122014.632500", "122015.420000", "122016.207500", "122016.997500", "122017.785000", "122018.572500", "122019.360000", "122020.150000", "122020.937500", "122021.725000", "122022.512500", "122023.302500", "122024.090000", "122024.877500", "122025.665000", "122026.455000", "122027.242500", "122028.030000", "122028.817500", "122029.607500", "122030.395000", "122031.182500", "122031.970000", "122032.760000", "122033.547500", "122034.335000", "122035.125000", "122035.912500", "122036.700000", "122037.487500", "122038.277500", "122039.065000", "122039.852500"],
      "ContentTime": ["121335.125000", "121335.125000", "121335.125000", "121335.140000", "121335.140000", "121335.140000", "121335.140000", "121335.140000", "121335.140000", "121335.140000", "121335.140000", "121335.156000", "121335.156000", "121335.156000", "121335.156000", "121335.156000", "121335.156000", "121335.156000", "121335.156000", "121335.171000", "121335.171000", "121335.171000", "121335.171000", "121335.171000", "121335.171000", "121335.171000", "121335.171000", "121335.187000", "121335.187000", "121335.187000", "121335.187000", "121335.187000", "121335.187000", "121335.187000", "121335.203000", "121335.203000", "121335.203000", "121335.203000", "121335.203000", "121355.093000", "121355.109000", "121355.109000", "121355.109000", "121355.109000", "121355.109000", "121355.109000", "121355.109000", "121355.109000", "121355.125000", "121355.125000", "121355.125000", "121355.125000", "121355.125000", "121355.125000", "121355.140000", "121355.140000", "121355.140000", "121355.140000", "121355.140000", "121355.140000", "121355.140000", "121355.156000", "121355.156000", "121355.156000", "121415.093000", "121415.093000", "121415.109000", "121415.109000", "121415.109000", "121415.109000", "121415.109000", "121415.109000", "121415.109000", "121415.125000", "121415.125000", "121415.125000", "121415.125000", "121415.125000", "121415.125000", "121415.125000", "121415.140000", "121415.140000", "121415.140000", "121415.140000", "121415.140000", "121415.140000", "121415.156000", "121415.156000", "121415.156000", "121415.156000", "121435.093000", "121435.093000", "121435.109000", "121435.109000", "121435.109000", "121435.109000", "121435.109000", "121435.109000", "121435.109000", "121435.125000", "121435.125000", "121435.125000", "121435.125000", "121435.125000", "121435.125000", "121435.125000", "121435.140000", "121435.140000", "121435.140000", "121435.140000", "121435.140000", "121435.140000", "121435.140000", "121435.140000", "121435.156000", "121455.093000", "121455.109000", "121455.109000", "121455.109000", "121455.109000", "121455.109000", "121455.109000", "121455.125000", "121455.125000", "121455.125000", "121455.125000", "121455.125000", "121455.125000", "121455.125000", "121455.125000", "121455.140000", "121455.140000", "121455.140000", "121455.140000", "121455.140000", "121455.140000", "121455.140000", "121455.156000", "121455.156000", "121455.156000", "121455.156000", "121515.093000", "121515.093000", "121515.109000", "121515.109000", "121515.109000", "121515.109000", "121515.109000", "121515.109000", "121515.109000", "121515.125000", "121515.125000", "121515.125000", "121515.125000", "121515.125000", "121515.125000", "121515.140000", "121515.140000", "121515.140000", "121515.140000", "121515.140000", "121515.140000", "121515.140000", "121515.140000", "121515.156000", "121515.156000", "121535.093000", "121535.093000", "121535.109000", "121535.109000", "121535.109000", "121535.125000", "121535.125000", "121535.125000", "121535.125000", "121535.125000", "121535.125000", "121535.125000", "121535.125000", "121535.140000", "121535.140000", "121535.140000", "121535.140000", "121535.140000", "121535.140000", "121535.140000", "121535.156000", "121535.156000", "121535.156000", "121535.156000", "121535.156000", "121555.093000", "121555.093000", "121555.109000", "121555.109000", "121555.109000", "121555.109000", "121555.109000", "121555.109000", "121555.109000", "121555.125000", "121555.125000", "121555.125000", "121555.125000", "121555.125000", "121555.125000", "121555.125000", "121555.140000", "121555.140000", "121555.140000", "121555.140000", "121555.140000", "121555.140000", "121555.140000", "121555.140000", "121555.156000", "121555.156000", "121615.093000", "121615.093000", "121615.109000", "121615.109000", "121615.109000", "121615.109000", "121615.125000", "121615.125000", "121615.125000", "121615.125000", "121615.125000", "121615.125000", "121615.140000", "121615.140000", "121615.140000", "121615.140000", "121615.140000", "121615.140000", "121615.140000", "121615.140000", "121615.156000", "121615.156000", "121615.156000", "121615.156000", "121615.156000", "121635.093000", "121635.093000", "121635.109000", "121635.109000", "121635.109000", "121635.109000", "121635.109000", "121635.109000", "121635.109000", "121635.125000", "121635.125000", "121635.125000", "121635.125000", "121635.125000", "121635.125000", "121635.125000", "121635.125000", "121635.140000", "121635.140000", "121635.140000", "121635.140000", "121635.140000", "121635.140000", "121635.140000", "121635.156000", "121635.156000", "121655.093000", "121655.093000", "121655.109000", "121655.109000", "121655.109000", "121655.109000", "121655.109000", "121655.109000", "121655.109000", "121655.125000", "121655.125000", "121655.125000", "121655.125000", "121655.125000", "121655.125000", "121655.140000", "121655.140000", "121655.140000", "121655.140000", "121655.140000", "121655.140000", "121655.140000", "121655.156000", "121655.156000", "121655.156000", "121715.093000", "121715.093000", "121715.109000", "121715.109000", "121715.109000", "121715.109000", "121715.109000", "121715.109000", "121715.109000", "121715.125000", "121715.125000", "121715.125000", "121715.125000", "121715.125000", "121715.125000", "121715.125000", "121715.140000", "121715.140000", "121715.140000", "121715.140000", "121715.140000", "121715.140000", "121715.140000", "121715.140000", "121715.156000", "121715.156000", "121735.093000", "121735.093000", "121735.109000", "121735.109000", "121735.109000", "121735.109000", "121735.109000", "121735.109000", "121735.109000", "121735.125000", "121735.125000", "121735.125000", "121735.125000", "121735.125000", "121735.125000", "121735.140000", "121735.140000", "121735.140000", "121735.140000", "121735.140000", "121735.140000", "121735.140000", "121735.156000", "121735.156000", "121735.156000", "121755.093000", "121755.093000", "121755.109000", "121755.109000", "121755.109000", "121755.109000", "121755.109000", "121755.109000", "121755.109000", "121755.125000", "121755.125000", "121755.125000", "121755.125000", "121755.125000", "121755.125000", "121755.125000", "121755.125000", "121755.140000", "121755.140000", "121755.140000", "121755.140000", "121755.140000", "121755.140000", "121755.156000", "121755.156000", "121755.156000", "121815.093000", "121815.093000", "121815.109000", "121815.109000", "121815.109000", "121815.109000", "121815.109000", "121815.109000", "121815.109000", "121815.125000", "121815.125000", "121815.125000", "121815.125000", "121815.125000", "121815.125000", "121815.125000", "121815.140000", "121815.140000", "121815.140000", "121815.140000", "121815.140000", "121815.140000", "121815.140000", "121815.140000", "121815.156000", "121835.093000", "121835.109000", "121835.109000", "121835.109000", "121835.109000", "121835.109000", "121835.109000", "121835.125000", "121835.125000", "121835.125000", "121835.125000", "121835.125000", "121835.125000", "121835.125000", "121835.140000", "121835.140000", "121835.140000", "121835.140000", "121835.140000", "121835.140000", "121835.156000", "121835.156000", "121835.156000", "121835.156000", "121835.156000", "121835.156000", "121855.093000", "121855.109000", "121855.109000", "121855.109000", "121855.109000", "121855.109000", "121855.109000", "121855.125000", "121855.125000", "121855.125000", "121855.125000", "121855.125000", "121855.140000", "121855.140000", "121855.140000", "121855.140000", "121855.140000", "121855.140000", "121855.140000", "121855.156000", "121855.156000", "121855.156000", "121855.156000", "121855.156000", "121855.156000", "121915.093000", "121915.093000", "121915.109000", "121915.109000", "121915.109000", "121915.109000", "121915.109000", "121915.109000", "121915.109000", "121915.125000", "121915.125000", "121915.125000", "121915.125000", "121915.125000", "121915.125000", "121915.125000", "121915.140000", "121915.140000", "121915.140000", "121915.140000", "121915.140000", "121915.140000", "121915.140000", "121915.140000", "121915.156000", "121915.156000", "121935.093000", "121935.093000", "121935.109000", "121935.109000", "121935.109000", "121935.109000", "121935.109000", "121935.109000", "121935.109000", "121935.125000", "121935.125000", "121935.125000", "121935.125000", "121935.125000", "121935.125000", "121935.125000", "121935.140000", "121935.140000", "121935.140000", "121935.140000", "121935.140000", "121935.140000", "121935.140000", "121935.140000", "121935.156000", "121955.093000", "121955.093000", "121955.109000", "121955.109000", "121955.109000", "121955.109000", "121955.109000", "121955.109000", "121955.109000", "121955.125000", "121955.125000", "121955.125000", "121955.125000", "121955.125000", "121955.125000", "121955.125000", "121955.125000", "121955.140000", "121955.140000", "121955.140000", "121955.140000", "121955.140000", "121955.140000", "121955.140000", "121955.156000", "121955.156000", "122015.093000", "122015.093000", "122015.109000", "122015.109000", "122015.109000", "122015.109000", "122015.109000", "122015.125000", "122015.125000", "122015.125000", "122015.125000", "122015.125000", "122015.125000", "122015.125000", "122015.140000", "122015.140000", "122015.140000", "122015.140000", "122015.140000", "122015.156000", "122015.156000", "122015.156000", "122015.156000", "122015.156000", "122015.156000", "122035.093000", "122035.093000", "122035.109000", "122035.109000", "122035.109000", "122035.109000", "122035.109000", "122035.109000", "122035.109000", "122035.125000", "122035.125000", "122035.125000", "122035.125000", "122035.125000", "122035.125000", "122035.140000", "122035.140000", "122035.140000", "122035.140000", "122035.140000", "122035.140000", "122035.140000", "122035.156000", "122035.156000", "122035.156000", "122035.156000", "122040.546000", "122040.546000", "122040.546000", "122040.562000", "122040.562000", "122040.562000", "122040.562000"],
