{
  "AcquisitionMatrixPE": 104,
  "AcquisitionNumber": 1,
  "AcquisitionTime": "13:56:40.725000",
  "BandwidthPerPixelPhaseEncode": 13.935,
  "BaseResolution": 104,
  "CoilString": "C:HEA;HEP",
  "ConversionSoftware": "dcm2niix",
  "ConversionSoftwareVersion": "v1.0.20210317",
  "DerivedVendorReportedEchoSpacing": 0.000690017,
  "DeviceSerialNumber": "35450",
  "DwellTime": 2.5e-06,
  "EchoTime": 0.0348,
  "EffectiveEchoSpacing": 0.000690017,
  "FlipAngle": 55,
  "ImageComments": "Unaliased MB8/PE3 (remote)",
  "ImageOrientationPatientDICOM": [1, 0, 0, 0, 0.996041, -0.0888943],
  "ImageType": [
    "ORIGINAL",
    "PRIMARY",
    "M",
    "MB",
    "ND",
    "MOSAIC"
],
  "ImagingFrequency": 123.234,
  "InPlanePhaseEncodingDirectionDICOM": "COL",
  "InstitutionAddress": "Univeristy Ave. 197,Newark,North East,US,07102-1814",
  "InstitutionName": "RUBIC",
  "InstitutionalDepartmentName": "Department",
  "MRAcquisitionType": "2D",
  "MagneticFieldStrength": 3,
  "Manufacturer": "Siemens",
  "ManufacturersModelName": "TrioTim",
  "Modality": "MR",
  "MultibandAccelerationFactor": 8,
  "PartialFourier": 0.875,
  "PatientPosition": "HFS",
  "PercentPhaseFOV": 100,
  "PercentSampling": 100,
  "PhaseEncodingDirection": "j-",
  "PhaseEncodingSteps": 91,
  "PhaseResolution": 1,
  "PixelBandwidth": 1923,
  "ProcedureStepDescription": "Cole^Michael",
  "ProtocolName": "cmrr_mbep2d_bold_2mm_MB8_Task_8x",
  "PulseSequenceDetails": "%CustomerSeq%\\cmrr_mbep2d_bold",
  "ReceiveCoilName": "32Ch_Head",
  "ReconMatrixPE": 104,
  "RepetitionTime": 0.785,
  "SAR": 0.160542,
  "ScanOptions": "PFP\\FS",
  "ScanningSequence": "EP",
  "SequenceName": "epfid2d1_104",
  "SequenceVariant": "SK\\SS",
  "SeriesDescription": "cmrr_mbep2d_bold_2mm_MB8_Task_8x",
  "SeriesNumber": 27,
  "ShimSetting": [2120, -357, -7295, 248, -191, -334, 409, 68],
  "SliceThickness": 2,
  "SliceTiming": [0, 0.4375, 0.0875, 0.525, 0.175, 0.6125, 0.2625, 0.7, 0.35, 0, 0.4375, 0.0875, 0.525, 0.175, 0.6125, 0.2625, 0.7, 0.35, 0, 0.4375, 0.0875, 0.525, 0.175, 0.6125, 0.2625, 0.7, 0.35, 0, 0.4375, 0.0875, 0.525, 0.175, 0.6125, 0.2625, 0.7, 0.35, 0, 0.4375, 0.0875, 0.525, 0.175, 0.6125, 0.2625, 0.7, 0.35, 0, 0.4375, 0.0875, 0.525, 0.175, 0.6125, 0.2625, 0.7, 0.35, 0, 0.4375, 0.0875, 0.525, 0.175, 0.6125, 0.2625, 0.7, 0.35, 0, 0.4375, 0.0875, 0.525, 0.175, 0.6125, 0.2625, 0.7, 0.35],
  "SoftwareVersions": "syngo MR B19",
  "SpacingBetweenSlices": 2,
  "StationName": "MRC35450",
  "TaskName": "cpro",
  "TotalReadoutTime": 0.0710717,
  "TxRefAmp": 387.576,
  "dcmmeta_affine": [
    [-2.0, 0.0, 0.0, 106.71186828613281],
    [0.0, 1.992082118988037, -0.17778858542442322, -84.44245147705078],
    [0.0, 0.17778858542442322, 1.992082118988037, -117.59058380126953],
    [0.0, 0.0, 0.0, 1.0]
],
  "dcmmeta_reorient_transform": [
    [0.0, -1.0, 0.0, 103.0],
    [1.0, 0.0, 0.0, 0.0],
    [0.0, 0.0, 1.0, 0.0],
    [0.0, 0.0, 0.0, 1.0]
],
  "dcmmeta_shape": [104, 104, 72, 581],
  "dcmmeta_slice_dim": 2,
  "dcmmeta_version": 0.6,
  "global": {
    "const": {
      "AcquisitionMatrix": [104, 0, 0, 104],
      "AngioFlag": "N",
      "BitsAllocated": 16,
      "BitsStored": 12,
      "Columns": 936,
      "EchoNumbers": 1,
      "EchoTime": 34.8,
      "EchoTrainLength": 1,
      "FlipAngle": 55.0,
      "HighBit": 11,
      "ImageOrientationPatient": [1.0, 0.0, 0.0, 0.0, 0.99604106564855, -0.0888942942022],
      "ImagePositionPatient": [-938.71186447144, -949.4481716542, -25.318309462201],
      "ImageType": [
        "ORIGINAL",
        "PRIMARY",
        "M",
        "MB",
        "ND",
        "MOSAIC"
],
      "ImagedNucleus": "1H",
      "ImagingFrequency": 123.234486,
      "InPlanePhaseEncodingDirection": "COL",
      "MRAcquisitionType": "2D",
      "MagneticFieldStrength": 3.0,
      "Manufacturer": "SIEMENS",
      "ManufacturerModelName": "TrioTim",
      "Modality": "MR",
      "NumberOfAverages": 1.0,
      "NumberOfPhaseEncodingSteps": 91,
      "PercentPhaseFieldOfView": 100.0,
      "PercentSampling": 100.0,
      "PerformedProcedureStepStartTime": "114652.625000",
      "PhotometricInterpretation": "MONOCHROME2",
      "PixelBandwidth": 1923.0,
      "PixelRepresentation": 0,
      "PixelSpacing": [2.0, 2.0],
      "ProtocolName": "cmrr_mbep2d_bold_2mm_MB8_Task_8x",
      "RepetitionTime": 785.0,
      "Rows": 936,
      "SAR": 0.16054221632419,
      "SamplesPerPixel": 1,
      "ScanOptions": [
        "PFP",
        "FS"
],
      "ScanningSequence": "EP",
      "SequenceName": "epfid2d1_104",
      "SequenceVariant": [
        "SK",
        "SS"
],
      "SeriesDescription": "cmrr_mbep2d_bold_2mm_MB8_Task_8x",
      "SeriesNumber": 27,
      "SeriesTime": "135706.828000",
      "SliceLocation": -109.61860103791,
      "SliceThickness": 2.0,
      "SmallestImagePixelValue": 0,
      "SoftwareVersions": "syngo MR B19",
      "SpacingBetweenSlices": 2.000000009446,
      "SpecificCharacterSet": "ISO_IR 100",
      "StudyID": "1",
      "StudyTime": "114652.593000",
      "TransmitCoilName": "Body",
      "VariableFlipAngleFlag": "N",
      "WindowCenterWidthExplanation": "Algo1",
      "dBdt": 0.0},
    "slices": {}
  },
  "time": {
    "samples": {
      "AcquisitionNumber": [1, 2, 3, 4, 5, 6, 7, 8, 9, 10, 11, 12, 13, 14, 15, 16, 17, 18, 19, 20, 21, 22, 23, 24, 25, 26, 27, 28, 29, 30, 31, 32, 33, 34, 35, 36, 37, 38, 39, 40, 41, 42, 43, 44, 45, 46, 47, 48, 49, 50, 51, 52, 53, 54, 55, 56, 57, 58, 59, 60, 61, 62, 63, 64, 65, 66, 67, 68, 69, 70, 71, 72, 73, 74, 75, 76, 77, 78, 79, 80, 81, 82, 83, 84, 85, 86, 87, 88, 89, 90, 91, 92, 93, 94, 95, 96, 97, 98, 99, 100, 101, 102, 103, 104, 105, 106, 107, 108, 109, 110, 111, 112, 113, 114, 115, 116, 117, 118, 119, 120, 121, 122, 123, 124, 125, 126, 127, 128, 129, 130, 131, 132, 133, 134, 135, 136, 137, 138, 139, 140, 141, 142, 143, 144, 145, 146, 147, 148, 149, 150, 151, 152, 153, 154, 155, 156, 157, 158, 159, 160, 161, 162, 163, 164, 165, 166, 167, 168, 169, 170, 171, 172, 173, 174, 175, 176, 177, 178, 179, 180, 181, 182, 183, 184, 185, 186, 187, 188, 189, 190, 191, 192, 193, 194, 195, 196, 197, 198, 199, 200, 201, 202, 203, 204, 205, 206, 207, 208, 209, 210, 211, 212, 213, 214, 215, 216, 217, 218, 219, 220, 221, 222, 223, 224, 225, 226, 227, 228, 229, 230, 231, 232, 233, 234, 235, 236, 237, 238, 239, 240, 241, 242, 243, 244, 245, 246, 247, 248, 249, 250, 251, 252, 253, 254, 255, 256, 257, 258, 259, 260, 261, 262, 263, 264, 265, 266, 267, 268, 269, 270, 271, 272, 273, 274, 275, 276, 277, 278, 279, 280, 281, 282, 283, 284, 285, 286, 287, 288, 289, 290, 291, 292, 293, 294, 295, 296, 297, 298, 299, 300, 301, 302, 303, 304, 305, 306, 307, 308, 309, 310, 311, 312, 313, 314, 315, 316, 317, 318, 319, 320, 321, 322, 323, 324, 325, 326, 327, 328, 329, 330, 331, 332, 333, 334, 335, 336, 337, 338, 339, 340, 341, 342, 343, 344, 345, 346, 347, 348, 349, 350, 351, 352, 353, 354, 355, 356, 357, 358, 359, 360, 361, 362, 363, 364, 365, 366, 367, 368, 369, 370, 371, 372, 373, 374, 375, 376, 377, 378, 379, 380, 381, 382, 383, 384, 385, 386, 387, 388, 389, 390, 391, 392, 393, 394, 395, 396, 397, 398, 399, 400, 401, 402, 403, 404, 405, 406, 407, 408, 409, 410, 411, 412, 413, 414, 415, 416, 417, 418, 419, 420, 421, 422, 423, 424, 425, 426, 427, 428, 429, 430, 431, 432, 433, 434, 435, 436, 437, 438, 439, 440, 441, 442, 443, 444, 445, 446, 447, 448, 449, 450, 451, 452, 453, 454, 455, 456, 457, 458, 459, 460, 461, 462, 463, 464, 465, 466, 467, 468, 469, 470, 471, 472, 473, 474, 475, 476, 477, 478, 479, 480, 481, 482, 483, 484, 485, 486, 487, 488, 489, 490, 491, 492, 493, 494, 495, 496, 497, 498, 499, 500, 501, 502, 503, 504, 505, 506, 507, 508, 509, 510, 511, 512, 513, 514, 515, 516, 517, 518, 519, 520, 521, 522, 523, 524, 525, 526, 527, 528, 529, 530, 531, 532, 533, 534, 535, 536, 537, 538, 539, 540, 541, 542, 543, 544, 545, 546, 547, 548, 549, 550, 551, 552, 553, 554, 555, 556, 557, 558, 559, 560, 561, 562, 563, 564, 565, 566, 567, 568, 569, 570, 571, 572, 573, 574, 575, 576, 577, 578, 579, 580, 581],
      "AcquisitionTime": ["135640.725000", "135641.512500", "135642.302500", "135643.090000", "135643.877500", "135644.665000", "135645.455000", "135646.242500", "135647.030000", "135647.820000", "135648.607500", "135649.395000", "135650.182500", "135650.972500", "135651.760000", "135652.547500", "135653.335000", "135654.125000", "135654.912500", "135655.700000", "135656.487500", "135657.277500", "135658.065000", "135658.852500", "135659.640000", "135700.430000", "135701.217500", "135702.005000", "135702.792500", "135703.582500", "135704.370000", "135705.157500", "135705.947500", "135706.735000", "135707.522500", "135708.310000", "135709.100000", "135709.887500", "135710.675000", "135711.462500", "135712.252500", "135713.040000", "135713.827500", "135714.615000", "135715.405000", "135716.192500", "135716.980000", "135717.767500", "135718.557500", "135719.345000", "135720.132500", "135720.922500", "135721.710000", "135722.497500", "135723.285000", "135724.075000", "135724.862500", "135725.650000", "135726.437500", "135727.227500", "135728.015000", "135728.802500", "135729.590000", "135730.380000", "135731.167500", "135731.955000", "135732.742500", "135733.532500", "135734.320000", "135735.107500", "135735.895000", "135736.685000", "135737.472500", "135738.260000", "135739.050000", "135739.837500", "135740.625000", "135741.412500", "135742.202500", "135742.990000", "135743.777500", "135744.565000", "135745.355000", "135746.142500", "135746.930000", "135747.717500", "135748.507500", "135749.295000", "135750.082500", "135750.870000", "135751.660000", "135752.447500", "135753.235000", "135754.022500", "135754.812500", "135755.600000", "135756.387500", "135757.177500", "135757.965000", "135758.752500", "135759.540000", "135800.330000", "135801.117500", "135801.905000", "135802.692500", "135803.482500", "135804.270000", "135805.057500", "135805.845000", "135806.635000", "135807.422500", "135808.210000", "135808.997500", "135809.787500", "135810.575000", "135811.362500", "135812.150000", "135812.940000", "135813.727500", "135814.515000", "135815.305000", "135816.092500", "135816.880000", "135817.667500", "135818.457500", "135819.245000", "135820.032500", "135820.820000", "135821.610000", "135822.397500", "135823.185000", "135823.972500", "135824.762500", "135825.550000", "135826.337500", "135827.125000", "135827.915000", "135828.702500", "135829.490000", "135830.277500", "135831.067500", "135831.855000", "135832.642500", "135833.432500", "135834.220000", "135835.007500", "135835.795000", "135836.585000", "135837.372500", "135838.160000", "135838.947500", "135839.737500", "135840.525000", "135841.312500", "135842.100000", "135842.890000", "135843.677500", "135844.465000", "135845.252500", "135846.042500", "135846.830000", "135847.617500", "135848.405000", "135849.195000", "135849.982500", "135850.770000", "135851.560000", "135852.347500", "135853.135000", "135853.922500", "135854.712500", "135855.500000", "135856.287500", "135857.075000", "135857.865000", "135858.652500", "135859.440000", "135900.227500", "135901.017500", "135901.805000", "135902.592500", "135903.380000", "135904.170000", "135904.957500", "135905.745000", "135906.532500", "135907.322500", "135908.110000", "135908.897500", "135909.687500", "135910.475000", "135911.262500", "135912.050000", "135912.840000", "135913.627500", "135914.415000", "135915.202500", "135915.992500", "135916.780000", "135917.567500", "135918.355000", "135919.145000", "135919.932500", "135920.720000", "135921.507500", "135922.297500", "135923.085000", "135923.872500", "135924.660000", "135925.450000", "135926.237500", "135927.025000", "135927.815000", "135928.602500", "135929.390000", "135930.177500", "135930.967500", "135931.755000", "135932.542500", "135933.330000", "135934.120000", "135934.907500", "135935.695000", "135936.482500", "135937.272500", "135938.060000", "135938.847500", "135939.635000", "135940.425000", "135941.212500", "135942.000000", "135942.787500", "135943.577500", "135944.365000", "135945.152500", "135945.942500", "135946.730000", "135947.517500", "135948.305000", "135949.095000", "135949.882500", "135950.670000", "135951.457500", "135952.247500", "135953.035000", "135953.822500", "135954.610000", "135955.400000", "135956.187500", "135956.975000", "135957.762500", "135958.552500", "135959.340000", "140000.127500", "140000.915000", "140001.705000", "140002.492500", "140003.280000", "140004.070000", "140004.857500", "140005.645000", "140006.432500", "140007.222500", "140008.010000", "140008.797500", "140009.585000", "140010.375000", "140011.162500", "140011.950000", "140012.737500", "140013.527500", "140014.315000", "140015.102500", "140015.890000", "140016.680000", "140017.467500", "140018.255000", "140019.042500", "140019.832500", "140020.620000", "140021.407500", "140022.197500", "140022.985000", "140023.772500", "140024.560000", "140025.350000", "140026.137500", "140026.925000", "140027.712500", "140028.502500", "140029.290000", "140030.077500", "140030.865000", "140031.655000", "140032.442500", "140033.230000", "140034.017500", "140034.807500", "140035.595000", "140036.382500", "140037.172500", "140037.960000", "140038.747500", "140039.535000", "140040.325000", "140041.112500", "140041.900000", "140042.687500", "140043.477500", "140044.265000", "140045.052500", "140045.840000", "140046.630000", "140047.417500", "140048.205000", "140048.992500", "140049.782500", "140050.570000", "140051.357500", "140052.145000", "140052.935000", "140053.722500", "140054.510000", "140055.300000", "140056.087500", "140056.875000", "140057.662500", "140058.452500", "140059.240000", "140100.027500", "140100.815000", "140101.605000", "140102.392500", "140103.180000", "140103.967500", "140104.757500", "140105.545000", "140106.332500", "140107.120000", "140107.910000", "140108.697500", "140109.485000", "140110.272500", "140111.062500", "140111.850000", "140112.637500", "140113.427500", "140114.215000", "140115.002500", "140115.790000", "140116.580000", "140117.367500", "140118.155000", "140118.942500", "140119.732500", "140120.520000", "140121.307500", "140122.095000", "140122.885000", "140123.672500", "140124.460000", "140125.247500", "140126.037500", "140126.825000", "140127.612500", "140128.400000", "140129.190000", "140129.977500", "140130.765000", "140131.555000", "140132.342500", "140133.130000", "140133.917500", "140134.707500", "140135.495000", "140136.282500", "140137.070000", "140137.860000", "140138.647500", "140139.435000", "140140.222500", "140141.012500", "140141.800000", "140142.587500", "140143.375000", "140144.165000", "140144.952500", "140145.740000", "140146.527500", "140147.317500", "140148.105000", "140148.892500", "140149.682500", "140150.470000", "140151.257500", "140152.045000", "140152.835000", "140153.622500", "140154.410000", "140155.197500", "140155.987500", "140156.775000", "140157.562500", "140158.350000", "140159.140000", "140159.927500", "140200.715000", "140201.502500", "140202.292500", "140203.080000", "140203.867500", "140204.655000", "140205.445000", "140206.232500", "140207.020000", "140207.810000", "140208.597500", "140209.385000", "140210.172500", "140210.962500", "140211.750000", "140212.537500", "140213.325000", "140214.115000", "140214.902500", "140215.690000", "140216.477500", "140217.267500", "140218.055000", "140218.842500", "140219.630000", "140220.420000", "140221.207500", "140221.995000", "140222.782500", "140223.572500", "140224.360000", "140225.147500", "140225.937500", "140226.725000", "140227.512500", "140228.300000", "140229.090000", "140229.877500", "140230.665000", "140231.452500", "140232.242500", "140233.030000", "140233.817500", "140234.605000", "140235.395000", "140236.182500", "140236.970000", "140237.757500", "140238.547500", "140239.335000", "140240.122500", "140240.910000", "140241.700000", "140242.487500", "140243.275000", "140244.065000", "140244.852500", "140245.640000", "140246.427500", "140247.217500", "140248.005000", "140248.792500", "140249.580000", "140250.370000", "140251.157500", "140251.945000", "140252.732500", "140253.522500", "140254.310000", "140255.097500", "140255.885000", "140256.675000", "140257.462500", "140258.250000", "140259.037500", "140259.827500", "140300.615000", "140301.402500", "140302.192500", "140302.980000", "140303.767500", "140304.555000", "140305.345000", "140306.132500", "140306.920000", "140307.707500", "140308.497500", "140309.285000", "140310.072500", "140310.860000", "140311.650000", "140312.437500", "140313.225000", "140314.012500", "140314.802500", "140315.590000", "140316.377500", "140317.165000", "140317.955000", "140318.742500", "140319.530000", "140320.320000", "140321.107500", "140321.895000", "140322.682500", "140323.472500", "140324.260000", "140325.047500", "140325.835000", "140326.625000", "140327.412500", "140328.200000", "140328.987500", "140329.777500", "140330.565000", "140331.352500", "140332.140000", "140332.930000", "140333.717500", "140334.505000", "140335.292500", "140336.082500", "140336.870000", "140337.657500", "140338.447500", "140339.235000", "140340.022500", "140340.810000", "140341.600000", "140342.387500", "140343.175000", "140343.962500", "140344.752500", "140345.540000", "140346.327500", "140347.115000", "140347.905000", "140348.692500", "140349.480000", "140350.267500", "140351.057500", "140351.845000", "140352.632500", "140353.422500", "140354.210000", "140354.997500", "140355.785000", "140356.575000", "140357.362500", "140358.150000", "140358.937500", "140359.727500", "140400.515000", "140401.302500", "140402.090000", "140402.880000", "140403.667500", "140404.455000", "140405.242500", "140406.032500", "140406.820000", "140407.607500", "140408.395000", "140409.185000", "140409.972500", "140410.760000", "140411.550000", "140412.337500", "140413.125000", "140413.912500", "140414.702500", "140415.490000", "140416.277500", "140417.065000", "140417.855000"],
      "ContentTime": ["135706.828000", "135706.843000", "135706.843000", "135706.843000", "135706.843000", "135706.843000", "135706.843000", "135706.843000", "135706.859000", "135706.859000", "135706.859000", "135706.859000", "135706.859000", "135706.859000", "135706.859000", "135706.875000", "135706.875000", "135706.875000", "135706.875000", "135706.875000", "135706.875000", "135706.890000", "135706.890000", "135706.890000", "135706.890000", "135706.890000", "135706.890000", "135706.906000", "135706.906000", "135706.906000", "135726.812000", "135726.812000", "135726.812000", "135726.812000", "135726.812000", "135726.828000", "135726.828000", "135726.828000", "135726.828000", "135726.828000", "135726.828000", "135726.828000", "135726.843000", "135726.843000", "135726.843000", "135726.843000", "135726.843000", "135726.859000", "135726.859000", "135726.859000", "135726.859000", "135726.859000", "135726.859000", "135726.875000", "135726.875000", "135726.875000", "135746.812000", "135746.812000", "135746.812000", "135746.812000", "135746.812000", "135746.828000", "135746.828000", "135746.828000", "135746.828000", "135746.828000", "135746.828000", "135746.843000", "135746.843000", "135746.843000", "135746.843000", "135746.843000", "135746.843000", "135746.843000", "135746.859000", "135746.859000", "135746.859000", "135746.859000", "135746.859000", "135746.859000", "135746.875000", "135806.812000", "135806.812000", "135806.812000", "135806.812000", "135806.812000", "135806.828000", "135806.828000", "135806.828000", "135806.828000", "135806.828000", "135806.828000", "135806.828000", "135806.843000", "135806.843000", "135806.843000", "135806.843000", "135806.843000", "135806.843000", "135806.843000", "135806.859000", "135806.859000", "135806.859000", "135806.859000", "135806.859000", "135806.859000", "135806.859000", "135826.812000", "135826.812000", "135826.812000", "135826.812000", "135826.812000", "135826.828000", "135826.828000", "135826.828000", "135826.828000", "135826.828000", "135826.828000", "135826.828000", "135826.843000", "135826.843000", "135826.843000", "135826.843000", "135826.843000", "135826.843000", "135826.843000", "135826.859000", "135826.859000", "135826.859000", "135826.859000", "135826.859000", "135826.859000", "135846.812000", "135846.812000", "135846.812000", "135846.812000", "135846.812000", "135846.828000", "135846.828000", "135846.828000", "135846.828000", "135846.828000", "135846.828000", "135846.828000", "135846.843000", "135846.843000", "135846.843000", "135846.843000", "135846.843000", "135846.843000", "135846.843000", "135846.859000", "135846.859000", "135846.859000", "135846.859000", "135846.859000", "135846.875000", "135906.812000", "135906.812000", "135906.812000", "135906.828000", "135906.828000", "135906.828000", "135906.828000", "135906.828000", "135906.828000", "135906.828000", "135906.843000", "135906.843000", "135906.843000", "135906.843000", "135906.843000", "135906.859000", "135906.859000", "135906.859000", "135906.859000", "135906.859000", "135906.875000", "135906.875000", "135906.875000", "135906.875000", "135906.875000", "135906.875000", "135926.812000", "135926.812000", "135926.812000", "135926.812000", "135926.812000", "135926.828000", "135926.828000", "135926.828000", "135926.828000", "135926.828000", "135926.828000", "135926.828000", "135926.843000", "135926.843000", "135926.843000", "135926.843000", "135926.843000", "135926.843000", "135926.843000", "135926.859000", "135926.859000", "135926.859000", "135926.859000", "135926.859000", "135926.859000", "135946.812000", "135946.812000", "135946.812000", "135946.812000", "135946.812000", "135946.828000", "135946.828000", "135946.828000", "135946.828000", "135946.828000", "135946.828000", "135946.828000", "135946.843000", "135946.843000", "135946.843000", "135946.843000", "135946.859000", "135946.859000", "135946.859000", "135946.859000", "135946.859000", "135946.875000", "135946.875000", "135946.875000", "135946.875000", "135946.875000", "140006.812000", "140006.812000", "140006.812000", "140006.812000", "140006.812000", "140006.828000", "140006.828000", "140006.828000", "140006.828000", "140006.828000", "140006.828000", "140006.843000", "140006.843000", "140006.843000", "140006.843000", "140006.843000", "140006.843000", "140006.859000", "140006.859000", "140006.859000", "140006.859000", "140006.859000", "140006.859000", "140006.875000", "140006.875000", "140026.812000", "140026.812000", "140026.812000", "140026.812000", "140026.812000", "140026.828000", "140026.828000", "140026.828000", "140026.828000", "140026.828000", "140026.828000", "140026.828000", "140026.843000", "140026.843000", "140026.843000", "140026.843000", "140026.843000", "140026.843000", "140026.843000", "140026.859000", "140026.859000", "140026.859000", "140026.859000", "140026.859000", "140026.859000", "140026.859000", "140046.812000", "140046.812000", "140046.812000", "140046.812000", "140046.812000", "140046.828000", "140046.828000", "140046.828000", "140046.828000", "140046.828000", "140046.828000", "140046.828000", "140046.843000", "140046.843000", "140046.843000", "140046.843000", "140046.843000", "140046.843000", "140046.843000", "140046.859000", "140046.859000", "140046.859000", "140046.859000", "140046.859000", "140046.859000", "140106.812000", "140106.812000", "140106.812000", "140106.812000", "140106.812000", "140106.828000", "140106.828000", "140106.828000", "140106.828000", "140106.828000", "140106.843000", "140106.843000", "140106.843000", "140106.843000", "140106.843000", "140106.843000", "140106.843000", "140106.859000", "140106.859000", "140106.859000", "140106.859000", "140106.859000", "140106.859000", "140106.875000", "140106.875000", "140106.875000", "140126.812000", "140126.812000", "140126.812000", "140126.812000", "140126.812000", "140126.828000", "140126.828000", "140126.828000", "140126.828000", "140126.828000", "140126.828000", "140126.828000", "140126.843000", "140126.843000", "140126.843000", "140126.843000", "140126.843000", "140126.843000", "140126.843000", "140126.859000", "140126.859000", "140126.859000", "140126.859000", "140126.859000", "140126.875000", "140146.812000", "140146.812000", "140146.812000", "140146.812000", "140146.812000", "140146.828000", "140146.828000", "140146.828000", "140146.828000", "140146.828000", "140146.828000", "140146.828000", "140146.843000", "140146.843000", "140146.843000", "140146.843000", "140146.843000", "140146.843000", "140146.843000", "140146.859000", "140146.859000", "140146.859000", "140146.859000", "140146.859000", "140146.859000", "140146.859000", "140206.812000", "140206.812000", "140206.812000", "140206.812000", "140206.812000", "140206.828000", "140206.828000", "140206.828000", "140206.828000", "140206.828000", "140206.828000", "140206.843000", "140206.843000", "140206.843000", "140206.843000", "140206.843000", "140206.843000", "140206.843000", "140206.859000", "140206.859000", "140206.859000", "140206.859000", "140206.859000", "140206.859000", "140206.859000", "140226.812000", "140226.812000", "140226.812000", "140226.812000", "140226.812000", "140226.828000", "140226.828000", "140226.828000", "140226.828000", "140226.828000", "140226.828000", "140226.828000", "140226.843000", "140226.843000", "140226.843000", "140226.843000", "140226.843000", "140226.843000", "140226.843000", "140226.859000", "140226.859000", "140226.859000", "140226.859000", "140226.859000", "140226.859000", "140226.859000", "140246.812000", "140246.812000", "140246.828000", "140246.828000", "140246.828000", "140246.828000", "140246.828000", "140246.843000", "140246.843000", "140246.843000", "140246.843000", "140246.843000", "140246.843000", "140246.843000", "140246.859000", "140246.859000", "140246.859000", "140246.859000", "140246.859000", "140246.859000", "140246.859000", "140246.875000", "140246.875000", "140246.875000", "140246.875000", "140306.812000", "140306.812000", "140306.812000", "140306.812000", "140306.812000", "140306.828000", "140306.828000", "140306.828000", "140306.828000", "140306.828000", "140306.828000", "140306.828000", "140306.843000", "140306.843000", "140306.843000", "140306.843000", "140306.843000", "140306.843000", "140306.843000", "140306.859000", "140306.859000", "140306.859000", "140306.859000", "140306.859000", "140306.875000", "140306.875000", "140326.812000", "140326.812000", "140326.812000", "140326.812000", "140326.812000", "140326.828000", "140326.828000", "140326.828000", "140326.828000", "140326.828000", "140326.828000", "140326.828000", "140326.843000", "140326.843000", "140326.843000", "140326.843000", "140326.843000", "140326.843000", "140326.843000", "140326.859000", "140326.859000", "140326.859000", "140326.859000", "140326.859000", "140326.859000", "140346.812000", "140346.812000", "140346.812000", "140346.812000", "140346.812000", "140346.828000", "140346.828000", "140346.828000", "140346.828000", "140346.828000", "140346.828000", "140346.828000", "140346.843000", "140346.843000", "140346.843000", "140346.843000", "140346.843000", "140346.859000", "140346.859000", "140346.859000", "140346.859000", "140346.859000", "140346.859000", "140346.859000", "140346.875000", "140346.875000", "140406.812000", "140406.812000", "140406.812000", "140406.812000", "140406.812000", "140406.828000", "140406.828000", "140406.828000", "140406.828000", "140406.828000", "140406.828000", "140406.828000", "140406.843000", "140406.843000", "140406.843000", "140406.843000", "140406.843000", "140406.843000", "140406.843000", "140406.859000", "140406.859000", "140406.859000", "140406.859000", "140406.859000", "140406.875000", "140418.890000", "140418.890000", "140418.890000", "140418.890000", "140418.906000", "140418.906000", "140418.906000", "140418.906000", "140418.906000", "140418.906000", "140418.921000", "140418.921000", "140418.921000", "140418.921000", "140418.921000", "140418.921000"],
      "DataSetTrailingPadding": [
        "\u0000\u0000\u0000\u0000\u0000\u0000\u0000\u0000\u0000\u0000\u0000\u0000\u0000\u0000\u0000\u0000\u0000\u0000\u0000\u0000\u0000\u0000\u0000\u0000\u0000\u0000\u0000\u0000\u0000\u0000\u0000\u0000\u0000\u0000\u0000\u0000\u0000\u0000\u0000\u0000\u0000\u0000\u0000\u0000\u0000\u0000\u0000\u0000\u0000\u0000\u0000\u0000\u0000\u0000\u0000\u0000\u0000\u0000\u0000\u0000\u0000\u0000\u0000\u0000\u0000\u0000\u0000\u0000\u0000\u0000\u0000\u0000\u0000\u0000\u0000\u0000\u0000\u0000\u0000\u0000\u0000\u0000\u0000\u0000\u0000\u0000\u0000\u0000\u0000\u0000\u0000\u0000\u0000\u0000\u0000\u0000\u0000\u0000\u0000\u0000\u0000\u0000\u0000\u0000\u0000\u0000\u0000\u0000\u0000\u0000\u0000\u0000\u0000\u0000\u0000\u0000\u0000\u0000\u0000\u0000\u0000\u0000\u0000\u0000\u0000\u0000\u0000\u0000\u0000\u0000\u0000\u0000\u0000\u0000\u0000\u0000\u0000\u0000\u0000\u0000\u0000\u0000\u0000\u0000",
        "\u0000\u0000\u0000\u0000\u0000\u0000\u0000\u0000\u0000\u0000\u0000\u0000\u0000\u0000\u0000\u0000\u0000\u0000\u0000\u0000\u0000\u0000\u0000\u0000\u0000\u0000\u0000\u0000\u0000\u0000\u0000\u0000\u0000\u0000\u0000\u0000\u0000\u0000\u0000\u0000\u0000\u0000\u0000\u0000\u0000\u0000\u0000\u0000\u0000\u0000\u0000\u0000\u0000\u0000\u0000\u0000\u0000\u0000\u0000\u0000\u0000\u0000\u0000\u0000\u0000\u0000\u0000\u0000\u0000\u0000\u0000\u0000\u0000\u0000\u0000\u0000\u0000\u0000\u0000\u0000\u0000\u0000\u0000\u0000\u0000\u0000\u0000\u0000\u0000\u0000\u0000\u0000\u0000\u0000\u0000\u0000\u0000\u0000\u0000\u0000\u0000\u0000\u0000\u0000\u0000\u0000\u0000\u0000\u0000\u0000\u0000\u0000\u0000\u0000\u0000\u0000\u0000\u0000\u0000\u0000\u0000\u0000\u0000\u0000\u0000\u0000\u0000\u0000\u0000\u0000\u0000\u0000\u0000\u0000\u0000\u0000\u0000\u0000\u0000\u0000\u0000\u0000\u0000\u0000",
