{
  "AcquisitionMatrixPE": 104,
  "AcquisitionNumber": 1,
  "AcquisitionTime": "14:26:22.710000",
  "BandwidthPerPixelPhaseEncode": 13.935,
  "BaseResolution": 104,
  "CoilString": "C:HEA;HEP",
  "ConversionSoftware": "dcm2niix",
  "ConversionSoftwareVersion": "v1.0.20210317",
  "DerivedVendorReportedEchoSpacing": 0.000690017,
  "DeviceSerialNumber": "35450",
  "DwellTime": 2.5e-06,
  "EchoTime": 0.0348,
  "EffectiveEchoSpacing": 0.000690017,
  "FlipAngle": 55,
  "ImageComments": "Unaliased MB8/PE3 (remote)",
  "ImageOrientationPatientDICOM": [1, 0, 0, 0, 0.999945, -0.0104718],
  "ImageType": [
    "ORIGINAL",
    "PRIMARY",
    "M",
    "MB",
    "ND",
    "MOSAIC"
],
  "ImagingFrequency": 123.235,
  "InPlanePhaseEncodingDirectionDICOM": "COL",
  "InstitutionAddress": "Univeristy Ave. 197,Newark,North East,US,07102-1814",
  "InstitutionName": "RUBIC",
  "InstitutionalDepartmentName": "Department",
  "MRAcquisitionType": "2D",
  "MagneticFieldStrength": 3,
  "Manufacturer": "Siemens",
  "ManufacturersModelName": "TrioTim",
  "Modality": "MR",
  "MultibandAccelerationFactor": 8,
  "PartialFourier": 0.875,
  "PatientPosition": "HFS",
  "PercentPhaseFOV": 100,
  "PercentSampling": 100,
  "PhaseEncodingDirection": "j-",
  "PhaseEncodingSteps": 91,
  "PhaseResolution": 1,
  "PixelBandwidth": 1923,
  "ProcedureStepDescription": "Cole^Michael",
  "ProtocolName": "cmrr_mbep2d_bold_2mm_MB8_Task_8x",
  "PulseSequenceDetails": "%CustomerSeq%\\cmrr_mbep2d_bold",
  "ReceiveCoilName": "32Ch_Head",
  "ReconMatrixPE": 104,
  "RepetitionTime": 0.785,
  "SAR": 0.127948,
  "ScanOptions": "PFP\\FS",
  "ScanningSequence": "EP",
  "SequenceName": "epfid2d1_104",
  "SequenceVariant": "SK\\SS",
  "SeriesDescription": "cmrr_mbep2d_bold_2mm_MB8_Task_8x",
  "SeriesNumber": 15,
  "ShimSetting": [2101, -457, -7426, 707, -2, -216, -815, -38],
  "SliceThickness": 2,
  "SliceTiming": [0, 0.4375, 0.0875, 0.525, 0.175, 0.6125, 0.2625, 0.7, 0.35, 0, 0.4375, 0.0875, 0.525, 0.175, 0.6125, 0.2625, 0.7, 0.35, 0, 0.4375, 0.0875, 0.525, 0.175, 0.6125, 0.2625, 0.7, 0.35, 0, 0.4375, 0.0875, 0.525, 0.175, 0.6125, 0.2625, 0.7, 0.35, 0, 0.4375, 0.0875, 0.525, 0.175, 0.6125, 0.2625, 0.7, 0.35, 0, 0.4375, 0.0875, 0.525, 0.175, 0.6125, 0.2625, 0.7, 0.35, 0, 0.4375, 0.0875, 0.525, 0.175, 0.6125, 0.2625, 0.7, 0.35, 0, 0.4375, 0.0875, 0.525, 0.175, 0.6125, 0.2625, 0.7, 0.35],
  "SoftwareVersions": "syngo MR B19",
  "SpacingBetweenSlices": 2,
  "StationName": "MRC35450",
  "TaskName": "cpro",
  "TotalReadoutTime": 0.0710717,
  "TxRefAmp": 323.471,
  "dcmmeta_affine": [
    [-2.0, 0.0, 0.0, 105.3559341430664],
    [0.0, 1.9998903274536133, -0.020943567156791687, -78.2510986328125],
    [0.0, 0.020943567156791687, 1.9998903274536133, -98.45664978027344],
    [0.0, 0.0, 0.0, 1.0]
],
  "dcmmeta_reorient_transform": [
    [0.0, -1.0, 0.0, 103.0],
    [1.0, 0.0, 0.0, 0.0],
    [0.0, 0.0, 1.0, 0.0],
    [0.0, 0.0, 0.0, 1.0]
],
  "dcmmeta_shape": [104, 104, 72, 581],
  "dcmmeta_slice_dim": 2,
  "dcmmeta_version": 0.6,
  "global": {
    "const": {
      "AcquisitionMatrix": [104, 0, 0, 104],
      "AngioFlag": "N",
      "BitsAllocated": 16,
      "BitsStored": 12,
      "Columns": 936,
      "EchoNumbers": 1,
      "EchoTime": 34.8,
      "EchoTrainLength": 1,
      "FlipAngle": 55.0,
      "HighBit": 11,
      "ImageOrientationPatient": [1.0, 0.0, 0.0, 0.0, 0.9999451693678, -0.010471783898],
      "ImagePositionPatient": [-937.35593223572, -959.69198373456, -87.58693718795],
      "ImageType": [
        "ORIGINAL",
        "PRIMARY",
        "M",
        "MB",
        "ND",
        "MOSAIC"
],
      "ImagedNucleus": "1H",
      "ImagingFrequency": 123.234557,
      "InPlanePhaseEncodingDirection": "COL",
      "MRAcquisitionType": "2D",
      "MagneticFieldStrength": 3.0,
      "Manufacturer": "SIEMENS",
      "ManufacturerModelName": "TrioTim",
      "Modality": "MR",
      "NumberOfAverages": 1.0,
      "NumberOfPhaseEncodingSteps": 91,
      "PercentPhaseFieldOfView": 100.0,
      "PercentSampling": 100.0,
      "PerformedProcedureStepStartTime": "132830.609000",
      "PhotometricInterpretation": "MONOCHROME2",
      "PixelBandwidth": 1923.0,
      "PixelRepresentation": 0,
      "PixelSpacing": [2.0, 2.0],
      "ProtocolName": "cmrr_mbep2d_bold_2mm_MB8_Task_8x",
      "RepetitionTime": 785.0,
      "Rows": 936,
      "SAR": 0.12794807561933,
      "SamplesPerPixel": 1,
      "ScanOptions": [
        "PFP",
        "FS"
],
      "ScanningSequence": "EP",
      "SequenceName": "epfid2d1_104",
      "SequenceVariant": [
        "SK",
        "SS"
],
      "SeriesDescription": "cmrr_mbep2d_bold_2mm_MB8_Task_8x",
      "SeriesNumber": 15,
      "SeriesTime": "142651.406000",
      "SliceLocation": -97.631821803149,
      "SliceThickness": 2.0,
      "SmallestImagePixelValue": 0,
      "SoftwareVersions": "syngo MR B19",
      "SpacingBetweenSlices": 1.999999948495,
      "SpecificCharacterSet": "ISO_IR 100",
      "StudyID": "1",
      "StudyTime": "132830.578000",
      "TransmitCoilName": "Body",
      "VariableFlipAngleFlag": "N",
      "WindowCenterWidthExplanation": "Algo1",
      "dBdt": 0.0},
    "slices": {}
  },
  "time": {
    "samples": {
      "AcquisitionNumber": [1, 2, 3, 4, 5, 6, 7, 8, 9, 10, 11, 12, 13, 14, 15, 16, 17, 18, 19, 20, 21, 22, 23, 24, 25, 26, 27, 28, 29, 30, 31, 32, 33, 34, 35, 36, 37, 38, 39, 40, 41, 42, 43, 44, 45, 46, 47, 48, 49, 50, 51, 52, 53, 54, 55, 56, 57, 58, 59, 60, 61, 62, 63, 64, 65, 66, 67, 68, 69, 70, 71, 72, 73, 74, 75, 76, 77, 78, 79, 80, 81, 82, 83, 84, 85, 86, 87, 88, 89, 90, 91, 92, 93, 94, 95, 96, 97, 98, 99, 100, 101, 102, 103, 104, 105, 106, 107, 108, 109, 110, 111, 112, 113, 114, 115, 116, 117, 118, 119, 120, 121, 122, 123, 124, 125, 126, 127, 128, 129, 130, 131, 132, 133, 134, 135, 136, 137, 138, 139, 140, 141, 142, 143, 144, 145, 146, 147, 148, 149, 150, 151, 152, 153, 154, 155, 156, 157, 158, 159, 160, 161, 162, 163, 164, 165, 166, 167, 168, 169, 170, 171, 172, 173, 174, 175, 176, 177, 178, 179, 180, 181, 182, 183, 184, 185, 186, 187, 188, 189, 190, 191, 192, 193, 194, 195, 196, 197, 198, 199, 200, 201, 202, 203, 204, 205, 206, 207, 208, 209, 210, 211, 212, 213, 214, 215, 216, 217, 218, 219, 220, 221, 222, 223, 224, 225, 226, 227, 228, 229, 230, 231, 232, 233, 234, 235, 236, 237, 238, 239, 240, 241, 242, 243, 244, 245, 246, 247, 248, 249, 250, 251, 252, 253, 254, 255, 256, 257, 258, 259, 260, 261, 262, 263, 264, 265, 266, 267, 268, 269, 270, 271, 272, 273, 274, 275, 276, 277, 278, 279, 280, 281, 282, 283, 284, 285, 286, 287, 288, 289, 290, 291, 292, 293, 294, 295, 296, 297, 298, 299, 300, 301, 302, 303, 304, 305, 306, 307, 308, 309, 310, 311, 312, 313, 314, 315, 316, 317, 318, 319, 320, 321, 322, 323, 324, 325, 326, 327, 328, 329, 330, 331, 332, 333, 334, 335, 336, 337, 338, 339, 340, 341, 342, 343, 344, 345, 346, 347, 348, 349, 350, 351, 352, 353, 354, 355, 356, 357, 358, 359, 360, 361, 362, 363, 364, 365, 366, 367, 368, 369, 370, 371, 372, 373, 374, 375, 376, 377, 378, 379, 380, 381, 382, 383, 384, 385, 386, 387, 388, 389, 390, 391, 392, 393, 394, 395, 396, 397, 398, 399, 400, 401, 402, 403, 404, 405, 406, 407, 408, 409, 410, 411, 412, 413, 414, 415, 416, 417, 418, 419, 420, 421, 422, 423, 424, 425, 426, 427, 428, 429, 430, 431, 432, 433, 434, 435, 436, 437, 438, 439, 440, 441, 442, 443, 444, 445, 446, 447, 448, 449, 450, 451, 452, 453, 454, 455, 456, 457, 458, 459, 460, 461, 462, 463, 464, 465, 466, 467, 468, 469, 470, 471, 472, 473, 474, 475, 476, 477, 478, 479, 480, 481, 482, 483, 484, 485, 486, 487, 488, 489, 490, 491, 492, 493, 494, 495, 496, 497, 498, 499, 500, 501, 502, 503, 504, 505, 506, 507, 508, 509, 510, 511, 512, 513, 514, 515, 516, 517, 518, 519, 520, 521, 522, 523, 524, 525, 526, 527, 528, 529, 530, 531, 532, 533, 534, 535, 536, 537, 538, 539, 540, 541, 542, 543, 544, 545, 546, 547, 548, 549, 550, 551, 552, 553, 554, 555, 556, 557, 558, 559, 560, 561, 562, 563, 564, 565, 566, 567, 568, 569, 570, 571, 572, 573, 574, 575, 576, 577, 578, 579, 580, 581],
      "AcquisitionTime": ["142622.710000", "142623.497500", "142624.287500", "142625.075000", "142625.862500", "142626.650000", "142627.440000", "142628.227500", "142629.015000", "142629.802500", "142630.592500", "142631.380000", "142632.167500", "142632.957500", "142633.745000", "142634.532500", "142635.320000", "142636.110000", "142636.897500", "142637.685000", "142638.472500", "142639.262500", "142640.050000", "142640.837500", "142641.625000", "142642.415000", "142643.202500", "142643.990000", "142644.777500", "142645.567500", "142646.355000", "142647.142500", "142647.930000", "142648.720000", "142649.507500", "142650.295000", "142651.085000", "142651.872500", "142652.660000", "142653.447500", "142654.237500", "142655.025000", "142655.812500", "142656.600000", "142657.390000", "142658.177500", "142658.965000", "142659.752500", "142700.542500", "142701.330000", "142702.117500", "142702.905000", "142703.695000", "142704.482500", "142705.270000", "142706.057500", "142706.847500", "142707.635000", "142708.422500", "142709.212500", "142710.000000", "142710.787500", "142711.575000", "142712.365000", "142713.152500", "142713.940000", "142714.727500", "142715.517500", "142716.305000", "142717.092500", "142717.880000", "142718.670000", "142719.457500", "142720.245000", "142721.032500", "142721.822500", "142722.610000", "142723.397500", "142724.185000", "142724.975000", "142725.762500", "142726.550000", "142727.340000", "142728.127500", "142728.915000", "142729.702500", "142730.492500", "142731.280000", "142732.067500", "142732.855000", "142733.645000", "142734.432500", "142735.220000", "142736.007500", "142736.797500", "142737.585000", "142738.372500", "142739.160000", "142739.950000", "142740.737500", "142741.525000", "142742.312500", "142743.102500", "142743.890000", "142744.677500", "142745.467500", "142746.255000", "142747.042500", "142747.830000", "142748.620000", "142749.407500", "142750.195000", "142750.982500", "142751.772500", "142752.560000", "142753.347500", "142754.135000", "142754.925000", "142755.712500", "142756.500000", "142757.287500", "142758.077500", "142758.865000", "142759.652500", "142800.440000", "142801.230000", "142802.017500", "142802.805000", "142803.595000", "142804.382500", "142805.170000", "142805.957500", "142806.747500", "142807.535000", "142808.322500", "142809.110000", "142809.900000", "142810.687500", "142811.475000", "142812.262500", "142813.052500", "142813.840000", "142814.627500", "142815.415000", "142816.205000", "142816.992500", "142817.780000", "142818.570000", "142819.357500", "142820.145000", "142820.932500", "142821.722500", "142822.510000", "142823.297500", "142824.085000", "142824.875000", "142825.662500", "142826.450000", "142827.237500", "142828.027500", "142828.815000", "142829.602500", "142830.390000", "142831.180000", "142831.967500", "142832.755000", "142833.542500", "142834.332500", "142835.120000", "142835.907500", "142836.697500", "142837.485000", "142838.272500", "142839.060000", "142839.850000", "142840.637500", "142841.425000", "142842.212500", "142843.002500", "142843.790000", "142844.577500", "142845.365000", "142846.155000", "142846.942500", "142847.730000", "142848.517500", "142849.307500", "142850.095000", "142850.882500", "142851.670000", "142852.460000", "142853.247500", "142854.035000", "142854.825000", "142855.612500", "142856.400000", "142857.187500", "142857.977500", "142858.765000", "142859.552500", "142900.340000", "142901.130000", "142901.917500", "142902.705000", "142903.492500", "142904.282500", "142905.070000", "142905.857500", "142906.645000", "142907.435000", "142908.222500", "142909.010000", "142909.797500", "142910.587500", "142911.375000", "142912.162500", "142912.952500", "142913.740000", "142914.527500", "142915.315000", "142916.105000", "142916.892500", "142917.680000", "142918.467500", "142919.257500", "142920.045000", "142920.832500", "142921.620000", "142922.410000", "142923.197500", "142923.985000", "142924.772500", "142925.562500", "142926.350000", "142927.137500", "142927.925000", "142928.715000", "142929.502500", "142930.290000", "142931.080000", "142931.867500", "142932.655000", "142933.442500", "142934.232500", "142935.020000", "142935.807500", "142936.595000", "142937.385000", "142938.172500", "142938.960000", "142939.747500", "142940.537500", "142941.325000", "142942.112500", "142942.900000", "142943.690000", "142944.477500", "142945.265000", "142946.052500", "142946.842500", "142947.630000", "142948.417500", "142949.207500", "142949.995000", "142950.782500", "142951.570000", "142952.360000", "142953.147500", "142953.935000", "142954.722500", "142955.512500", "142956.300000", "142957.087500", "142957.875000", "142958.665000", "142959.452500", "143000.240000", "143001.027500", "143001.817500", "143002.605000", "143003.392500", "143004.180000", "143004.970000", "143005.757500", "143006.545000", "143007.335000", "143008.122500", "143008.910000", "143009.697500", "143010.487500", "143011.275000", "143012.062500", "143012.850000", "143013.640000", "143014.427500", "143015.215000", "143016.002500", "143016.792500", "143017.580000", "143018.367500", "143019.155000", "143019.945000", "143020.732500", "143021.520000", "143022.307500", "143023.097500", "143023.885000", "143024.672500", "143025.462500", "143026.250000", "143027.037500", "143027.825000", "143028.615000", "143029.402500", "143030.190000", "143030.977500", "143031.767500", "143032.555000", "143033.342500", "143034.130000", "143034.920000", "143035.707500", "143036.495000", "143037.282500", "143038.072500", "143038.860000", "143039.647500", "143040.435000", "143041.225000", "143042.012500", "143042.800000", "143043.590000", "143044.377500", "143045.165000", "143045.952500", "143046.742500", "143047.530000", "143048.317500", "143049.105000", "143049.895000", "143050.682500", "143051.470000", "143052.257500", "143053.047500", "143053.835000", "143054.622500", "143055.410000", "143056.200000", "143056.987500", "143057.775000", "143058.562500", "143059.352500", "143100.140000", "143100.927500", "143101.717500", "143102.505000", "143103.292500", "143104.080000", "143104.870000", "143105.657500", "143106.445000", "143107.232500", "143108.022500", "143108.810000", "143109.597500", "143110.385000", "143111.175000", "143111.962500", "143112.750000", "143113.537500", "143114.327500", "143115.115000", "143115.902500", "143116.690000", "143117.480000", "143118.267500", "143119.055000", "143119.845000", "143120.632500", "143121.420000", "143122.207500", "143122.997500", "143123.785000", "143124.572500", "143125.360000", "143126.150000", "143126.937500", "143127.725000", "143128.512500", "143129.302500", "143130.090000", "143130.877500", "143131.665000", "143132.455000", "143133.242500", "143134.030000", "143134.820000", "143135.607500", "143136.395000", "143137.182500", "143137.972500", "143138.760000", "143139.547500", "143140.335000", "143141.125000", "143141.912500", "143142.700000", "143143.487500", "143144.277500", "143145.065000", "143145.852500", "143146.640000", "143147.430000", "143148.217500", "143149.005000", "143149.792500", "143150.582500", "143151.370000", "143152.157500", "143152.947500", "143153.735000", "143154.522500", "143155.310000", "143156.100000", "143156.887500", "143157.675000", "143158.462500", "143159.252500", "143200.040000", "143200.827500", "143201.615000", "143202.405000", "143203.192500", "143203.980000", "143204.767500", "143205.557500", "143206.345000", "143207.132500", "143207.920000", "143208.710000", "143209.497500", "143210.285000", "143211.075000", "143211.862500", "143212.650000", "143213.437500", "143214.227500", "143215.015000", "143215.802500", "143216.590000", "143217.380000", "143218.167500", "143218.955000", "143219.742500", "143220.532500", "143221.320000", "143222.107500", "143222.895000", "143223.685000", "143224.472500", "143225.260000", "143226.047500", "143226.837500", "143227.625000", "143228.412500", "143229.202500", "143229.990000", "143230.777500", "143231.565000", "143232.355000", "143233.142500", "143233.930000", "143234.717500", "143235.507500", "143236.295000", "143237.082500", "143237.870000", "143238.660000", "143239.447500", "143240.235000", "143241.022500", "143241.812500", "143242.600000", "143243.387500", "143244.175000", "143244.965000", "143245.752500", "143246.540000", "143247.330000", "143248.117500", "143248.905000", "143249.692500", "143250.482500", "143251.270000", "143252.057500", "143252.845000", "143253.635000", "143254.422500", "143255.210000", "143255.997500", "143256.787500", "143257.575000", "143258.362500", "143259.150000", "143259.940000", "143300.727500", "143301.515000", "143302.302500", "143303.092500", "143303.880000", "143304.667500", "143305.457500", "143306.245000", "143307.032500", "143307.820000", "143308.610000", "143309.397500", "143310.185000", "143310.972500", "143311.762500", "143312.550000", "143313.337500", "143314.125000", "143314.915000", "143315.702500", "143316.490000", "143317.277500", "143318.067500", "143318.855000", "143319.642500", "143320.430000", "143321.220000", "143322.007500", "143322.795000", "143323.585000", "143324.372500", "143325.160000", "143325.947500", "143326.737500", "143327.525000", "143328.312500", "143329.100000", "143329.890000", "143330.677500", "143331.465000", "143332.252500", "143333.042500", "143333.830000", "143334.617500", "143335.405000", "143336.195000", "143336.982500", "143337.770000", "143338.557500", "143339.347500", "143340.135000", "143340.922500", "143341.712500", "143342.500000", "143343.287500", "143344.075000", "143344.865000", "143345.652500", "143346.440000", "143347.227500", "143348.017500", "143348.805000", "143349.592500", "143350.380000", "143351.170000", "143351.957500", "143352.745000", "143353.532500", "143354.322500", "143355.110000", "143355.897500", "143356.685000", "143357.475000", "143358.262500", "143359.050000", "143359.840000"],
      "ContentTime": ["142651.406000", "142651.406000", "142651.406000", "142651.406000", "142651.406000", "142651.421000", "142651.421000", "142651.421000", "142651.421000", "142651.421000", "142651.421000", "142651.421000", "142651.437000", "142651.437000", "142651.437000", "142651.437000", "142651.437000", "142651.437000", "142651.437000", "142651.453000", "142651.453000", "142651.453000", "142651.453000", "142651.453000", "142651.453000", "142651.468000", "142651.468000", "142651.468000", "142651.468000", "142651.468000", "142651.468000", "142651.468000", "142651.484000", "142651.484000", "142711.375000", "142711.375000", "142711.375000", "142711.390000", "142711.390000", "142711.390000", "142711.390000", "142711.390000", "142711.390000", "142711.406000", "142711.406000", "142711.406000", "142711.406000", "142711.406000", "142711.406000", "142711.406000", "142711.421000", "142711.421000", "142711.421000", "142711.421000", "142711.421000", "142711.437000", "142711.437000", "142711.437000", "142711.437000", "142731.375000", "142731.375000", "142731.375000", "142731.390000", "142731.390000", "142731.390000", "142731.390000", "142731.390000", "142731.390000", "142731.406000", "142731.406000", "142731.406000", "142731.406000", "142731.406000", "142731.406000", "142731.406000", "142731.421000", "142731.421000", "142731.421000", "142731.421000", "142731.421000", "142731.421000", "142731.437000", "142731.437000", "142731.437000", "142751.375000", "142751.375000", "142751.375000", "142751.390000", "142751.390000", "142751.390000", "142751.390000", "142751.390000", "142751.406000", "142751.406000", "142751.406000", "142751.406000", "142751.406000", "142751.406000", "142751.406000", "142751.421000", "142751.421000", "142751.421000", "142751.421000", "142751.421000", "142751.421000", "142751.421000", "142751.437000", "142751.437000", "142751.437000", "142751.437000", "142811.375000", "142811.375000", "142811.390000", "142811.390000", "142811.390000", "142811.390000", "142811.390000", "142811.406000", "142811.406000", "142811.406000", "142811.406000", "142811.421000", "142811.421000", "142811.421000", "142811.421000", "142811.421000", "142811.421000", "142811.437000", "142811.437000", "142811.437000", "142811.437000", "142811.437000", "142811.437000", "142811.437000", "142811.453000", "142831.375000", "142831.375000", "142831.375000", "142831.390000", "142831.390000", "142831.390000", "142831.390000", "142831.390000", "142831.390000", "142831.390000", "142831.406000", "142831.406000", "142831.406000", "142831.406000", "142831.406000", "142831.406000", "142831.421000", "142831.421000", "142831.421000", "142831.421000", "142831.421000", "142831.421000", "142831.421000", "142831.437000", "142831.437000", "142831.437000", "142851.375000", "142851.375000", "142851.375000", "142851.390000", "142851.390000", "142851.390000", "142851.390000", "142851.390000", "142851.406000", "142851.406000", "142851.406000", "142851.406000", "142851.406000", "142851.406000", "142851.421000", "142851.421000", "142851.421000", "142851.421000", "142851.421000", "142851.437000", "142851.437000", "142851.437000", "142851.437000", "142851.437000", "142851.453000", "142911.375000", "142911.375000", "142911.375000", "142911.390000", "142911.390000", "142911.390000", "142911.390000", "142911.390000", "142911.390000", "142911.390000", "142911.406000", "142911.406000", "142911.406000", "142911.406000", "142911.406000", "142911.406000", "142911.421000", "142911.421000", "142911.421000", "142911.421000", "142911.421000", "142911.421000", "142911.421000", "142911.437000", "142911.437000", "142911.437000", "142931.375000", "142931.375000", "142931.375000", "142931.390000", "142931.390000", "142931.390000", "142931.390000", "142931.390000", "142931.390000", "142931.390000", "142931.406000", "142931.406000", "142931.406000", "142931.406000", "142931.406000", "142931.406000", "142931.406000", "142931.421000", "142931.421000", "142931.421000", "142931.421000", "142931.421000", "142931.421000", "142931.421000", "142931.437000", "142951.375000", "142951.375000", "142951.375000", "142951.390000", "142951.390000", "142951.390000", "142951.390000", "142951.390000", "142951.390000", "142951.406000", "142951.406000", "142951.406000", "142951.406000", "142951.406000", "142951.406000", "142951.406000", "142951.421000", "142951.421000", "142951.421000", "142951.421000", "142951.421000", "142951.421000", "142951.421000", "142951.437000", "142951.437000", "142951.437000", "143011.375000", "143011.375000", "143011.375000", "143011.390000", "143011.390000", "143011.390000", "143011.390000", "143011.390000", "143011.390000", "143011.390000", "143011.406000", "143011.406000", "143011.406000", "143011.406000", "143011.406000", "143011.406000", "143011.421000", "143011.421000", "143011.421000", "143011.421000", "143011.421000", "143011.437000", "143011.437000", "143011.437000", "143011.437000", "143031.375000", "143031.375000", "143031.375000", "143031.390000", "143031.390000", "143031.390000", "143031.390000", "143031.390000", "143031.390000", "143031.390000", "143031.406000", "143031.406000", "143031.406000", "143031.406000", "143031.406000", "143031.406000", "143031.421000", "143031.421000", "143031.421000", "143031.421000", "143031.421000", "143031.437000", "143031.437000", "143031.437000", "143031.437000", "143031.437000", "143051.375000", "143051.375000", "143051.375000", "143051.390000", "143051.390000", "143051.390000", "143051.390000", "143051.390000", "143051.390000", "143051.390000", "143051.406000", "143051.406000", "143051.406000", "143051.406000", "143051.421000", "143051.421000", "143051.421000", "143051.421000", "143051.421000", "143051.437000", "143051.437000", "143051.437000", "143051.437000", "143051.437000", "143051.437000", "143111.375000", "143111.375000", "143111.375000", "143111.390000", "143111.390000", "143111.390000", "143111.390000", "143111.390000", "143111.390000", "143111.390000", "143111.406000", "143111.406000", "143111.406000", "143111.406000", "143111.406000", "143111.406000", "143111.421000", "143111.421000", "143111.421000", "143111.421000", "143111.421000", "143111.421000", "143111.421000", "143111.437000", "143111.437000", "143111.437000", "143131.375000", "143131.375000", "143131.375000", "143131.390000", "143131.390000", "143131.390000", "143131.390000", "143131.390000", "143131.390000", "143131.390000", "143131.406000", "143131.406000", "143131.406000", "143131.406000", "143131.406000", "143131.406000", "143131.421000", "143131.421000", "143131.421000", "143131.421000", "143131.421000", "143131.421000", "143131.421000", "143131.437000", "143131.437000", "143151.375000", "143151.375000", "143151.375000", "143151.390000", "143151.390000", "143151.390000", "143151.390000", "143151.390000", "143151.390000", "143151.406000", "143151.406000", "143151.406000", "143151.406000", "143151.406000", "143151.406000", "143151.421000", "143151.421000", "143151.421000", "143151.421000", "143151.421000", "143151.421000", "143151.421000", "143151.437000", "143151.437000", "143151.437000", "143151.437000", "143211.375000", "143211.375000", "143211.375000", "143211.390000", "143211.390000", "143211.390000", "143211.390000", "143211.406000", "143211.406000", "143211.406000", "143211.406000", "143211.406000", "143211.406000", "143211.406000", "143211.421000", "143211.421000", "143211.421000", "143211.421000", "143211.421000", "143211.421000", "143211.437000", "143211.437000", "143211.437000", "143211.437000", "143211.437000", "143231.375000", "143231.375000", "143231.375000", "143231.390000", "143231.390000", "143231.390000", "143231.390000", "143231.390000", "143231.390000", "143231.390000", "143231.406000", "143231.406000", "143231.406000", "143231.406000", "143231.406000", "143231.406000", "143231.421000", "143231.421000", "143231.421000", "143231.421000", "143231.421000", "143231.421000", "143231.421000", "143231.437000", "143231.437000", "143231.437000", "143251.375000", "143251.375000", "143251.375000", "143251.390000", "143251.390000", "143251.390000", "143251.390000", "143251.390000", "143251.390000", "143251.390000", "143251.406000", "143251.406000", "143251.406000", "143251.406000", "143251.406000", "143251.406000", "143251.421000", "143251.421000", "143251.421000", "143251.421000", "143251.421000", "143251.421000", "143251.421000", "143251.437000", "143251.437000", "143311.375000", "143311.375000", "143311.375000", "143311.390000", "143311.390000", "143311.390000", "143311.390000", "143311.390000", "143311.390000", "143311.390000", "143311.406000", "143311.406000", "143311.406000", "143311.406000", "143311.406000", "143311.406000", "143311.421000", "143311.421000", "143311.421000", "143311.421000", "143311.421000", "143311.421000", "143311.421000", "143311.437000", "143311.437000", "143311.437000", "143331.375000", "143331.375000", "143331.375000", "143331.390000", "143331.390000", "143331.390000", "143331.390000", "143331.390000", "143331.390000", "143331.406000", "143331.406000", "143331.406000", "143331.406000", "143331.421000", "143331.421000", "143331.421000", "143331.421000", "143331.421000", "143331.421000", "143331.421000", "143331.437000", "143331.437000", "143331.437000", "143331.437000", "143331.437000", "143351.375000", "143351.375000", "143351.375000", "143351.390000", "143351.390000", "143351.390000", "143351.390000", "143351.390000", "143351.390000", "143351.390000", "143351.406000", "143351.406000", "143351.406000", "143351.406000", "143351.406000", "143351.406000", "143351.421000", "143351.421000", "143351.421000", "143351.421000", "143351.421000", "143351.421000", "143351.421000", "143351.437000", "143351.437000", "143351.437000", "143400.843000", "143400.843000", "143400.859000", "143400.859000", "143400.859000", "143400.859000", "143400.859000", "143400.859000", "143400.875000", "143400.875000", "143400.875000", "143400.875000"],
