{
  "AcquisitionMatrixPE": 104,
  "AcquisitionNumber": 1,
  "AcquisitionTime": "15:14:46.700000",
  "BandwidthPerPixelPhaseEncode": 13.935,
  "BaseResolution": 104,
  "CoilString": "C:HEA;HEP",
  "ConversionSoftware": "dcm2niix",
  "ConversionSoftwareVersion": "v1.0.20210317",
  "DerivedVendorReportedEchoSpacing": 0.000690017,
  "DeviceSerialNumber": "35450",
  "DwellTime": 2.5e-06,
  "EchoTime": 0.0348,
  "EffectiveEchoSpacing": 0.000690017,
  "FlipAngle": 55,
  "ImageComments": "Unaliased MB8/PE3 (remote)",
  "ImageOrientationPatientDICOM": [1, 0, 0, 0, 0.999945, -0.0104718],
  "ImageType": [
    "ORIGINAL",
    "PRIMARY",
    "M",
    "MB",
    "ND",
    "MOSAIC"
],
  "ImagingFrequency": 123.235,
  "InPlanePhaseEncodingDirectionDICOM": "COL",
  "InstitutionAddress": "Univeristy Ave. 197,Newark,North East,US,07102-1814",
  "InstitutionName": "RUBIC",
  "InstitutionalDepartmentName": "Department",
  "MRAcquisitionType": "2D",
  "MagneticFieldStrength": 3,
  "Manufacturer": "Siemens",
  "ManufacturersModelName": "TrioTim",
  "Modality": "MR",
  "MultibandAccelerationFactor": 8,
  "PartialFourier": 0.875,
  "PatientPosition": "HFS",
  "PercentPhaseFOV": 100,
  "PercentSampling": 100,
  "PhaseEncodingDirection": "j-",
  "PhaseEncodingSteps": 91,
  "PhaseResolution": 1,
  "PixelBandwidth": 1923,
  "ProcedureStepDescription": "Cole^Michael",
  "ProtocolName": "cmrr_mbep2d_bold_2mm_MB8_Task_8x",
  "PulseSequenceDetails": "%CustomerSeq%\\cmrr_mbep2d_bold",
  "ReceiveCoilName": "32Ch_Head",
  "ReconMatrixPE": 104,
  "RepetitionTime": 0.785,
  "SAR": 0.127948,
  "ScanOptions": "PFP\\FS",
  "ScanningSequence": "EP",
  "SequenceName": "epfid2d1_104",
  "SequenceVariant": "SK\\SS",
  "SeriesDescription": "cmrr_mbep2d_bold_2mm_MB8_Task_8x",
  "SeriesNumber": 27,
  "ShimSetting": [2101, -457, -7426, 707, -2, -216, -815, -38],
  "SliceThickness": 2,
  "SliceTiming": [0, 0.4375, 0.0875, 0.525, 0.175, 0.6125, 0.2625, 0.7, 0.35, 0, 0.4375, 0.0875, 0.525, 0.175, 0.6125, 0.2625, 0.7, 0.35, 0, 0.4375, 0.0875, 0.525, 0.175, 0.6125, 0.2625, 0.7, 0.35, 0, 0.4375, 0.0875, 0.525, 0.175, 0.6125, 0.2625, 0.7, 0.35, 0, 0.4375, 0.0875, 0.525, 0.175, 0.6125, 0.2625, 0.7, 0.35, 0, 0.4375, 0.0875, 0.525, 0.175, 0.6125, 0.2625, 0.7, 0.35, 0, 0.4375, 0.0875, 0.525, 0.175, 0.6125, 0.2625, 0.7, 0.35, 0, 0.4375, 0.0875, 0.525, 0.175, 0.6125, 0.2625, 0.7, 0.35],
  "SoftwareVersions": "syngo MR B19",
  "SpacingBetweenSlices": 2,
  "StationName": "MRC35450",
  "TaskName": "cpro",
  "TotalReadoutTime": 0.0710717,
  "TxRefAmp": 323.471,
  "dcmmeta_affine": [
    [-2.0, 0.0, 0.0, 105.3559341430664],
    [0.0, 1.9998903274536133, -0.020943567156791687, -78.2510986328125],
    [0.0, 0.020943567156791687, 1.9998903274536133, -98.45664978027344],
    [0.0, 0.0, 0.0, 1.0]
],
  "dcmmeta_reorient_transform": [
    [0.0, -1.0, 0.0, 103.0],
    [1.0, 0.0, 0.0, 0.0],
    [0.0, 0.0, 1.0, 0.0],
    [0.0, 0.0, 0.0, 1.0]
],
  "dcmmeta_shape": [104, 104, 72, 581],
  "dcmmeta_slice_dim": 2,
  "dcmmeta_version": 0.6,
  "global": {
    "const": {
      "AcquisitionMatrix": [104, 0, 0, 104],
      "AngioFlag": "N",
      "BitsAllocated": 16,
      "BitsStored": 12,
      "Columns": 936,
      "EchoNumbers": 1,
      "EchoTime": 34.8,
      "EchoTrainLength": 1,
      "FlipAngle": 55.0,
      "HighBit": 11,
      "ImageOrientationPatient": [1.0, 0.0, 0.0, 0.0, 0.9999451693678, -0.010471783898],
      "ImagePositionPatient": [-937.35593223572, -959.69198373456, -87.58693718795],
      "ImageType": [
        "ORIGINAL",
        "PRIMARY",
        "M",
        "MB",
        "ND",
        "MOSAIC"
],
      "ImagedNucleus": "1H",
      "ImagingFrequency": 123.234557,
      "InPlanePhaseEncodingDirection": "COL",
      "MRAcquisitionType": "2D",
      "MagneticFieldStrength": 3.0,
      "Manufacturer": "SIEMENS",
      "ManufacturerModelName": "TrioTim",
      "Modality": "MR",
      "NumberOfAverages": 1.0,
      "NumberOfPhaseEncodingSteps": 91,
      "PercentPhaseFieldOfView": 100.0,
      "PercentSampling": 100.0,
      "PerformedProcedureStepStartTime": "132830.609000",
      "PhotometricInterpretation": "MONOCHROME2",
      "PixelBandwidth": 1923.0,
      "PixelRepresentation": 0,
      "PixelSpacing": [2.0, 2.0],
      "ProtocolName": "cmrr_mbep2d_bold_2mm_MB8_Task_8x",
      "RepetitionTime": 785.0,
      "Rows": 936,
      "SAR": 0.12794807561933,
      "SamplesPerPixel": 1,
      "ScanOptions": [
        "PFP",
        "FS"
],
      "ScanningSequence": "EP",
      "SequenceName": "epfid2d1_104",
      "SequenceVariant": [
        "SK",
        "SS"
],
      "SeriesDescription": "cmrr_mbep2d_bold_2mm_MB8_Task_8x",
      "SeriesNumber": 27,
      "SeriesTime": "151511.406000",
      "SliceLocation": -97.631821803149,
      "SliceThickness": 2.0,
      "SmallestImagePixelValue": 0,
      "SoftwareVersions": "syngo MR B19",
      "SpacingBetweenSlices": 1.999999948495,
      "SpecificCharacterSet": "ISO_IR 100",
      "StudyID": "1",
      "StudyTime": "132830.578000",
      "TransmitCoilName": "Body",
      "VariableFlipAngleFlag": "N",
      "WindowCenterWidthExplanation": "Algo1",
      "dBdt": 0.0},
    "slices": {}
  },
  "time": {
    "samples": {
      "AcquisitionNumber": [1, 2, 3, 4, 5, 6, 7, 8, 9, 10, 11, 12, 13, 14, 15, 16, 17, 18, 19, 20, 21, 22, 23, 24, 25, 26, 27, 28, 29, 30, 31, 32, 33, 34, 35, 36, 37, 38, 39, 40, 41, 42, 43, 44, 45, 46, 47, 48, 49, 50, 51, 52, 53, 54, 55, 56, 57, 58, 59, 60, 61, 62, 63, 64, 65, 66, 67, 68, 69, 70, 71, 72, 73, 74, 75, 76, 77, 78, 79, 80, 81, 82, 83, 84, 85, 86, 87, 88, 89, 90, 91, 92, 93, 94, 95, 96, 97, 98, 99, 100, 101, 102, 103, 104, 105, 106, 107, 108, 109, 110, 111, 112, 113, 114, 115, 116, 117, 118, 119, 120, 121, 122, 123, 124, 125, 126, 127, 128, 129, 130, 131, 132, 133, 134, 135, 136, 137, 138, 139, 140, 141, 142, 143, 144, 145, 146, 147, 148, 149, 150, 151, 152, 153, 154, 155, 156, 157, 158, 159, 160, 161, 162, 163, 164, 165, 166, 167, 168, 169, 170, 171, 172, 173, 174, 175, 176, 177, 178, 179, 180, 181, 182, 183, 184, 185, 186, 187, 188, 189, 190, 191, 192, 193, 194, 195, 196, 197, 198, 199, 200, 201, 202, 203, 204, 205, 206, 207, 208, 209, 210, 211, 212, 213, 214, 215, 216, 217, 218, 219, 220, 221, 222, 223, 224, 225, 226, 227, 228, 229, 230, 231, 232, 233, 234, 235, 236, 237, 238, 239, 240, 241, 242, 243, 244, 245, 246, 247, 248, 249, 250, 251, 252, 253, 254, 255, 256, 257, 258, 259, 260, 261, 262, 263, 264, 265, 266, 267, 268, 269, 270, 271, 272, 273, 274, 275, 276, 277, 278, 279, 280, 281, 282, 283, 284, 285, 286, 287, 288, 289, 290, 291, 292, 293, 294, 295, 296, 297, 298, 299, 300, 301, 302, 303, 304, 305, 306, 307, 308, 309, 310, 311, 312, 313, 314, 315, 316, 317, 318, 319, 320, 321, 322, 323, 324, 325, 326, 327, 328, 329, 330, 331, 332, 333, 334, 335, 336, 337, 338, 339, 340, 341, 342, 343, 344, 345, 346, 347, 348, 349, 350, 351, 352, 353, 354, 355, 356, 357, 358, 359, 360, 361, 362, 363, 364, 365, 366, 367, 368, 369, 370, 371, 372, 373, 374, 375, 376, 377, 378, 379, 380, 381, 382, 383, 384, 385, 386, 387, 388, 389, 390, 391, 392, 393, 394, 395, 396, 397, 398, 399, 400, 401, 402, 403, 404, 405, 406, 407, 408, 409, 410, 411, 412, 413, 414, 415, 416, 417, 418, 419, 420, 421, 422, 423, 424, 425, 426, 427, 428, 429, 430, 431, 432, 433, 434, 435, 436, 437, 438, 439, 440, 441, 442, 443, 444, 445, 446, 447, 448, 449, 450, 451, 452, 453, 454, 455, 456, 457, 458, 459, 460, 461, 462, 463, 464, 465, 466, 467, 468, 469, 470, 471, 472, 473, 474, 475, 476, 477, 478, 479, 480, 481, 482, 483, 484, 485, 486, 487, 488, 489, 490, 491, 492, 493, 494, 495, 496, 497, 498, 499, 500, 501, 502, 503, 504, 505, 506, 507, 508, 509, 510, 511, 512, 513, 514, 515, 516, 517, 518, 519, 520, 521, 522, 523, 524, 525, 526, 527, 528, 529, 530, 531, 532, 533, 534, 535, 536, 537, 538, 539, 540, 541, 542, 543, 544, 545, 546, 547, 548, 549, 550, 551, 552, 553, 554, 555, 556, 557, 558, 559, 560, 561, 562, 563, 564, 565, 566, 567, 568, 569, 570, 571, 572, 573, 574, 575, 576, 577, 578, 579, 580, 581],
      "AcquisitionTime": ["151446.700000", "151447.487500", "151448.275000", "151449.062500", "151449.852500", "151450.640000", "151451.427500", "151452.215000", "151453.005000", "151453.792500", "151454.580000", "151455.367500", "151456.157500", "151456.945000", "151457.732500", "151458.520000", "151459.310000", "151500.097500", "151500.885000", "151501.672500", "151502.462500", "151503.250000", "151504.037500", "151504.827500", "151505.615000", "151506.402500", "151507.190000", "151507.980000", "151508.767500", "151509.555000", "151510.342500", "151511.132500", "151511.920000", "151512.707500", "151513.495000", "151514.285000", "151515.072500", "151515.860000", "151516.647500", "151517.437500", "151518.225000", "151519.012500", "151519.800000", "151520.590000", "151521.377500", "151522.165000", "151522.955000", "151523.742500", "151524.530000", "151525.317500", "151526.107500", "151526.895000", "151527.682500", "151528.470000", "151529.260000", "151530.047500", "151530.835000", "151531.622500", "151532.412500", "151533.200000", "151533.987500", "151534.775000", "151535.565000", "151536.352500", "151537.140000", "151537.927500", "151538.717500", "151539.505000", "151540.292500", "151541.082500", "151541.870000", "151542.657500", "151543.445000", "151544.235000", "151545.022500", "151545.810000", "151546.597500", "151547.387500", "151548.175000", "151548.962500", "151549.750000", "151550.540000", "151551.327500", "151552.115000", "151552.902500", "151553.692500", "151554.480000", "151555.267500", "151556.057500", "151556.845000", "151557.632500", "151558.420000", "151559.210000", "151559.997500", "151600.785000", "151601.572500", "151602.362500", "151603.150000", "151603.937500", "151604.725000", "151605.515000", "151606.302500", "151607.090000", "151607.877500", "151608.667500", "151609.455000", "151610.242500", "151611.030000", "151611.820000", "151612.607500", "151613.395000", "151614.185000", "151614.972500", "151615.760000", "151616.547500", "151617.337500", "151618.125000", "151618.912500", "151619.700000", "151620.490000", "151621.277500", "151622.065000", "151622.852500", "151623.642500", "151624.430000", "151625.217500", "151626.005000", "151626.795000", "151627.582500", "151628.370000", "151629.157500", "151629.947500", "151630.735000", "151631.522500", "151632.312500", "151633.100000", "151633.887500", "151634.675000", "151635.465000", "151636.252500", "151637.040000", "151637.827500", "151638.617500", "151639.405000", "151640.192500", "151640.980000", "151641.770000", "151642.557500", "151643.345000", "151644.132500", "151644.922500", "151645.710000", "151646.497500", "151647.285000", "151648.075000", "151648.862500", "151649.650000", "151650.440000", "151651.227500", "151652.015000", "151652.802500", "151653.592500", "151654.380000", "151655.167500", "151655.955000", "151656.745000", "151657.532500", "151658.320000", "151659.107500", "151659.897500", "151700.685000", "151701.472500", "151702.260000", "151703.050000", "151703.837500", "151704.625000", "151705.412500", "151706.202500", "151706.990000", "151707.777500", "151708.567500", "151709.355000", "151710.142500", "151710.930000", "151711.720000", "151712.507500", "151713.295000", "151714.082500", "151714.872500", "151715.660000", "151716.447500", "151717.235000", "151718.025000", "151718.812500", "151719.600000", "151720.387500", "151721.177500", "151721.965000", "151722.752500", "151723.540000", "151724.330000", "151725.117500", "151725.905000", "151726.695000", "151727.482500", "151728.270000", "151729.057500", "151729.847500", "151730.635000", "151731.422500", "151732.210000", "151733.000000", "151733.787500", "151734.575000", "151735.362500", "151736.152500", "151736.940000", "151737.727500", "151738.515000", "151739.305000", "151740.092500", "151740.880000", "151741.667500", "151742.457500", "151743.245000", "151744.032500", "151744.822500", "151745.610000", "151746.397500", "151747.185000", "151747.975000", "151748.762500", "151749.550000", "151750.337500", "151751.127500", "151751.915000", "151752.702500", "151753.490000", "151754.280000", "151755.067500", "151755.855000", "151756.642500", "151757.432500", "151758.220000", "151759.007500", "151759.795000", "151800.585000", "151801.372500", "151802.160000", "151802.950000", "151803.737500", "151804.525000", "151805.312500", "151806.102500", "151806.890000", "151807.677500", "151808.465000", "151809.255000", "151810.042500", "151810.830000", "151811.617500", "151812.407500", "151813.195000", "151813.982500", "151814.770000", "151815.560000", "151816.347500", "151817.135000", "151817.922500", "151818.712500", "151819.500000", "151820.287500", "151821.077500", "151821.865000", "151822.652500", "151823.440000", "151824.230000", "151825.017500", "151825.805000", "151826.592500", "151827.382500", "151828.170000", "151828.957500", "151829.745000", "151830.535000", "151831.322500", "151832.110000", "151832.897500", "151833.687500", "151834.475000", "151835.262500", "151836.050000", "151836.840000", "151837.627500", "151838.415000", "151839.205000", "151839.992500", "151840.780000", "151841.567500", "151842.357500", "151843.145000", "151843.932500", "151844.720000", "151845.510000", "151846.297500", "151847.085000", "151847.872500", "151848.662500", "151849.450000", "151850.237500", "151851.025000", "151851.815000", "151852.602500", "151853.390000", "151854.177500", "151854.967500", "151855.755000", "151856.542500", "151857.332500", "151858.120000", "151858.907500", "151859.695000", "151900.485000", "151901.272500", "151902.060000", "151902.847500", "151903.637500", "151904.425000", "151905.212500", "151906.000000", "151906.790000", "151907.577500", "151908.365000", "151909.152500", "151909.942500", "151910.730000", "151911.517500", "151912.307500", "151913.095000", "151913.882500", "151914.670000", "151915.460000", "151916.247500", "151917.035000", "151917.822500", "151918.612500", "151919.400000", "151920.187500", "151920.975000", "151921.765000", "151922.552500", "151923.340000", "151924.127500", "151924.917500", "151925.705000", "151926.492500", "151927.280000", "151928.070000", "151928.857500", "151929.645000", "151930.435000", "151931.222500", "151932.010000", "151932.797500", "151933.587500", "151934.375000", "151935.162500", "151935.950000", "151936.740000", "151937.527500", "151938.315000", "151939.102500", "151939.892500", "151940.680000", "151941.467500", "151942.255000", "151943.045000", "151943.832500", "151944.620000", "151945.407500", "151946.197500", "151946.985000", "151947.772500", "151948.562500", "151949.350000", "151950.137500", "151950.925000", "151951.715000", "151952.502500", "151953.290000", "151954.077500", "151954.867500", "151955.655000", "151956.442500", "151957.230000", "151958.020000", "151958.807500", "151959.595000", "152000.382500", "152001.172500", "152001.960000", "152002.747500", "152003.535000", "152004.325000", "152005.112500", "152005.900000", "152006.690000", "152007.477500", "152008.265000", "152009.052500", "152009.842500", "152010.630000", "152011.417500", "152012.205000", "152012.995000", "152013.782500", "152014.570000", "152015.357500", "152016.147500", "152016.935000", "152017.722500", "152018.510000", "152019.300000", "152020.087500", "152020.875000", "152021.662500", "152022.452500", "152023.240000", "152024.027500", "152024.817500", "152025.605000", "152026.392500", "152027.180000", "152027.970000", "152028.757500", "152029.545000", "152030.332500", "152031.122500", "152031.910000", "152032.697500", "152033.485000", "152034.275000", "152035.062500", "152035.850000", "152036.637500", "152037.427500", "152038.215000", "152039.002500", "152039.790000", "152040.580000", "152041.367500", "152042.155000", "152042.945000", "152043.732500", "152044.520000", "152045.307500", "152046.097500", "152046.885000", "152047.672500", "152048.460000", "152049.250000", "152050.037500", "152050.825000", "152051.612500", "152052.402500", "152053.190000", "152053.977500", "152054.765000", "152055.555000", "152056.342500", "152057.130000", "152057.917500", "152058.707500", "152059.495000", "152100.282500", "152101.072500", "152101.860000", "152102.647500", "152103.435000", "152104.225000", "152105.012500", "152105.800000", "152106.587500", "152107.377500", "152108.165000", "152108.952500", "152109.740000", "152110.530000", "152111.317500", "152112.105000", "152112.892500", "152113.682500", "152114.470000", "152115.257500", "152116.045000", "152116.835000", "152117.622500", "152118.410000", "152119.200000", "152119.987500", "152120.775000", "152121.562500", "152122.352500", "152123.140000", "152123.927500", "152124.715000", "152125.505000", "152126.292500", "152127.080000", "152127.867500", "152128.657500", "152129.445000", "152130.232500", "152131.020000", "152131.810000", "152132.597500", "152133.385000", "152134.172500", "152134.962500", "152135.750000", "152136.537500", "152137.327500", "152138.115000", "152138.902500", "152139.690000", "152140.480000", "152141.267500", "152142.055000", "152142.842500", "152143.632500", "152144.420000", "152145.207500", "152145.995000", "152146.785000", "152147.572500", "152148.360000", "152149.147500", "152149.937500", "152150.725000", "152151.512500", "152152.300000", "152153.090000", "152153.877500", "152154.665000", "152155.455000", "152156.242500", "152157.030000", "152157.817500", "152158.607500", "152159.395000", "152200.182500", "152200.970000", "152201.760000", "152202.547500", "152203.335000", "152204.122500", "152204.912500", "152205.700000", "152206.487500", "152207.275000", "152208.065000", "152208.852500", "152209.640000", "152210.427500", "152211.217500", "152212.005000", "152212.792500", "152213.582500", "152214.370000", "152215.157500", "152215.945000", "152216.735000", "152217.522500", "152218.310000", "152219.097500", "152219.887500", "152220.675000", "152221.462500", "152222.250000", "152223.040000", "152223.827500"],
      "ContentTime": ["151511.406000", "151511.406000", "151511.406000", "151511.406000", "151511.406000", "151511.421000", "151511.421000", "151511.421000", "151511.421000", "151511.421000", "151511.421000", "151511.421000", "151511.437000", "151511.437000", "151511.437000", "151511.437000", "151511.437000", "151511.453000", "151511.453000", "151511.453000", "151511.453000", "151511.453000", "151511.453000", "151511.468000", "151511.468000", "151511.468000", "151511.468000", "151511.468000", "151531.375000", "151531.375000", "151531.375000", "151531.390000", "151531.390000", "151531.390000", "151531.390000", "151531.390000", "151531.406000", "151531.406000", "151531.406000", "151531.406000", "151531.406000", "151531.406000", "151531.406000", "151531.421000", "151531.421000", "151531.421000", "151531.421000", "151531.421000", "151531.421000", "151531.421000", "151531.437000", "151531.437000", "151531.437000", "151531.437000", "151551.375000", "151551.375000", "151551.375000", "151551.390000", "151551.390000", "151551.390000", "151551.390000", "151551.390000", "151551.390000", "151551.390000", "151551.406000", "151551.406000", "151551.406000", "151551.406000", "151551.406000", "151551.406000", "151551.406000", "151551.421000", "151551.421000", "151551.421000", "151551.421000", "151551.421000", "151551.421000", "151551.421000", "151551.437000", "151611.375000", "151611.375000", "151611.375000", "151611.390000", "151611.390000", "151611.390000", "151611.390000", "151611.390000", "151611.390000", "151611.406000", "151611.406000", "151611.406000", "151611.406000", "151611.406000", "151611.406000", "151611.421000", "151611.421000", "151611.421000", "151611.421000", "151611.421000", "151611.421000", "151611.437000", "151611.437000", "151611.437000", "151611.437000", "151611.437000", "151631.375000", "151631.375000", "151631.375000", "151631.390000", "151631.390000", "151631.390000", "151631.390000", "151631.390000", "151631.390000", "151631.390000", "151631.406000", "151631.406000", "151631.406000", "151631.406000", "151631.406000", "151631.406000", "151631.406000", "151631.421000", "151631.421000", "151631.421000", "151631.421000", "151631.421000", "151631.437000", "151631.437000", "151631.437000", "151651.375000", "151651.375000", "151651.375000", "151651.390000", "151651.390000", "151651.390000", "151651.390000", "151651.390000", "151651.390000", "151651.406000", "151651.406000", "151651.406000", "151651.406000", "151651.406000", "151651.421000", "151651.421000", "151651.421000", "151651.421000", "151651.421000", "151651.421000", "151651.421000", "151651.437000", "151651.437000", "151651.437000", "151651.437000", "151651.437000", "151711.375000", "151711.375000", "151711.375000", "151711.390000", "151711.390000", "151711.390000", "151711.390000", "151711.390000", "151711.406000", "151711.406000", "151711.406000", "151711.406000", "151711.406000", "151711.406000", "151711.406000", "151711.421000", "151711.421000", "151711.421000", "151711.421000", "151711.421000", "151711.421000", "151711.421000", "151711.437000", "151711.437000", "151711.437000", "151731.375000", "151731.375000", "151731.375000", "151731.390000", "151731.390000", "151731.390000", "151731.390000", "151731.390000", "151731.390000", "151731.390000", "151731.406000", "151731.406000", "151731.406000", "151731.406000", "151731.406000", "151731.406000", "151731.406000", "151731.421000", "151731.421000", "151731.421000", "151731.421000", "151731.421000", "151731.421000", "151731.421000", "151731.437000", "151731.437000", "151751.375000", "151751.375000", "151751.375000", "151751.390000", "151751.390000", "151751.390000", "151751.390000", "151751.390000", "151751.390000", "151751.390000", "151751.406000", "151751.406000", "151751.406000", "151751.406000", "151751.406000", "151751.406000", "151751.421000", "151751.421000", "151751.421000", "151751.421000", "151751.421000", "151751.421000", "151751.421000", "151751.437000", "151751.437000", "151811.375000", "151811.375000", "151811.375000", "151811.390000", "151811.390000", "151811.390000", "151811.390000", "151811.390000", "151811.390000", "151811.406000", "151811.406000", "151811.406000", "151811.406000", "151811.406000", "151811.406000", "151811.406000", "151811.421000", "151811.421000", "151811.421000", "151811.421000", "151811.421000", "151811.421000", "151811.421000", "151811.437000", "151811.437000", "151811.437000", "151831.375000", "151831.375000", "151831.375000", "151831.390000", "151831.390000", "151831.390000", "151831.390000", "151831.390000", "151831.390000", "151831.390000", "151831.406000", "151831.406000", "151831.406000", "151831.406000", "151831.406000", "151831.406000", "151831.406000", "151831.421000", "151831.421000", "151831.421000", "151831.421000", "151831.421000", "151831.421000", "151831.421000", "151831.437000", "151851.375000", "151851.375000", "151851.390000", "151851.390000", "151851.390000", "151851.390000", "151851.390000", "151851.390000", "151851.390000", "151851.406000", "151851.406000", "151851.406000", "151851.406000", "151851.406000", "151851.406000", "151851.421000", "151851.421000", "151851.421000", "151851.421000", "151851.421000", "151851.421000", "151851.437000", "151851.437000", "151851.437000", "151851.437000", "151911.375000", "151911.375000", "151911.375000", "151911.390000", "151911.390000", "151911.390000", "151911.390000", "151911.390000", "151911.390000", "151911.390000", "151911.406000", "151911.406000", "151911.406000", "151911.406000", "151911.406000", "151911.421000", "151911.421000", "151911.421000", "151911.421000", "151911.421000", "151911.421000", "151911.421000", "151911.437000", "151911.437000", "151911.437000", "151911.437000", "151931.375000", "151931.375000", "151931.375000", "151931.390000", "151931.390000", "151931.390000", "151931.390000", "151931.406000", "151931.406000", "151931.406000", "151931.406000", "151931.406000", "151931.406000", "151931.421000", "151931.421000", "151931.421000", "151931.421000", "151931.421000", "151931.421000", "151931.437000", "151931.437000", "151931.437000", "151931.437000", "151931.437000", "151931.437000", "151951.375000", "151951.375000", "151951.375000", "151951.390000", "151951.390000", "151951.390000", "151951.390000", "151951.390000", "151951.390000", "151951.390000", "151951.406000", "151951.406000", "151951.406000", "151951.406000", "151951.406000", "151951.406000", "151951.406000", "151951.421000", "151951.421000", "151951.421000", "151951.421000", "151951.421000", "151951.421000", "151951.421000", "151951.437000", "151951.437000", "152011.375000", "152011.375000", "152011.390000", "152011.390000", "152011.390000", "152011.390000", "152011.390000", "152011.390000", "152011.406000", "152011.406000", "152011.406000", "152011.406000", "152011.406000", "152011.406000", "152011.406000", "152011.421000", "152011.421000", "152011.421000", "152011.421000", "152011.421000", "152011.437000", "152011.437000", "152011.437000", "152011.437000", "152011.437000", "152031.375000", "152031.375000", "152031.375000", "152031.390000", "152031.390000", "152031.390000", "152031.390000", "152031.390000", "152031.390000", "152031.390000", "152031.406000", "152031.406000", "152031.406000", "152031.406000", "152031.406000", "152031.406000", "152031.406000", "152031.421000", "152031.421000", "152031.421000", "152031.421000", "152031.421000", "152031.421000", "152031.421000", "152031.437000", "152031.437000", "152051.375000", "152051.375000", "152051.375000", "152051.390000", "152051.390000", "152051.390000", "152051.390000", "152051.406000", "152051.406000", "152051.406000", "152051.406000", "152051.406000", "152051.406000", "152051.421000", "152051.421000", "152051.421000", "152051.421000", "152051.421000", "152051.421000", "152051.421000", "152051.437000", "152051.437000", "152051.437000", "152051.437000", "152051.437000", "152111.375000", "152111.375000", "152111.375000", "152111.390000", "152111.390000", "152111.390000", "152111.390000", "152111.390000", "152111.390000", "152111.390000", "152111.406000", "152111.406000", "152111.406000", "152111.406000", "152111.406000", "152111.406000", "152111.406000", "152111.421000", "152111.421000", "152111.421000", "152111.421000", "152111.421000", "152111.421000", "152111.437000", "152111.437000", "152111.437000", "152131.375000", "152131.375000", "152131.375000", "152131.390000", "152131.390000", "152131.390000", "152131.390000", "152131.390000", "152131.390000", "152131.390000", "152131.406000", "152131.406000", "152131.406000", "152131.406000", "152131.406000", "152131.406000", "152131.406000", "152131.421000", "152131.421000", "152131.421000", "152131.421000", "152131.421000", "152131.437000", "152131.437000", "152131.437000", "152151.375000", "152151.375000", "152151.375000", "152151.390000", "152151.390000", "152151.390000", "152151.390000", "152151.390000", "152151.390000", "152151.390000", "152151.406000", "152151.406000", "152151.406000", "152151.406000", "152151.406000", "152151.421000", "152151.421000", "152151.421000", "152151.421000", "152151.421000", "152151.421000", "152151.437000", "152151.437000", "152151.437000", "152151.437000", "152151.437000", "152211.375000", "152211.375000", "152211.375000", "152211.390000", "152211.390000", "152211.390000", "152211.390000", "152211.390000", "152211.390000", "152211.390000", "152211.406000", "152211.406000", "152211.406000", "152211.406000", "152211.406000", "152211.406000", "152211.406000", "152211.421000", "152211.421000", "152211.421000", "152211.421000", "152211.421000", "152211.437000", "152211.437000", "152211.437000", "152224.953000", "152224.953000", "152224.953000", "152224.968000", "152224.968000", "152224.968000", "152224.968000", "152224.968000", "152224.984000", "152224.984000", "152224.984000", "152224.984000", "152224.984000", "152224.984000", "152224.984000", "152225.000000", "152225.000000", "152225.000000"],
