{
  "AcquisitionMatrixPE": 104,
  "AcquisitionNumber": 1,
  "AcquisitionTime": "14:42:22.692500",
  "BandwidthPerPixelPhaseEncode": 13.935,
  "BaseResolution": 104,
  "CoilString": "C:HEA;HEP",
  "ConversionSoftware": "dcm2niix",
  "ConversionSoftwareVersion": "v1.0.20210317",
  "DerivedVendorReportedEchoSpacing": 0.000690017,
  "DeviceSerialNumber": "35450",
  "DwellTime": 2.5e-06,
  "EchoTime": 0.0348,
  "EffectiveEchoSpacing": 0.000690017,
  "FlipAngle": 55,
  "ImageComments": "Unaliased MB8/PE3 (remote)",
  "ImageOrientationPatientDICOM": [1, 0, 0, 0, 0.999945, -0.0104718],
  "ImageType": [
    "ORIGINAL",
    "PRIMARY",
    "M",
    "MB",
    "ND",
    "MOSAIC"
],
  "ImagingFrequency": 123.235,
  "InPlanePhaseEncodingDirectionDICOM": "COL",
  "InstitutionAddress": "Univeristy Ave. 197,Newark,North East,US,07102-1814",
  "InstitutionName": "RUBIC",
  "InstitutionalDepartmentName": "Department",
  "MRAcquisitionType": "2D",
  "MagneticFieldStrength": 3,
  "Manufacturer": "Siemens",
  "ManufacturersModelName": "TrioTim",
  "Modality": "MR",
  "MultibandAccelerationFactor": 8,
  "PartialFourier": 0.875,
  "PatientPosition": "HFS",
  "PercentPhaseFOV": 100,
  "PercentSampling": 100,
  "PhaseEncodingDirection": "j-",
  "PhaseEncodingSteps": 91,
  "PhaseResolution": 1,
  "PixelBandwidth": 1923,
  "ProcedureStepDescription": "Cole^Michael",
  "ProtocolName": "cmrr_mbep2d_bold_2mm_MB8_Task_8x",
  "PulseSequenceDetails": "%CustomerSeq%\\cmrr_mbep2d_bold",
  "ReceiveCoilName": "32Ch_Head",
  "ReconMatrixPE": 104,
  "RepetitionTime": 0.785,
  "SAR": 0.127948,
  "ScanOptions": "PFP\\FS",
  "ScanningSequence": "EP",
  "SequenceName": "epfid2d1_104",
  "SequenceVariant": "SK\\SS",
  "SeriesDescription": "cmrr_mbep2d_bold_2mm_MB8_Task_8x",
  "SeriesNumber": 19,
  "ShimSetting": [2101, -457, -7426, 707, -2, -216, -815, -38],
  "SliceThickness": 2,
  "SliceTiming": [0, 0.4375, 0.0875, 0.525, 0.175, 0.6125, 0.2625, 0.7, 0.35, 0, 0.4375, 0.0875, 0.525, 0.175, 0.6125, 0.2625, 0.7, 0.35, 0, 0.4375, 0.0875, 0.525, 0.175, 0.6125, 0.2625, 0.7, 0.35, 0, 0.4375, 0.0875, 0.525, 0.175, 0.6125, 0.2625, 0.7, 0.35, 0, 0.4375, 0.0875, 0.525, 0.175, 0.6125, 0.2625, 0.7, 0.35, 0, 0.4375, 0.0875, 0.525, 0.175, 0.6125, 0.2625, 0.7, 0.35, 0, 0.4375, 0.0875, 0.525, 0.175, 0.6125, 0.2625, 0.7, 0.35, 0, 0.4375, 0.0875, 0.525, 0.175, 0.6125, 0.2625, 0.7, 0.35],
  "SoftwareVersions": "syngo MR B19",
  "SpacingBetweenSlices": 2,
  "StationName": "MRC35450",
  "TaskName": "cpro",
  "TotalReadoutTime": 0.0710717,
  "TxRefAmp": 323.471,
  "dcmmeta_affine": [
    [-2.0, 0.0, 0.0, 105.3559341430664],
    [0.0, 1.9998903274536133, -0.020943567156791687, -78.2510986328125],
    [0.0, 0.020943567156791687, 1.9998903274536133, -98.45664978027344],
    [0.0, 0.0, 0.0, 1.0]
],
  "dcmmeta_reorient_transform": [
    [0.0, -1.0, 0.0, 103.0],
    [1.0, 0.0, 0.0, 0.0],
    [0.0, 0.0, 1.0, 0.0],
    [0.0, 0.0, 0.0, 1.0]
],
  "dcmmeta_shape": [104, 104, 72, 581],
  "dcmmeta_slice_dim": 2,
  "dcmmeta_version": 0.6,
  "global": {
    "const": {
      "AcquisitionMatrix": [104, 0, 0, 104],
      "AngioFlag": "N",
      "BitsAllocated": 16,
      "BitsStored": 12,
      "Columns": 936,
      "EchoNumbers": 1,
      "EchoTime": 34.8,
      "EchoTrainLength": 1,
      "FlipAngle": 55.0,
      "HighBit": 11,
      "ImageOrientationPatient": [1.0, 0.0, 0.0, 0.0, 0.9999451693678, -0.010471783898],
      "ImagePositionPatient": [-937.35593223572, -959.69198373456, -87.58693718795],
      "ImageType": [
        "ORIGINAL",
        "PRIMARY",
        "M",
        "MB",
        "ND",
        "MOSAIC"
],
      "ImagedNucleus": "1H",
      "ImagingFrequency": 123.234557,
      "InPlanePhaseEncodingDirection": "COL",
      "MRAcquisitionType": "2D",
      "MagneticFieldStrength": 3.0,
      "Manufacturer": "SIEMENS",
      "ManufacturerModelName": "TrioTim",
      "Modality": "MR",
      "NumberOfAverages": 1.0,
      "NumberOfPhaseEncodingSteps": 91,
      "PercentPhaseFieldOfView": 100.0,
      "PercentSampling": 100.0,
      "PerformedProcedureStepStartTime": "132830.609000",
      "PhotometricInterpretation": "MONOCHROME2",
      "PixelBandwidth": 1923.0,
      "PixelRepresentation": 0,
      "PixelSpacing": [2.0, 2.0],
      "ProtocolName": "cmrr_mbep2d_bold_2mm_MB8_Task_8x",
      "RepetitionTime": 785.0,
      "Rows": 936,
      "SAR": 0.12794807561933,
      "SamplesPerPixel": 1,
      "ScanOptions": [
        "PFP",
        "FS"
],
      "ScanningSequence": "EP",
      "SequenceName": "epfid2d1_104",
      "SequenceVariant": [
        "SK",
        "SS"
],
      "SeriesDescription": "cmrr_mbep2d_bold_2mm_MB8_Task_8x",
      "SeriesNumber": 19,
      "SeriesTime": "144242.546000",
      "SliceLocation": -97.631821803149,
      "SliceThickness": 2.0,
      "SmallestImagePixelValue": 0,
      "SoftwareVersions": "syngo MR B19",
      "SpacingBetweenSlices": 1.999999948495,
      "SpecificCharacterSet": "ISO_IR 100",
      "StudyID": "1",
      "StudyTime": "132830.578000",
      "TransmitCoilName": "Body",
      "VariableFlipAngleFlag": "N",
      "WindowCenterWidthExplanation": "Algo1",
      "dBdt": 0.0},
    "slices": {}
  },
  "time": {
    "samples": {
      "AcquisitionNumber": [1, 2, 3, 4, 5, 6, 7, 8, 9, 10, 11, 12, 13, 14, 15, 16, 17, 18, 19, 20, 21, 22, 23, 24, 25, 26, 27, 28, 29, 30, 31, 32, 33, 34, 35, 36, 37, 38, 39, 40, 41, 42, 43, 44, 45, 46, 47, 48, 49, 50, 51, 52, 53, 54, 55, 56, 57, 58, 59, 60, 61, 62, 63, 64, 65, 66, 67, 68, 69, 70, 71, 72, 73, 74, 75, 76, 77, 78, 79, 80, 81, 82, 83, 84, 85, 86, 87, 88, 89, 90, 91, 92, 93, 94, 95, 96, 97, 98, 99, 100, 101, 102, 103, 104, 105, 106, 107, 108, 109, 110, 111, 112, 113, 114, 115, 116, 117, 118, 119, 120, 121, 122, 123, 124, 125, 126, 127, 128, 129, 130, 131, 132, 133, 134, 135, 136, 137, 138, 139, 140, 141, 142, 143, 144, 145, 146, 147, 148, 149, 150, 151, 152, 153, 154, 155, 156, 157, 158, 159, 160, 161, 162, 163, 164, 165, 166, 167, 168, 169, 170, 171, 172, 173, 174, 175, 176, 177, 178, 179, 180, 181, 182, 183, 184, 185, 186, 187, 188, 189, 190, 191, 192, 193, 194, 195, 196, 197, 198, 199, 200, 201, 202, 203, 204, 205, 206, 207, 208, 209, 210, 211, 212, 213, 214, 215, 216, 217, 218, 219, 220, 221, 222, 223, 224, 225, 226, 227, 228, 229, 230, 231, 232, 233, 234, 235, 236, 237, 238, 239, 240, 241, 242, 243, 244, 245, 246, 247, 248, 249, 250, 251, 252, 253, 254, 255, 256, 257, 258, 259, 260, 261, 262, 263, 264, 265, 266, 267, 268, 269, 270, 271, 272, 273, 274, 275, 276, 277, 278, 279, 280, 281, 282, 283, 284, 285, 286, 287, 288, 289, 290, 291, 292, 293, 294, 295, 296, 297, 298, 299, 300, 301, 302, 303, 304, 305, 306, 307, 308, 309, 310, 311, 312, 313, 314, 315, 316, 317, 318, 319, 320, 321, 322, 323, 324, 325, 326, 327, 328, 329, 330, 331, 332, 333, 334, 335, 336, 337, 338, 339, 340, 341, 342, 343, 344, 345, 346, 347, 348, 349, 350, 351, 352, 353, 354, 355, 356, 357, 358, 359, 360, 361, 362, 363, 364, 365, 366, 367, 368, 369, 370, 371, 372, 373, 374, 375, 376, 377, 378, 379, 380, 381, 382, 383, 384, 385, 386, 387, 388, 389, 390, 391, 392, 393, 394, 395, 396, 397, 398, 399, 400, 401, 402, 403, 404, 405, 406, 407, 408, 409, 410, 411, 412, 413, 414, 415, 416, 417, 418, 419, 420, 421, 422, 423, 424, 425, 426, 427, 428, 429, 430, 431, 432, 433, 434, 435, 436, 437, 438, 439, 440, 441, 442, 443, 444, 445, 446, 447, 448, 449, 450, 451, 452, 453, 454, 455, 456, 457, 458, 459, 460, 461, 462, 463, 464, 465, 466, 467, 468, 469, 470, 471, 472, 473, 474, 475, 476, 477, 478, 479, 480, 481, 482, 483, 484, 485, 486, 487, 488, 489, 490, 491, 492, 493, 494, 495, 496, 497, 498, 499, 500, 501, 502, 503, 504, 505, 506, 507, 508, 509, 510, 511, 512, 513, 514, 515, 516, 517, 518, 519, 520, 521, 522, 523, 524, 525, 526, 527, 528, 529, 530, 531, 532, 533, 534, 535, 536, 537, 538, 539, 540, 541, 542, 543, 544, 545, 546, 547, 548, 549, 550, 551, 552, 553, 554, 555, 556, 557, 558, 559, 560, 561, 562, 563, 564, 565, 566, 567, 568, 569, 570, 571, 572, 573, 574, 575, 576, 577, 578, 579, 580, 581],
      "AcquisitionTime": ["144222.692500", "144223.480000", "144224.267500", "144225.055000", "144225.845000", "144226.632500", "144227.420000", "144228.207500", "144228.997500", "144229.785000", "144230.572500", "144231.360000", "144232.150000", "144232.937500", "144233.725000", "144234.515000", "144235.302500", "144236.090000", "144236.877500", "144237.667500", "144238.455000", "144239.242500", "144240.030000", "144240.820000", "144241.607500", "144242.395000", "144243.182500", "144243.972500", "144244.760000", "144245.547500", "144246.335000", "144247.125000", "144247.912500", "144248.700000", "144249.487500", "144250.277500", "144251.065000", "144251.852500", "144252.642500", "144253.430000", "144254.217500", "144255.005000", "144255.795000", "144256.582500", "144257.370000", "144258.157500", "144258.947500", "144259.735000", "144300.522500", "144301.310000", "144302.100000", "144302.887500", "144303.675000", "144304.462500", "144305.252500", "144306.040000", "144306.827500", "144307.615000", "144308.405000", "144309.192500", "144309.980000", "144310.770000", "144311.557500", "144312.345000", "144313.132500", "144313.922500", "144314.710000", "144315.497500", "144316.285000", "144317.075000", "144317.862500", "144318.650000", "144319.437500", "144320.227500", "144321.015000", "144321.802500", "144322.590000", "144323.380000", "144324.167500", "144324.955000", "144325.742500", "144326.532500", "144327.320000", "144328.107500", "144328.897500", "144329.685000", "144330.472500", "144331.260000", "144332.050000", "144332.837500", "144333.625000", "144334.412500", "144335.202500", "144335.990000", "144336.777500", "144337.565000", "144338.355000", "144339.142500", "144339.930000", "144340.717500", "144341.507500", "144342.295000", "144343.082500", "144343.872500", "144344.660000", "144345.447500", "144346.235000", "144347.025000", "144347.812500", "144348.600000", "144349.387500", "144350.177500", "144350.965000", "144351.752500", "144352.540000", "144353.330000", "144354.117500", "144354.905000", "144355.692500", "144356.482500", "144357.270000", "144358.057500", "144358.845000", "144359.635000", "144400.422500", "144401.210000", "144402.000000", "144402.787500", "144403.575000", "144404.362500", "144405.152500", "144405.940000", "144406.727500", "144407.515000", "144408.305000", "144409.092500", "144409.880000", "144410.667500", "144411.457500", "144412.245000", "144413.032500", "144413.820000", "144414.610000", "144415.397500", "144416.185000", "144416.972500", "144417.762500", "144418.550000", "144419.337500", "144420.127500", "144420.915000", "144421.702500", "144422.490000", "144423.280000", "144424.067500", "144424.855000", "144425.642500", "144426.432500", "144427.220000", "144428.007500", "144428.795000", "144429.585000", "144430.372500", "144431.160000", "144431.947500", "144432.737500", "144433.525000", "144434.312500", "144435.100000", "144435.890000", "144436.677500", "144437.465000", "144438.255000", "144439.042500", "144439.830000", "144440.617500", "144441.407500", "144442.195000", "144442.982500", "144443.770000", "144444.560000", "144445.347500", "144446.135000", "144446.922500", "144447.712500", "144448.500000", "144449.287500", "144450.075000", "144450.865000", "144451.652500", "144452.440000", "144453.227500", "144454.017500", "144454.805000", "144455.592500", "144456.382500", "144457.170000", "144457.957500", "144458.745000", "144459.535000", "144500.322500", "144501.110000", "144501.897500", "144502.687500", "144503.475000", "144504.262500", "144505.050000", "144505.840000", "144506.627500", "144507.415000", "144508.202500", "144508.992500", "144509.780000", "144510.567500", "144511.355000", "144512.145000", "144512.932500", "144513.720000", "144514.510000", "144515.297500", "144516.085000", "144516.872500", "144517.662500", "144518.450000", "144519.237500", "144520.025000", "144520.815000", "144521.602500", "144522.390000", "144523.177500", "144523.967500", "144524.755000", "144525.542500", "144526.330000", "144527.120000", "144527.907500", "144528.695000", "144529.482500", "144530.272500", "144531.060000", "144531.847500", "144532.637500", "144533.425000", "144534.212500", "144535.000000", "144535.790000", "144536.577500", "144537.365000", "144538.152500", "144538.942500", "144539.730000", "144540.517500", "144541.305000", "144542.095000", "144542.882500", "144543.670000", "144544.457500", "144545.247500", "144546.035000", "144546.822500", "144547.610000", "144548.400000", "144549.187500", "144549.975000", "144550.765000", "144551.552500", "144552.340000", "144553.127500", "144553.917500", "144554.705000", "144555.492500", "144556.280000", "144557.070000", "144557.857500", "144558.645000", "144559.432500", "144600.222500", "144601.010000", "144601.797500", "144602.585000", "144603.375000", "144604.162500", "144604.950000", "144605.737500", "144606.527500", "144607.315000", "144608.102500", "144608.892500", "144609.680000", "144610.467500", "144611.255000", "144612.045000", "144612.832500", "144613.620000", "144614.407500", "144615.197500", "144615.985000", "144616.772500", "144617.560000", "144618.350000", "144619.137500", "144619.925000", "144620.712500", "144621.502500", "144622.290000", "144623.077500", "144623.865000", "144624.655000", "144625.442500", "144626.230000", "144627.020000", "144627.807500", "144628.595000", "144629.382500", "144630.172500", "144630.960000", "144631.747500", "144632.535000", "144633.325000", "144634.112500", "144634.900000", "144635.687500", "144636.477500", "144637.265000", "144638.052500", "144638.840000", "144639.630000", "144640.417500", "144641.205000", "144641.992500", "144642.782500", "144643.570000", "144644.357500", "144645.147500", "144645.935000", "144646.722500", "144647.510000", "144648.300000", "144649.087500", "144649.875000", "144650.662500", "144651.452500", "144652.240000", "144653.027500", "144653.815000", "144654.605000", "144655.392500", "144656.180000", "144656.967500", "144657.757500", "144658.545000", "144659.332500", "144700.122500", "144700.910000", "144701.697500", "144702.485000", "144703.275000", "144704.062500", "144704.850000", "144705.637500", "144706.427500", "144707.215000", "144708.002500", "144708.790000", "144709.580000", "144710.367500", "144711.155000", "144711.942500", "144712.732500", "144713.520000", "144714.307500", "144715.095000", "144715.885000", "144716.672500", "144717.460000", "144718.250000", "144719.037500", "144719.825000", "144720.612500", "144721.402500", "144722.190000", "144722.977500", "144723.765000", "144724.555000", "144725.342500", "144726.130000", "144726.917500", "144727.707500", "144728.495000", "144729.282500", "144730.070000", "144730.860000", "144731.647500", "144732.435000", "144733.222500", "144734.012500", "144734.800000", "144735.587500", "144736.377500", "144737.165000", "144737.952500", "144738.740000", "144739.530000", "144740.317500", "144741.105000", "144741.892500", "144742.682500", "144743.470000", "144744.257500", "144745.045000", "144745.835000", "144746.622500", "144747.410000", "144748.197500", "144748.987500", "144749.775000", "144750.562500", "144751.350000", "144752.140000", "144752.927500", "144753.715000", "144754.505000", "144755.292500", "144756.080000", "144756.867500", "144757.657500", "144758.445000", "144759.232500", "144800.020000", "144800.810000", "144801.597500", "144802.385000", "144803.172500", "144803.962500", "144804.750000", "144805.537500", "144806.325000", "144807.115000", "144807.902500", "144808.690000", "144809.477500", "144810.267500", "144811.055000", "144811.842500", "144812.632500", "144813.420000", "144814.207500", "144814.995000", "144815.785000", "144816.572500", "144817.360000", "144818.147500", "144818.937500", "144819.725000", "144820.512500", "144821.300000", "144822.090000", "144822.877500", "144823.665000", "144824.452500", "144825.242500", "144826.030000", "144826.817500", "144827.605000", "144828.395000", "144829.182500", "144829.970000", "144830.760000", "144831.547500", "144832.335000", "144833.122500", "144833.912500", "144834.700000", "144835.487500", "144836.275000", "144837.065000", "144837.852500", "144838.640000", "144839.427500", "144840.217500", "144841.005000", "144841.792500", "144842.580000", "144843.370000", "144844.157500", "144844.945000", "144845.732500", "144846.522500", "144847.310000", "144848.097500", "144848.887500", "144849.675000", "144850.462500", "144851.250000", "144852.040000", "144852.827500", "144853.615000", "144854.402500", "144855.192500", "144855.980000", "144856.767500", "144857.555000", "144858.345000", "144859.132500", "144859.920000", "144900.707500", "144901.497500", "144902.285000", "144903.072500", "144903.860000", "144904.650000", "144905.437500", "144906.225000", "144907.015000", "144907.802500", "144908.590000", "144909.377500", "144910.167500", "144910.955000", "144911.742500", "144912.530000", "144913.320000", "144914.107500", "144914.895000", "144915.682500", "144916.472500", "144917.260000", "144918.047500", "144918.835000", "144919.625000", "144920.412500", "144921.200000", "144921.987500", "144922.777500", "144923.565000", "144924.352500", "144925.142500", "144925.930000", "144926.717500", "144927.505000", "144928.295000", "144929.082500", "144929.870000", "144930.657500", "144931.447500", "144932.235000", "144933.022500", "144933.810000", "144934.600000", "144935.387500", "144936.175000", "144936.962500", "144937.752500", "144938.540000", "144939.327500", "144940.115000", "144940.905000", "144941.692500", "144942.480000", "144943.270000", "144944.057500", "144944.845000", "144945.632500", "144946.422500", "144947.210000", "144947.997500", "144948.785000", "144949.575000", "144950.362500", "144951.150000", "144951.937500", "144952.727500", "144953.515000", "144954.302500", "144955.090000", "144955.880000", "144956.667500", "144957.455000", "144958.242500", "144959.032500", "144959.820000"],
      "ContentTime": ["144242.546000", "144242.546000", "144242.546000", "144242.546000", "144242.546000", "144242.562000", "144242.562000", "144242.562000", "144242.562000", "144242.562000", "144242.562000", "144242.562000", "144242.578000", "144242.578000", "144242.578000", "144242.578000", "144242.578000", "144242.578000", "144242.578000", "144242.593000", "144242.593000", "144242.593000", "144302.515000", "144302.515000", "144302.515000", "144302.531000", "144302.531000", "144302.531000", "144302.531000", "144302.531000", "144302.531000", "144302.531000", "144302.546000", "144302.546000", "144302.546000", "144302.546000", "144302.546000", "144302.546000", "144302.546000", "144302.562000", "144302.562000", "144302.562000", "144302.562000", "144302.562000", "144302.562000", "144302.562000", "144302.578000", "144302.578000", "144322.515000", "144322.515000", "144322.515000", "144322.531000", "144322.531000", "144322.531000", "144322.531000", "144322.531000", "144322.531000", "144322.531000", "144322.546000", "144322.546000", "144322.546000", "144322.546000", "144322.546000", "144322.546000", "144322.546000", "144322.562000", "144322.562000", "144322.562000", "144322.562000", "144322.578000", "144322.578000", "144322.578000", "144322.578000", "144342.515000", "144342.515000", "144342.515000", "144342.531000", "144342.531000", "144342.531000", "144342.531000", "144342.531000", "144342.531000", "144342.531000", "144342.546000", "144342.546000", "144342.546000", "144342.562000", "144342.562000", "144342.562000", "144342.562000", "144342.562000", "144342.562000", "144342.578000", "144342.578000", "144342.578000", "144342.578000", "144342.578000", "144342.578000", "144342.578000", "144402.515000", "144402.515000", "144402.515000", "144402.531000", "144402.531000", "144402.531000", "144402.531000", "144402.531000", "144402.531000", "144402.531000", "144402.546000", "144402.546000", "144402.546000", "144402.546000", "144402.546000", "144402.546000", "144402.546000", "144402.562000", "144402.562000", "144402.562000", "144402.562000", "144402.562000", "144402.562000", "144402.578000", "144402.578000", "144422.515000", "144422.515000", "144422.515000", "144422.531000", "144422.531000", "144422.531000", "144422.531000", "144422.531000", "144422.531000", "144422.531000", "144422.546000", "144422.546000", "144422.546000", "144422.546000", "144422.546000", "144422.546000", "144422.546000", "144422.562000", "144422.562000", "144422.562000", "144422.562000", "144422.562000", "144422.562000", "144422.562000", "144422.578000", "144422.578000", "144442.515000", "144442.515000", "144442.515000", "144442.531000", "144442.531000", "144442.531000", "144442.531000", "144442.531000", "144442.531000", "144442.531000", "144442.546000", "144442.546000", "144442.546000", "144442.546000", "144442.546000", "144442.546000", "144442.562000", "144442.562000", "144442.562000", "144442.562000", "144442.562000", "144442.578000", "144442.578000", "144442.578000", "144442.578000", "144502.515000", "144502.546000", "144502.546000", "144502.546000", "144502.546000", "144502.546000", "144502.546000", "144502.562000", "144502.562000", "144502.562000", "144502.562000", "144502.562000", "144502.562000", "144502.562000", "144502.578000", "144502.578000", "144502.578000", "144502.578000", "144502.578000", "144502.578000", "144502.578000", "144502.593000", "144502.593000", "144502.593000", "144502.593000", "144502.593000", "144522.515000", "144522.515000", "144522.515000", "144522.531000", "144522.531000", "144522.531000", "144522.531000", "144522.531000", "144522.531000", "144522.531000", "144522.546000", "144522.546000", "144522.546000", "144522.546000", "144522.546000", "144522.546000", "144522.546000", "144522.562000", "144522.562000", "144522.562000", "144522.562000", "144522.562000", "144522.562000", "144522.562000", "144522.578000", "144542.515000", "144542.515000", "144542.531000", "144542.531000", "144542.531000", "144542.531000", "144542.546000", "144542.546000", "144542.546000", "144542.546000", "144542.546000", "144542.546000", "144542.562000", "144542.562000", "144542.562000", "144542.562000", "144542.562000", "144542.578000", "144542.578000", "144542.578000", "144542.578000", "144542.578000", "144542.578000", "144542.578000", "144542.593000", "144602.515000", "144602.515000", "144602.515000", "144602.531000", "144602.531000", "144602.531000", "144602.531000", "144602.531000", "144602.531000", "144602.531000", "144602.546000", "144602.546000", "144602.546000", "144602.546000", "144602.546000", "144602.546000", "144602.546000", "144602.562000", "144602.562000", "144602.562000", "144602.562000", "144602.562000", "144602.562000", "144602.562000", "144602.578000", "144602.578000", "144622.515000", "144622.515000", "144622.515000", "144622.531000", "144622.531000", "144622.531000", "144622.531000", "144622.531000", "144622.531000", "144622.546000", "144622.546000", "144622.546000", "144622.546000", "144622.546000", "144622.546000", "144622.546000", "144622.562000", "144622.562000", "144622.562000", "144622.562000", "144622.562000", "144622.562000", "144622.578000", "144622.578000", "144622.578000", "144642.515000", "144642.515000", "144642.515000", "144642.531000", "144642.531000", "144642.531000", "144642.531000", "144642.531000", "144642.531000", "144642.531000", "144642.546000", "144642.546000", "144642.546000", "144642.546000", "144642.546000", "144642.546000", "144642.546000", "144642.562000", "144642.562000", "144642.562000", "144642.562000", "144642.562000", "144642.562000", "144642.562000", "144642.578000", "144642.578000", "144702.515000", "144702.515000", "144702.515000", "144702.531000", "144702.531000", "144702.531000", "144702.531000", "144702.531000", "144702.531000", "144702.531000", "144702.546000", "144702.546000", "144702.546000", "144702.546000", "144702.546000", "144702.546000", "144702.562000", "144702.562000", "144702.562000", "144702.562000", "144702.562000", "144702.562000", "144702.562000", "144702.578000", "144702.578000", "144722.515000", "144722.515000", "144722.515000", "144722.531000", "144722.531000", "144722.531000", "144722.531000", "144722.531000", "144722.531000", "144722.546000", "144722.546000", "144722.546000", "144722.546000", "144722.546000", "144722.546000", "144722.546000", "144722.562000", "144722.562000", "144722.562000", "144722.562000", "144722.562000", "144722.562000", "144722.562000", "144722.578000", "144722.578000", "144722.578000", "144742.515000", "144742.515000", "144742.515000", "144742.531000", "144742.531000", "144742.531000", "144742.531000", "144742.531000", "144742.531000", "144742.531000", "144742.546000", "144742.546000", "144742.546000", "144742.546000", "144742.546000", "144742.546000", "144742.562000", "144742.562000", "144742.562000", "144742.562000", "144742.562000", "144742.562000", "144742.562000", "144742.578000", "144742.578000", "144802.515000", "144802.515000", "144802.515000", "144802.531000", "144802.531000", "144802.531000", "144802.531000", "144802.531000", "144802.531000", "144802.531000", "144802.546000", "144802.546000", "144802.546000", "144802.546000", "144802.546000", "144802.546000", "144802.562000", "144802.562000", "144802.562000", "144802.562000", "144802.562000", "144802.562000", "144802.578000", "144802.578000", "144802.578000", "144802.578000", "144822.515000", "144822.515000", "144822.515000", "144822.531000", "144822.531000", "144822.531000", "144822.531000", "144822.531000", "144822.531000", "144822.531000", "144822.546000", "144822.546000", "144822.546000", "144822.546000", "144822.546000", "144822.546000", "144822.546000", "144822.562000", "144822.562000", "144822.562000", "144822.562000", "144822.562000", "144822.562000", "144822.562000", "144822.578000", "144842.515000", "144842.515000", "144842.515000", "144842.531000", "144842.531000", "144842.531000", "144842.531000", "144842.531000", "144842.531000", "144842.531000", "144842.546000", "144842.546000", "144842.546000", "144842.546000", "144842.546000", "144842.546000", "144842.546000", "144842.562000", "144842.562000", "144842.562000", "144842.562000", "144842.562000", "144842.562000", "144842.562000", "144842.578000", "144842.578000", "144902.515000", "144902.515000", "144902.515000", "144902.531000", "144902.531000", "144902.531000", "144902.531000", "144902.546000", "144902.546000", "144902.546000", "144902.546000", "144902.546000", "144902.546000", "144902.546000", "144902.562000", "144902.562000", "144902.562000", "144902.562000", "144902.562000", "144902.578000", "144902.578000", "144902.578000", "144902.578000", "144902.578000", "144902.578000", "144922.515000", "144922.515000", "144922.515000", "144922.531000", "144922.531000", "144922.531000", "144922.531000", "144922.546000", "144922.546000", "144922.546000", "144922.546000", "144922.546000", "144922.546000", "144922.546000", "144922.562000", "144922.562000", "144922.562000", "144922.562000", "144922.562000", "144922.562000", "144922.562000", "144922.578000", "144922.578000", "144922.578000", "144922.578000", "144922.578000", "144942.515000", "144942.515000", "144942.515000", "144942.531000", "144942.531000", "144942.531000", "144942.531000", "144942.531000", "144942.531000", "144942.531000", "144942.546000", "144942.546000", "144942.546000", "144942.546000", "144942.546000", "144942.546000", "144942.546000", "144942.562000", "144942.562000", "144942.562000", "144942.562000", "144942.562000", "144942.562000", "144942.578000", "144942.578000", "145000.859000", "145000.859000", "145000.859000", "145000.859000", "145000.859000", "145000.859000", "145000.875000", "145000.875000", "145000.875000", "145000.875000", "145000.875000", "145000.875000", "145000.875000", "145000.890000", "145000.890000", "145000.890000", "145000.890000", "145000.890000", "145000.890000", "145000.890000", "145000.906000", "145000.906000", "145000.906000", "145000.906000"],
