{
  "AcquisitionMatrixPE": 104,
  "AcquisitionNumber": 1,
  "AcquisitionTime": "14:50:25.692500",
  "BandwidthPerPixelPhaseEncode": 13.935,
  "BaseResolution": 104,
  "CoilString": "C:HEA;HEP",
  "ConversionSoftware": "dcm2niix",
  "ConversionSoftwareVersion": "v1.0.20210317",
  "DerivedVendorReportedEchoSpacing": 0.000690017,
  "DeviceSerialNumber": "35450",
  "DwellTime": 2.5e-06,
  "EchoTime": 0.0348,
  "EffectiveEchoSpacing": 0.000690017,
  "FlipAngle": 55,
  "ImageComments": "Unaliased MB8/PE3 (remote)",
  "ImageOrientationPatientDICOM": [1, 0, 0, 0, 0.999945, -0.0104718],
  "ImageType": [
    "ORIGINAL",
    "PRIMARY",
    "M",
    "MB",
    "ND",
    "MOSAIC"
],
  "ImagingFrequency": 123.235,
  "InPlanePhaseEncodingDirectionDICOM": "COL",
  "InstitutionAddress": "Univeristy Ave. 197,Newark,North East,US,07102-1814",
  "InstitutionName": "RUBIC",
  "InstitutionalDepartmentName": "Department",
  "MRAcquisitionType": "2D",
  "MagneticFieldStrength": 3,
  "Manufacturer": "Siemens",
  "ManufacturersModelName": "TrioTim",
  "Modality": "MR",
  "MultibandAccelerationFactor": 8,
  "PartialFourier": 0.875,
  "PatientPosition": "HFS",
  "PercentPhaseFOV": 100,
  "PercentSampling": 100,
  "PhaseEncodingDirection": "j-",
  "PhaseEncodingSteps": 91,
  "PhaseResolution": 1,
  "PixelBandwidth": 1923,
  "ProcedureStepDescription": "Cole^Michael",
  "ProtocolName": "cmrr_mbep2d_bold_2mm_MB8_Task_8x",
  "PulseSequenceDetails": "%CustomerSeq%\\cmrr_mbep2d_bold",
  "ReceiveCoilName": "32Ch_Head",
  "ReconMatrixPE": 104,
  "RepetitionTime": 0.785,
  "SAR": 0.127948,
  "ScanOptions": "PFP\\FS",
  "ScanningSequence": "EP",
  "SequenceName": "epfid2d1_104",
  "SequenceVariant": "SK\\SS",
  "SeriesDescription": "cmrr_mbep2d_bold_2mm_MB8_Task_8x",
  "SeriesNumber": 21,
  "ShimSetting": [2101, -457, -7426, 707, -2, -216, -815, -38],
  "SliceThickness": 2,
  "SliceTiming": [0, 0.4375, 0.0875, 0.525, 0.175, 0.6125, 0.2625, 0.7, 0.35, 0, 0.4375, 0.0875, 0.525, 0.175, 0.6125, 0.2625, 0.7, 0.35, 0, 0.4375, 0.0875, 0.525, 0.175, 0.6125, 0.2625, 0.7, 0.35, 0, 0.4375, 0.0875, 0.525, 0.175, 0.6125, 0.2625, 0.7, 0.35, 0, 0.4375, 0.0875, 0.525, 0.175, 0.6125, 0.2625, 0.7, 0.35, 0, 0.4375, 0.0875, 0.525, 0.175, 0.6125, 0.2625, 0.7, 0.35, 0, 0.4375, 0.0875, 0.525, 0.175, 0.6125, 0.2625, 0.7, 0.35, 0, 0.4375, 0.0875, 0.525, 0.175, 0.6125, 0.2625, 0.7, 0.35],
  "SoftwareVersions": "syngo MR B19",
  "SpacingBetweenSlices": 2,
  "StationName": "MRC35450",
  "TaskName": "cpro",
  "TotalReadoutTime": 0.0710717,
  "TxRefAmp": 323.471,
  "dcmmeta_affine": [
    [-2.0, 0.0, 0.0, 105.3559341430664],
    [0.0, 1.9998903274536133, -0.020943567156791687, -78.2510986328125],
    [0.0, 0.020943567156791687, 1.9998903274536133, -98.45664978027344],
    [0.0, 0.0, 0.0, 1.0]
],
  "dcmmeta_reorient_transform": [
    [0.0, -1.0, 0.0, 103.0],
    [1.0, 0.0, 0.0, 0.0],
    [0.0, 0.0, 1.0, 0.0],
    [0.0, 0.0, 0.0, 1.0]
],
  "dcmmeta_shape": [104, 104, 72, 581],
  "dcmmeta_slice_dim": 2,
  "dcmmeta_version": 0.6,
  "global": {
    "const": {
      "AcquisitionMatrix": [104, 0, 0, 104],
      "AngioFlag": "N",
      "BitsAllocated": 16,
      "BitsStored": 12,
      "Columns": 936,
      "EchoNumbers": 1,
      "EchoTime": 34.8,
      "EchoTrainLength": 1,
      "FlipAngle": 55.0,
      "HighBit": 11,
      "ImageOrientationPatient": [1.0, 0.0, 0.0, 0.0, 0.9999451693678, -0.010471783898],
      "ImagePositionPatient": [-937.35593223572, -959.69198373456, -87.58693718795],
      "ImageType": [
        "ORIGINAL",
        "PRIMARY",
        "M",
        "MB",
        "ND",
        "MOSAIC"
],
      "ImagedNucleus": "1H",
      "ImagingFrequency": 123.234557,
      "InPlanePhaseEncodingDirection": "COL",
      "MRAcquisitionType": "2D",
      "MagneticFieldStrength": 3.0,
      "Manufacturer": "SIEMENS",
      "ManufacturerModelName": "TrioTim",
      "Modality": "MR",
      "NumberOfAverages": 1.0,
      "NumberOfPhaseEncodingSteps": 91,
      "PercentPhaseFieldOfView": 100.0,
      "PercentSampling": 100.0,
      "PerformedProcedureStepStartTime": "132830.609000",
      "PhotometricInterpretation": "MONOCHROME2",
      "PixelBandwidth": 1923.0,
      "PixelRepresentation": 0,
      "PixelSpacing": [2.0, 2.0],
      "ProtocolName": "cmrr_mbep2d_bold_2mm_MB8_Task_8x",
      "RepetitionTime": 785.0,
      "Rows": 936,
      "SAR": 0.12794807561933,
      "SamplesPerPixel": 1,
      "ScanOptions": [
        "PFP",
        "FS"
],
      "ScanningSequence": "EP",
      "SequenceName": "epfid2d1_104",
      "SequenceVariant": [
        "SK",
        "SS"
],
      "SeriesDescription": "cmrr_mbep2d_bold_2mm_MB8_Task_8x",
      "SeriesNumber": 21,
      "SeriesTime": "145051.406000",
      "SliceLocation": -97.631821803149,
      "SliceThickness": 2.0,
      "SmallestImagePixelValue": 0,
      "SoftwareVersions": "syngo MR B19",
      "SpacingBetweenSlices": 1.999999948495,
      "SpecificCharacterSet": "ISO_IR 100",
      "StudyID": "1",
      "StudyTime": "132830.578000",
      "TransmitCoilName": "Body",
      "VariableFlipAngleFlag": "N",
      "WindowCenterWidthExplanation": "Algo1",
      "dBdt": 0.0},
    "slices": {}
  },
  "time": {
    "samples": {
      "AcquisitionNumber": [1, 2, 3, 4, 5, 6, 7, 8, 9, 10, 11, 12, 13, 14, 15, 16, 17, 18, 19, 20, 21, 22, 23, 24, 25, 26, 27, 28, 29, 30, 31, 32, 33, 34, 35, 36, 37, 38, 39, 40, 41, 42, 43, 44, 45, 46, 47, 48, 49, 50, 51, 52, 53, 54, 55, 56, 57, 58, 59, 60, 61, 62, 63, 64, 65, 66, 67, 68, 69, 70, 71, 72, 73, 74, 75, 76, 77, 78, 79, 80, 81, 82, 83, 84, 85, 86, 87, 88, 89, 90, 91, 92, 93, 94, 95, 96, 97, 98, 99, 100, 101, 102, 103, 104, 105, 106, 107, 108, 109, 110, 111, 112, 113, 114, 115, 116, 117, 118, 119, 120, 121, 122, 123, 124, 125, 126, 127, 128, 129, 130, 131, 132, 133, 134, 135, 136, 137, 138, 139, 140, 141, 142, 143, 144, 145, 146, 147, 148, 149, 150, 151, 152, 153, 154, 155, 156, 157, 158, 159, 160, 161, 162, 163, 164, 165, 166, 167, 168, 169, 170, 171, 172, 173, 174, 175, 176, 177, 178, 179, 180, 181, 182, 183, 184, 185, 186, 187, 188, 189, 190, 191, 192, 193, 194, 195, 196, 197, 198, 199, 200, 201, 202, 203, 204, 205, 206, 207, 208, 209, 210, 211, 212, 213, 214, 215, 216, 217, 218, 219, 220, 221, 222, 223, 224, 225, 226, 227, 228, 229, 230, 231, 232, 233, 234, 235, 236, 237, 238, 239, 240, 241, 242, 243, 244, 245, 246, 247, 248, 249, 250, 251, 252, 253, 254, 255, 256, 257, 258, 259, 260, 261, 262, 263, 264, 265, 266, 267, 268, 269, 270, 271, 272, 273, 274, 275, 276, 277, 278, 279, 280, 281, 282, 283, 284, 285, 286, 287, 288, 289, 290, 291, 292, 293, 294, 295, 296, 297, 298, 299, 300, 301, 302, 303, 304, 305, 306, 307, 308, 309, 310, 311, 312, 313, 314, 315, 316, 317, 318, 319, 320, 321, 322, 323, 324, 325, 326, 327, 328, 329, 330, 331, 332, 333, 334, 335, 336, 337, 338, 339, 340, 341, 342, 343, 344, 345, 346, 347, 348, 349, 350, 351, 352, 353, 354, 355, 356, 357, 358, 359, 360, 361, 362, 363, 364, 365, 366, 367, 368, 369, 370, 371, 372, 373, 374, 375, 376, 377, 378, 379, 380, 381, 382, 383, 384, 385, 386, 387, 388, 389, 390, 391, 392, 393, 394, 395, 396, 397, 398, 399, 400, 401, 402, 403, 404, 405, 406, 407, 408, 409, 410, 411, 412, 413, 414, 415, 416, 417, 418, 419, 420, 421, 422, 423, 424, 425, 426, 427, 428, 429, 430, 431, 432, 433, 434, 435, 436, 437, 438, 439, 440, 441, 442, 443, 444, 445, 446, 447, 448, 449, 450, 451, 452, 453, 454, 455, 456, 457, 458, 459, 460, 461, 462, 463, 464, 465, 466, 467, 468, 469, 470, 471, 472, 473, 474, 475, 476, 477, 478, 479, 480, 481, 482, 483, 484, 485, 486, 487, 488, 489, 490, 491, 492, 493, 494, 495, 496, 497, 498, 499, 500, 501, 502, 503, 504, 505, 506, 507, 508, 509, 510, 511, 512, 513, 514, 515, 516, 517, 518, 519, 520, 521, 522, 523, 524, 525, 526, 527, 528, 529, 530, 531, 532, 533, 534, 535, 536, 537, 538, 539, 540, 541, 542, 543, 544, 545, 546, 547, 548, 549, 550, 551, 552, 553, 554, 555, 556, 557, 558, 559, 560, 561, 562, 563, 564, 565, 566, 567, 568, 569, 570, 571, 572, 573, 574, 575, 576, 577, 578, 579, 580, 581],
      "AcquisitionTime": ["145025.692500", "145026.480000", "145027.270000", "145028.057500", "145028.845000", "145029.632500", "145030.422500", "145031.210000", "145031.997500", "145032.785000", "145033.575000", "145034.362500", "145035.150000", "145035.937500", "145036.727500", "145037.515000", "145038.302500", "145039.092500", "145039.880000", "145040.667500", "145041.455000", "145042.245000", "145043.032500", "145043.820000", "145044.607500", "145045.397500", "145046.185000", "145046.972500", "145047.760000", "145048.550000", "145049.337500", "145050.125000", "145050.912500", "145051.702500", "145052.490000", "145053.277500", "145054.065000", "145054.855000", "145055.642500", "145056.430000", "145057.220000", "145058.007500", "145058.795000", "145059.582500", "145100.372500", "145101.160000", "145101.947500", "145102.735000", "145103.525000", "145104.312500", "145105.100000", "145105.887500", "145106.677500", "145107.465000", "145108.252500", "145109.040000", "145109.830000", "145110.617500", "145111.405000", "145112.192500", "145112.982500", "145113.770000", "145114.557500", "145115.347500", "145116.135000", "145116.922500", "145117.710000", "145118.500000", "145119.287500", "145120.075000", "145120.862500", "145121.652500", "145122.440000", "145123.227500", "145124.015000", "145124.805000", "145125.592500", "145126.380000", "145127.167500", "145127.957500", "145128.745000", "145129.532500", "145130.320000", "145131.110000", "145131.897500", "145132.685000", "145133.475000", "145134.262500", "145135.050000", "145135.837500", "145136.627500", "145137.415000", "145138.202500", "145138.990000", "145139.780000", "145140.567500", "145141.355000", "145142.142500", "145142.932500", "145143.720000", "145144.507500", "145145.295000", "145146.085000", "145146.872500", "145147.660000", "145148.450000", "145149.237500", "145150.025000", "145150.812500", "145151.602500", "145152.390000", "145153.177500", "145153.965000", "145154.755000", "145155.542500", "145156.330000", "145157.117500", "145157.907500", "145158.695000", "145159.482500", "145200.270000", "145201.060000", "145201.847500", "145202.635000", "145203.422500", "145204.212500", "145205.000000", "145205.787500", "145206.577500", "145207.365000", "145208.152500", "145208.940000", "145209.730000", "145210.517500", "145211.305000", "145212.092500", "145212.882500", "145213.670000", "145214.457500", "145215.245000", "145216.035000", "145216.822500", "145217.610000", "145218.397500", "145219.187500", "145219.975000", "145220.762500", "145221.550000", "145222.340000", "145223.127500", "145223.915000", "145224.705000", "145225.492500", "145226.280000", "145227.067500", "145227.857500", "145228.645000", "145229.432500", "145230.220000", "145231.010000", "145231.797500", "145232.585000", "145233.372500", "145234.162500", "145234.950000", "145235.737500", "145236.525000", "145237.315000", "145238.102500", "145238.890000", "145239.677500", "145240.467500", "145241.255000", "145242.042500", "145242.832500", "145243.620000", "145244.407500", "145245.195000", "145245.985000", "145246.772500", "145247.560000", "145248.347500", "145249.137500", "145249.925000", "145250.712500", "145251.500000", "145252.290000", "145253.077500", "145253.865000", "145254.652500", "145255.442500", "145256.230000", "145257.017500", "145257.805000", "145258.595000", "145259.382500", "145300.170000", "145300.960000", "145301.747500", "145302.535000", "145303.322500", "145304.112500", "145304.900000", "145305.687500", "145306.475000", "145307.265000", "145308.052500", "145308.840000", "145309.627500", "145310.417500", "145311.205000", "145311.992500", "145312.780000", "145313.570000", "145314.357500", "145315.145000", "145315.932500", "145316.722500", "145317.510000", "145318.297500", "145319.087500", "145319.875000", "145320.662500", "145321.450000", "145322.240000", "145323.027500", "145323.815000", "145324.602500", "145325.392500", "145326.180000", "145326.967500", "145327.755000", "145328.545000", "145329.332500", "145330.120000", "145330.907500", "145331.697500", "145332.485000", "145333.272500", "145334.060000", "145334.850000", "145335.637500", "145336.425000", "145337.215000", "145338.002500", "145338.790000", "145339.577500", "145340.367500", "145341.155000", "145341.942500", "145342.730000", "145343.520000", "145344.307500", "145345.095000", "145345.882500", "145346.672500", "145347.460000", "145348.247500", "145349.035000", "145349.825000", "145350.612500", "145351.400000", "145352.187500", "145352.977500", "145353.765000", "145354.552500", "145355.342500", "145356.130000", "145356.917500", "145357.705000", "145358.495000", "145359.282500", "145400.070000", "145400.857500", "145401.647500", "145402.435000", "145403.222500", "145404.010000", "145404.800000", "145405.587500", "145406.375000", "145407.162500", "145407.952500", "145408.740000", "145409.527500", "145410.315000", "145411.105000", "145411.892500", "145412.680000", "145413.470000", "145414.257500", "145415.045000", "145415.832500", "145416.622500", "145417.410000", "145418.197500", "145418.985000", "145419.775000", "145420.562500", "145421.350000", "145422.137500", "145422.927500", "145423.715000", "145424.502500", "145425.290000", "145426.080000", "145426.867500", "145427.655000", "145428.442500", "145429.232500", "145430.020000", "145430.807500", "145431.597500", "145432.385000", "145433.172500", "145433.960000", "145434.750000", "145435.537500", "145436.325000", "145437.112500", "145437.902500", "145438.690000", "145439.477500", "145440.265000", "145441.055000", "145441.842500", "145442.630000", "145443.417500", "145444.207500", "145444.995000", "145445.782500", "145446.570000", "145447.360000", "145448.147500", "145448.935000", "145449.725000", "145450.512500", "145451.300000", "145452.087500", "145452.877500", "145453.665000", "145454.452500", "145455.240000", "145456.030000", "145456.817500", "145457.605000", "145458.392500", "145459.182500", "145459.970000", "145500.757500", "145501.545000", "145502.335000", "145503.122500", "145503.910000", "145504.700000", "145505.487500", "145506.275000", "145507.062500", "145507.852500", "145508.640000", "145509.427500", "145510.215000", "145511.005000", "145511.792500", "145512.580000", "145513.367500", "145514.157500", "145514.945000", "145515.732500", "145516.520000", "145517.310000", "145518.097500", "145518.885000", "145519.672500", "145520.462500", "145521.250000", "145522.037500", "145522.827500", "145523.615000", "145524.402500", "145525.190000", "145525.980000", "145526.767500", "145527.555000", "145528.342500", "145529.132500", "145529.920000", "145530.707500", "145531.495000", "145532.285000", "145533.072500", "145533.860000", "145534.647500", "145535.437500", "145536.225000", "145537.012500", "145537.800000", "145538.590000", "145539.377500", "145540.165000", "145540.955000", "145541.742500", "145542.530000", "145543.317500", "145544.107500", "145544.895000", "145545.682500", "145546.470000", "145547.260000", "145548.047500", "145548.835000", "145549.622500", "145550.412500", "145551.200000", "145551.987500", "145552.775000", "145553.565000", "145554.352500", "145555.140000", "145555.927500", "145556.717500", "145557.505000", "145558.292500", "145559.082500", "145559.870000", "145600.657500", "145601.445000", "145602.235000", "145603.022500", "145603.810000", "145604.597500", "145605.387500", "145606.175000", "145606.962500", "145607.750000", "145608.540000", "145609.327500", "145610.115000", "145610.902500", "145611.692500", "145612.480000", "145613.267500", "145614.055000", "145614.845000", "145615.632500", "145616.420000", "145617.210000", "145617.997500", "145618.785000", "145619.572500", "145620.362500", "145621.150000", "145621.937500", "145622.725000", "145623.515000", "145624.302500", "145625.090000", "145625.877500", "145626.667500", "145627.455000", "145628.242500", "145629.030000", "145629.820000", "145630.607500", "145631.395000", "145632.182500", "145632.972500", "145633.760000", "145634.547500", "145635.337500", "145636.125000", "145636.912500", "145637.700000", "145638.490000", "145639.277500", "145640.065000", "145640.852500", "145641.642500", "145642.430000", "145643.217500", "145644.005000", "145644.795000", "145645.582500", "145646.370000", "145647.157500", "145647.947500", "145648.735000", "145649.522500", "145650.310000", "145651.100000", "145651.887500", "145652.675000", "145653.465000", "145654.252500", "145655.040000", "145655.827500", "145656.617500", "145657.405000", "145658.192500", "145658.980000", "145659.770000", "145700.557500", "145701.345000", "145702.132500", "145702.922500", "145703.710000", "145704.497500", "145705.285000", "145706.075000", "145706.862500", "145707.650000", "145708.437500", "145709.227500", "145710.015000", "145710.802500", "145711.592500", "145712.380000", "145713.167500", "145713.955000", "145714.745000", "145715.532500", "145716.320000", "145717.107500", "145717.897500", "145718.685000", "145719.472500", "145720.260000", "145721.050000", "145721.837500", "145722.625000", "145723.412500", "145724.202500", "145724.990000", "145725.777500", "145726.565000", "145727.355000", "145728.142500", "145728.930000", "145729.720000", "145730.507500", "145731.295000", "145732.082500", "145732.872500", "145733.660000", "145734.447500", "145735.235000", "145736.025000", "145736.812500", "145737.600000", "145738.387500", "145739.177500", "145739.965000", "145740.752500", "145741.540000", "145742.330000", "145743.117500", "145743.905000", "145744.692500", "145745.482500", "145746.270000", "145747.057500", "145747.847500", "145748.635000", "145749.422500", "145750.210000", "145751.000000", "145751.787500", "145752.575000", "145753.362500", "145754.152500", "145754.940000", "145755.727500", "145756.515000", "145757.305000", "145758.092500", "145758.880000", "145759.667500", "145800.457500", "145801.245000", "145802.032500", "145802.820000"],
      "ContentTime": ["145051.406000", "145051.406000", "145051.406000", "145051.406000", "145051.406000", "145051.421000", "145051.421000", "145051.421000", "145051.421000", "145051.421000", "145051.421000", "145051.421000", "145051.437000", "145051.437000", "145051.437000", "145051.437000", "145051.437000", "145051.453000", "145051.453000", "145051.453000", "145051.453000", "145051.453000", "145051.453000", "145051.453000", "145051.468000", "145051.468000", "145051.468000", "145051.468000", "145051.468000", "145111.375000", "145111.375000", "145111.375000", "145111.390000", "145111.390000", "145111.390000", "145111.390000", "145111.390000", "145111.390000", "145111.390000", "145111.406000", "145111.406000", "145111.406000", "145111.406000", "145111.406000", "145111.406000", "145111.406000", "145111.421000", "145111.421000", "145111.421000", "145111.421000", "145111.421000", "145111.421000", "145111.421000", "145111.437000", "145111.437000", "145131.375000", "145131.375000", "145131.375000", "145131.390000", "145131.390000", "145131.390000", "145131.390000", "145131.390000", "145131.390000", "145131.390000", "145131.406000", "145131.406000", "145131.406000", "145131.406000", "145131.406000", "145131.406000", "145131.421000", "145131.421000", "145131.421000", "145131.421000", "145131.421000", "145131.421000", "145131.421000", "145131.437000", "145131.437000", "145151.375000", "145151.375000", "145151.375000", "145151.390000", "145151.390000", "145151.390000", "145151.390000", "145151.390000", "145151.390000", "145151.390000", "145151.406000", "145151.406000", "145151.406000", "145151.406000", "145151.421000", "145151.421000", "145151.421000", "145151.421000", "145151.421000", "145151.421000", "145151.421000", "145151.437000", "145151.437000", "145151.437000", "145151.437000", "145151.437000", "145211.375000", "145211.375000", "145211.375000", "145211.390000", "145211.390000", "145211.390000", "145211.390000", "145211.390000", "145211.390000", "145211.390000", "145211.406000", "145211.406000", "145211.406000", "145211.406000", "145211.406000", "145211.406000", "145211.406000", "145211.421000", "145211.421000", "145211.421000", "145211.421000", "145211.421000", "145211.421000", "145211.421000", "145211.437000", "145231.375000", "145231.375000", "145231.375000", "145231.390000", "145231.390000", "145231.390000", "145231.390000", "145231.390000", "145231.390000", "145231.390000", "145231.406000", "145231.406000", "145231.406000", "145231.406000", "145231.406000", "145231.406000", "145231.421000", "145231.421000", "145231.421000", "145231.421000", "145231.421000", "145231.421000", "145231.421000", "145231.437000", "145231.437000", "145231.437000", "145251.375000", "145251.375000", "145251.375000", "145251.390000", "145251.390000", "145251.390000", "145251.390000", "145251.390000", "145251.390000", "145251.390000", "145251.406000", "145251.406000", "145251.406000", "145251.406000", "145251.406000", "145251.406000", "145251.406000", "145251.421000", "145251.421000", "145251.421000", "145251.421000", "145251.421000", "145251.437000", "145251.437000", "145251.437000", "145311.375000", "145311.375000", "145311.390000", "145311.390000", "145311.390000", "145311.390000", "145311.390000", "145311.390000", "145311.406000", "145311.406000", "145311.406000", "145311.406000", "145311.406000", "145311.406000", "145311.406000", "145311.421000", "145311.421000", "145311.421000", "145311.421000", "145311.421000", "145311.421000", "145311.421000", "145311.437000", "145311.437000", "145311.437000", "145311.437000", "145331.375000", "145331.375000", "145331.375000", "145331.390000", "145331.390000", "145331.390000", "145331.390000", "145331.390000", "145331.390000", "145331.390000", "145331.406000", "145331.406000", "145331.406000", "145331.406000", "145331.406000", "145331.406000", "145331.406000", "145331.421000", "145331.421000", "145331.421000", "145331.421000", "145331.421000", "145331.421000", "145331.421000", "145331.437000", "145351.375000", "145351.375000", "145351.375000", "145351.390000", "145351.390000", "145351.390000", "145351.390000", "145351.390000", "145351.390000", "145351.390000", "145351.406000", "145351.406000", "145351.406000", "145351.406000", "145351.406000", "145351.406000", "145351.406000", "145351.421000", "145351.421000", "145351.421000", "145351.421000", "145351.421000", "145351.421000", "145351.437000", "145351.437000", "145351.437000", "145411.375000", "145411.375000", "145411.375000", "145411.390000", "145411.390000", "145411.390000", "145411.390000", "145411.390000", "145411.390000", "145411.390000", "145411.406000", "145411.406000", "145411.406000", "145411.406000", "145411.406000", "145411.406000", "145411.406000", "145411.421000", "145411.421000", "145411.421000", "145411.421000", "145411.421000", "145411.421000", "145411.421000", "145411.437000", "145431.375000", "145431.375000", "145431.375000", "145431.390000", "145431.390000", "145431.390000", "145431.390000", "145431.390000", "145431.390000", "145431.390000", "145431.406000", "145431.406000", "145431.406000", "145431.406000", "145431.406000", "145431.421000", "145431.421000", "145431.421000", "145431.421000", "145431.421000", "145431.421000", "145431.421000", "145431.437000", "145431.437000", "145431.437000", "145431.437000", "145451.375000", "145451.375000", "145451.375000", "145451.390000", "145451.390000", "145451.390000", "145451.390000", "145451.390000", "145451.390000", "145451.390000", "145451.406000", "145451.406000", "145451.406000", "145451.406000", "145451.406000", "145451.406000", "145451.421000", "145451.421000", "145451.421000", "145451.421000", "145451.421000", "145451.421000", "145451.421000", "145451.437000", "145451.437000", "145511.375000", "145511.375000", "145511.375000", "145511.390000", "145511.390000", "145511.390000", "145511.390000", "145511.390000", "145511.390000", "145511.390000", "145511.406000", "145511.406000", "145511.406000", "145511.406000", "145511.406000", "145511.406000", "145511.406000", "145511.421000", "145511.421000", "145511.421000", "145511.421000", "145511.421000", "145511.421000", "145511.421000", "145511.437000", "145511.437000", "145531.375000", "145531.375000", "145531.375000", "145531.390000", "145531.390000", "145531.390000", "145531.390000", "145531.390000", "145531.390000", "145531.390000", "145531.406000", "145531.406000", "145531.406000", "145531.406000", "145531.406000", "145531.406000", "145531.406000", "145531.421000", "145531.421000", "145531.421000", "145531.421000", "145531.421000", "145531.421000", "145531.437000", "145531.437000", "145551.375000", "145551.375000", "145551.375000", "145551.390000", "145551.390000", "145551.390000", "145551.390000", "145551.390000", "145551.390000", "145551.406000", "145551.406000", "145551.406000", "145551.406000", "145551.406000", "145551.406000", "145551.406000", "145551.421000", "145551.421000", "145551.421000", "145551.421000", "145551.421000", "145551.421000", "145551.421000", "145551.437000", "145551.437000", "145611.375000", "145611.375000", "145611.375000", "145611.390000", "145611.390000", "145611.390000", "145611.390000", "145611.390000", "145611.390000", "145611.406000", "145611.406000", "145611.406000", "145611.406000", "145611.406000", "145611.406000", "145611.406000", "145611.421000", "145611.421000", "145611.421000", "145611.421000", "145611.421000", "145611.421000", "145611.421000", "145611.437000", "145611.437000", "145611.437000", "145631.375000", "145631.375000", "145631.375000", "145631.390000", "145631.390000", "145631.390000", "145631.390000", "145631.390000", "145631.406000", "145631.406000", "145631.406000", "145631.406000", "145631.406000", "145631.406000", "145631.406000", "145631.421000", "145631.421000", "145631.421000", "145631.421000", "145631.421000", "145631.421000", "145631.437000", "145631.437000", "145631.437000", "145631.437000", "145651.375000", "145651.375000", "145651.375000", "145651.390000", "145651.390000", "145651.390000", "145651.390000", "145651.390000", "145651.390000", "145651.390000", "145651.406000", "145651.406000", "145651.406000", "145651.406000", "145651.406000", "145651.406000", "145651.421000", "145651.421000", "145651.421000", "145651.421000", "145651.421000", "145651.421000", "145651.421000", "145651.437000", "145651.437000", "145651.437000", "145711.375000", "145711.375000", "145711.390000", "145711.390000", "145711.390000", "145711.390000", "145711.390000", "145711.390000", "145711.406000", "145711.406000", "145711.406000", "145711.406000", "145711.406000", "145711.406000", "145711.406000", "145711.421000", "145711.421000", "145711.421000", "145711.421000", "145711.421000", "145711.421000", "145711.437000", "145711.437000", "145711.437000", "145711.437000", "145731.375000", "145731.375000", "145731.375000", "145731.390000", "145731.390000", "145731.390000", "145731.390000", "145731.390000", "145731.390000", "145731.406000", "145731.406000", "145731.406000", "145731.406000", "145731.406000", "145731.406000", "145731.406000", "145731.421000", "145731.421000", "145731.421000", "145731.421000", "145731.421000", "145731.421000", "145731.421000", "145731.437000", "145731.437000", "145731.437000", "145751.375000", "145751.375000", "145751.375000", "145751.390000", "145751.390000", "145751.390000", "145751.390000", "145751.390000", "145751.390000", "145751.390000", "145751.406000", "145751.406000", "145751.406000", "145751.406000", "145751.421000", "145751.421000", "145751.421000", "145751.421000", "145751.421000", "145751.421000", "145751.421000", "145751.437000", "145751.437000", "145751.437000", "145751.437000", "145804.109000", "145804.109000", "145804.109000", "145804.109000", "145804.125000", "145804.125000", "145804.125000", "145804.125000", "145804.125000", "145804.125000", "145804.125000", "145804.140000", "145804.140000", "145804.140000", "145804.140000", "145804.140000", "145804.140000"],
