{
  "AcquisitionMatrixPE": 104,
  "AcquisitionNumber": 1,
  "AcquisitionTime": "11:20:25.342500",
  "BandwidthPerPixelPhaseEncode": 13.935,
  "BaseResolution": 104,
  "CoilString": "C:HEA;HEP",
  "ConversionSoftware": "dcm2niix",
  "ConversionSoftwareVersion": "v1.0.20210317",
  "DerivedVendorReportedEchoSpacing": 0.000690017,
  "DeviceSerialNumber": "35450",
  "DwellTime": 2.5e-06,
  "EchoTime": 0.0348,
  "EffectiveEchoSpacing": 0.000690017,
  "FlipAngle": 55,
  "ImageComments": "Unaliased MB8/PE3 (remote)",
  "ImageOrientationPatientDICOM": [0.999616, 0.00399827, 0.0274065, -1.3752e-08, 0.989525, -0.144359],
  "ImageType": [
    "ORIGINAL",
    "PRIMARY",
    "M",
    "MB",
    "ND",
    "MOSAIC"
],
  "ImagingFrequency": 123.234,
  "InPlanePhaseEncodingDirectionDICOM": "COL",
  "InstitutionAddress": "Univeristy Ave. 197,Newark,North East,US,07102-1814",
  "InstitutionName": "RUBIC",
  "InstitutionalDepartmentName": "Department",
  "MRAcquisitionType": "2D",
  "MagneticFieldStrength": 3,
  "Manufacturer": "Siemens",
  "ManufacturersModelName": "TrioTim",
  "Modality": "MR",
  "MultibandAccelerationFactor": 8,
  "PartialFourier": 0.875,
  "PatientPosition": "HFS",
  "PercentPhaseFOV": 100,
  "PercentSampling": 100,
  "PhaseEncodingDirection": "j-",
  "PhaseEncodingSteps": 91,
  "PhaseResolution": 1,
  "PixelBandwidth": 1923,
  "ProcedureStepDescription": "Cole^Michael",
  "ProtocolName": "cmrr_mbep2d_bold_2mm_MB8_Task_8x",
  "PulseSequenceDetails": "%CustomerSeq%\\cmrr_mbep2d_bold",
  "ReceiveCoilName": "32Ch_Head",
  "ReconMatrixPE": 104,
  "RepetitionTime": 0.785,
  "SAR": 0.131666,
  "ScanOptions": "PFP\\FS",
  "ScanningSequence": "EP",
  "SequenceName": "epfid2d1_104",
  "SequenceVariant": "SK\\SS",
  "SeriesDescription": "cmrr_mbep2d_bold_2mm_MB8_Task_8x",
  "SeriesNumber": 13,
  "ShimSetting": [2128, -322, -7373, 547, 51, -542, -8, -10],
  "SliceThickness": 2,
  "SliceTiming": [0, 0.4375, 0.0875, 0.525, 0.175, 0.6125, 0.2625, 0.7, 0.35, 0, 0.4375, 0.0875, 0.525, 0.175, 0.6125, 0.2625, 0.7, 0.35, 0, 0.4375, 0.0875, 0.525, 0.175, 0.6125, 0.2625, 0.7, 0.35, 0, 0.4375, 0.0875, 0.525, 0.175, 0.6125, 0.2625, 0.7, 0.35, 0, 0.4375, 0.0875, 0.525, 0.175, 0.6125, 0.2625, 0.7, 0.35, 0, 0.4375, 0.0875, 0.525, 0.175, 0.6125, 0.2625, 0.7, 0.35, 0, 0.4375, 0.0875, 0.525, 0.175, 0.6125, 0.2625, 0.7, 0.35, 0, 0.4375, 0.0875, 0.525, 0.175, 0.6125, 0.2625, 0.7, 0.35],
  "SoftwareVersions": "syngo MR B19",
  "SpacingBetweenSlices": 2,
  "StationName": "MRC35450",
  "TaskName": "cpro",
  "TotalReadoutTime": 0.0710717,
  "TxRefAmp": 334.919,
  "dcmmeta_affine": [
    [-1.9992327690124512, -2.7503990196464656e-08, 0.055393192917108536, 104.67391204833984],
    [-0.007996533997356892, 1.9790507555007935, -0.28860729932785034, -80.97930908203125],
    [0.0548129677772522, 0.288718044757843, 1.978291630744934, -121.36760711669922],
    [0.0, 0.0, 0.0, 1.0]
],
  "dcmmeta_reorient_transform": [
    [0.0, -1.0, 0.0, 103.0],
    [1.0, 0.0, 0.0, 0.0],
    [0.0, 0.0, 1.0, 0.0],
    [0.0, 0.0, 0.0, 1.0]
],
  "dcmmeta_shape": [104, 104, 72, 581],
  "dcmmeta_slice_dim": 2,
  "dcmmeta_version": 0.6,
  "global": {
    "const": {
      "AcquisitionMatrix": [104, 0, 0, 104],
      "AngioFlag": "N",
      "BitsAllocated": 16,
      "BitsStored": 12,
      "Columns": 936,
      "EchoNumbers": 1,
      "EchoTime": 34.8,
      "EchoTrainLength": 1,
      "FlipAngle": 55.0,
      "HighBit": 11,
      "ImageOrientationPatient": [0.99961637568332, 0.00399826719521, 0.02740648326906, -1.3751995e-08, 0.98952537758873, -0.1443590215674],
      "ImagePositionPatient": [-936.35472246978, -949.47458857954, 5.6748664966275],
      "ImageType": [
        "ORIGINAL",
        "PRIMARY",
        "M",
        "MB",
        "ND",
        "MOSAIC"
],
      "ImagedNucleus": "1H",
      "ImagingFrequency": 123.234453,
      "InPlanePhaseEncodingDirection": "COL",
      "MRAcquisitionType": "2D",
      "MagneticFieldStrength": 3.0,
      "Manufacturer": "SIEMENS",
      "ManufacturerModelName": "TrioTim",
      "Modality": "MR",
      "NumberOfAverages": 1.0,
      "NumberOfPhaseEncodingSteps": 91,
      "PercentPhaseFieldOfView": 100.0,
      "PercentSampling": 100.0,
      "PerformedProcedureStepStartTime": "100138.484000",
      "PhotometricInterpretation": "MONOCHROME2",
      "PixelBandwidth": 1923.0,
      "PixelRepresentation": 0,
      "PixelSpacing": [2.0, 2.0],
      "ProtocolName": "cmrr_mbep2d_bold_2mm_MB8_Task_8x",
      "RepetitionTime": 785.0,
      "Rows": 936,
      "SAR": 0.13166646721508,
      "SamplesPerPixel": 1,
      "ScanOptions": [
        "PFP",
        "FS"
],
      "ScanningSequence": "EP",
      "SequenceName": "epfid2d1_104",
      "SequenceVariant": [
        "SK",
        "SS"
],
      "SeriesDescription": "cmrr_mbep2d_bold_2mm_MB8_Task_8x",
      "SeriesNumber": 13,
      "SeriesTime": "112038.468000",
      "SliceLocation": -105.46553143508,
      "SliceThickness": 2.0,
      "SmallestImagePixelValue": 0,
      "SoftwareVersions": "syngo MR B19",
      "SpacingBetweenSlices": 2.000000033951,
      "SpecificCharacterSet": "ISO_IR 100",
      "StudyID": "1",
      "StudyTime": "100138.359000",
      "TransmitCoilName": "Body",
      "VariableFlipAngleFlag": "N",
      "WindowCenterWidthExplanation": "Algo1",
      "dBdt": 0.0},
    "slices": {}
  },
  "time": {
    "samples": {
      "AcquisitionNumber": [1, 2, 3, 4, 5, 6, 7, 8, 9, 10, 11, 12, 13, 14, 15, 16, 17, 18, 19, 20, 21, 22, 23, 24, 25, 26, 27, 28, 29, 30, 31, 32, 33, 34, 35, 36, 37, 38, 39, 40, 41, 42, 43, 44, 45, 46, 47, 48, 49, 50, 51, 52, 53, 54, 55, 56, 57, 58, 59, 60, 61, 62, 63, 64, 65, 66, 67, 68, 69, 70, 71, 72, 73, 74, 75, 76, 77, 78, 79, 80, 81, 82, 83, 84, 85, 86, 87, 88, 89, 90, 91, 92, 93, 94, 95, 96, 97, 98, 99, 100, 101, 102, 103, 104, 105, 106, 107, 108, 109, 110, 111, 112, 113, 114, 115, 116, 117, 118, 119, 120, 121, 122, 123, 124, 125, 126, 127, 128, 129, 130, 131, 132, 133, 134, 135, 136, 137, 138, 139, 140, 141, 142, 143, 144, 145, 146, 147, 148, 149, 150, 151, 152, 153, 154, 155, 156, 157, 158, 159, 160, 161, 162, 163, 164, 165, 166, 167, 168, 169, 170, 171, 172, 173, 174, 175, 176, 177, 178, 179, 180, 181, 182, 183, 184, 185, 186, 187, 188, 189, 190, 191, 192, 193, 194, 195, 196, 197, 198, 199, 200, 201, 202, 203, 204, 205, 206, 207, 208, 209, 210, 211, 212, 213, 214, 215, 216, 217, 218, 219, 220, 221, 222, 223, 224, 225, 226, 227, 228, 229, 230, 231, 232, 233, 234, 235, 236, 237, 238, 239, 240, 241, 242, 243, 244, 245, 246, 247, 248, 249, 250, 251, 252, 253, 254, 255, 256, 257, 258, 259, 260, 261, 262, 263, 264, 265, 266, 267, 268, 269, 270, 271, 272, 273, 274, 275, 276, 277, 278, 279, 280, 281, 282, 283, 284, 285, 286, 287, 288, 289, 290, 291, 292, 293, 294, 295, 296, 297, 298, 299, 300, 301, 302, 303, 304, 305, 306, 307, 308, 309, 310, 311, 312, 313, 314, 315, 316, 317, 318, 319, 320, 321, 322, 323, 324, 325, 326, 327, 328, 329, 330, 331, 332, 333, 334, 335, 336, 337, 338, 339, 340, 341, 342, 343, 344, 345, 346, 347, 348, 349, 350, 351, 352, 353, 354, 355, 356, 357, 358, 359, 360, 361, 362, 363, 364, 365, 366, 367, 368, 369, 370, 371, 372, 373, 374, 375, 376, 377, 378, 379, 380, 381, 382, 383, 384, 385, 386, 387, 388, 389, 390, 391, 392, 393, 394, 395, 396, 397, 398, 399, 400, 401, 402, 403, 404, 405, 406, 407, 408, 409, 410, 411, 412, 413, 414, 415, 416, 417, 418, 419, 420, 421, 422, 423, 424, 425, 426, 427, 428, 429, 430, 431, 432, 433, 434, 435, 436, 437, 438, 439, 440, 441, 442, 443, 444, 445, 446, 447, 448, 449, 450, 451, 452, 453, 454, 455, 456, 457, 458, 459, 460, 461, 462, 463, 464, 465, 466, 467, 468, 469, 470, 471, 472, 473, 474, 475, 476, 477, 478, 479, 480, 481, 482, 483, 484, 485, 486, 487, 488, 489, 490, 491, 492, 493, 494, 495, 496, 497, 498, 499, 500, 501, 502, 503, 504, 505, 506, 507, 508, 509, 510, 511, 512, 513, 514, 515, 516, 517, 518, 519, 520, 521, 522, 523, 524, 525, 526, 527, 528, 529, 530, 531, 532, 533, 534, 535, 536, 537, 538, 539, 540, 541, 542, 543, 544, 545, 546, 547, 548, 549, 550, 551, 552, 553, 554, 555, 556, 557, 558, 559, 560, 561, 562, 563, 564, 565, 566, 567, 568, 569, 570, 571, 572, 573, 574, 575, 576, 577, 578, 579, 580, 581],
      "AcquisitionTime": ["112025.342500", "112026.130000", "112026.920000", "112027.707500", "112028.495000", "112029.285000", "112030.072500", "112030.860000", "112031.647500", "112032.437500", "112033.225000", "112034.012500", "112034.800000", "112035.590000", "112036.377500", "112037.165000", "112037.952500", "112038.742500", "112039.530000", "112040.317500", "112041.105000", "112041.895000", "112042.682500", "112043.470000", "112044.257500", "112045.047500", "112045.835000", "112046.622500", "112047.412500", "112048.200000", "112048.987500", "112049.775000", "112050.565000", "112051.352500", "112052.140000", "112052.927500", "112053.717500", "112054.505000", "112055.292500", "112056.080000", "112056.870000", "112057.657500", "112058.445000", "112059.232500", "112100.022500", "112100.810000", "112101.597500", "112102.385000", "112103.175000", "112103.962500", "112104.750000", "112105.540000", "112106.327500", "112107.115000", "112107.902500", "112108.692500", "112109.480000", "112110.267500", "112111.055000", "112111.845000", "112112.632500", "112113.420000", "112114.207500", "112114.997500", "112115.785000", "112116.572500", "112117.360000", "112118.150000", "112118.937500", "112119.725000", "112120.512500", "112121.302500", "112122.090000", "112122.877500", "112123.667500", "112124.455000", "112125.242500", "112126.030000", "112126.820000", "112127.607500", "112128.395000", "112129.182500", "112129.972500", "112130.760000", "112131.547500", "112132.335000", "112133.125000", "112133.912500", "112134.700000", "112135.487500", "112136.277500", "112137.065000", "112137.852500", "112138.640000", "112139.430000", "112140.217500", "112141.005000", "112141.795000", "112142.582500", "112143.370000", "112144.157500", "112144.947500", "112145.735000", "112146.522500", "112147.310000", "112148.100000", "112148.887500", "112149.675000", "112150.462500", "112151.252500", "112152.040000", "112152.827500", "112153.615000", "112154.405000", "112155.192500", "112155.980000", "112156.767500", "112157.557500", "112158.345000", "112159.132500", "112159.922500", "112200.710000", "112201.497500", "112202.285000", "112203.075000", "112203.862500", "112204.650000", "112205.437500", "112206.227500", "112207.015000", "112207.802500", "112208.590000", "112209.380000", "112210.167500", "112210.955000", "112211.742500", "112212.532500", "112213.320000", "112214.107500", "112214.895000", "112215.685000", "112216.472500", "112217.260000", "112218.050000", "112218.837500", "112219.625000", "112220.412500", "112221.202500", "112221.990000", "112222.777500", "112223.565000", "112224.355000", "112225.142500", "112225.930000", "112226.717500", "112227.507500", "112228.295000", "112229.082500", "112229.870000", "112230.660000", "112231.447500", "112232.235000", "112233.022500", "112233.812500", "112234.600000", "112235.387500", "112236.177500", "112236.965000", "112237.752500", "112238.540000", "112239.330000", "112240.117500", "112240.905000", "112241.692500", "112242.482500", "112243.270000", "112244.057500", "112244.845000", "112245.635000", "112246.422500", "112247.210000", "112247.997500", "112248.787500", "112249.575000", "112250.362500", "112251.150000", "112251.940000", "112252.727500", "112253.515000", "112254.305000", "112255.092500", "112255.880000", "112256.667500", "112257.457500", "112258.245000", "112259.032500", "112259.820000", "112300.610000", "112301.397500", "112302.185000", "112302.972500", "112303.762500", "112304.550000", "112305.337500", "112306.125000", "112306.915000", "112307.702500", "112308.490000", "112309.277500", "112310.067500", "112310.855000", "112311.642500", "112312.432500", "112313.220000", "112314.007500", "112314.795000", "112315.585000", "112316.372500", "112317.160000", "112317.947500", "112318.737500", "112319.525000", "112320.312500", "112321.100000", "112321.890000", "112322.677500", "112323.465000", "112324.252500", "112325.042500", "112325.830000", "112326.617500", "112327.405000", "112328.195000", "112328.982500", "112329.770000", "112330.560000", "112331.347500", "112332.135000", "112332.922500", "112333.712500", "112334.500000", "112335.287500", "112336.075000", "112336.865000", "112337.652500", "112338.440000", "112339.227500", "112340.017500", "112340.805000", "112341.592500", "112342.380000", "112343.170000", "112343.957500", "112344.745000", "112345.535000", "112346.322500", "112347.110000", "112347.897500", "112348.687500", "112349.475000", "112350.262500", "112351.050000", "112351.840000", "112352.627500", "112353.415000", "112354.202500", "112354.992500", "112355.780000", "112356.567500", "112357.355000", "112358.145000", "112358.932500", "112359.720000", "112400.507500", "112401.297500", "112402.085000", "112402.872500", "112403.662500", "112404.450000", "112405.237500", "112406.025000", "112406.815000", "112407.602500", "112408.390000", "112409.177500", "112409.967500", "112410.755000", "112411.542500", "112412.330000", "112413.120000", "112413.907500", "112414.695000", "112415.482500", "112416.272500", "112417.060000", "112417.847500", "112418.635000", "112419.425000", "112420.212500", "112421.000000", "112421.790000", "112422.577500", "112423.365000", "112424.152500", "112424.942500", "112425.730000", "112426.517500", "112427.305000", "112428.095000", "112428.882500", "112429.670000", "112430.457500", "112431.247500", "112432.035000", "112432.822500", "112433.610000", "112434.400000", "112435.187500", "112435.975000", "112436.762500", "112437.552500", "112438.340000", "112439.127500", "112439.917500", "112440.705000", "112441.492500", "112442.280000", "112443.070000", "112443.857500", "112444.645000", "112445.432500", "112446.222500", "112447.010000", "112447.797500", "112448.585000", "112449.375000", "112450.162500", "112450.950000", "112451.737500", "112452.527500", "112453.315000", "112454.102500", "112454.890000", "112455.680000", "112456.467500", "112457.255000", "112458.045000", "112458.832500", "112459.620000", "112500.407500", "112501.197500", "112501.985000", "112502.772500", "112503.560000", "112504.350000", "112505.137500", "112505.925000", "112506.712500", "112507.502500", "112508.290000", "112509.077500", "112509.865000", "112510.655000", "112511.442500", "112512.230000", "112513.017500", "112513.807500", "112514.595000", "112515.382500", "112516.172500", "112516.960000", "112517.747500", "112518.535000", "112519.325000", "112520.112500", "112520.900000", "112521.687500", "112522.477500", "112523.265000", "112524.052500", "112524.840000", "112525.630000", "112526.417500", "112527.205000", "112527.992500", "112528.782500", "112529.570000", "112530.357500", "112531.145000", "112531.935000", "112532.722500", "112533.510000", "112534.300000", "112535.087500", "112535.875000", "112536.662500", "112537.452500", "112538.240000", "112539.027500", "112539.815000", "112540.605000", "112541.392500", "112542.180000", "112542.967500", "112543.757500", "112544.545000", "112545.332500", "112546.120000", "112546.910000", "112547.697500", "112548.485000", "112549.272500", "112550.062500", "112550.850000", "112551.637500", "112552.427500", "112553.215000", "112554.002500", "112554.790000", "112555.580000", "112556.367500", "112557.155000", "112557.942500", "112558.732500", "112559.520000", "112600.307500", "112601.095000", "112601.885000", "112602.672500", "112603.460000", "112604.247500", "112605.037500", "112605.825000", "112606.612500", "112607.400000", "112608.190000", "112608.977500", "112609.765000", "112610.555000", "112611.342500", "112612.130000", "112612.917500", "112613.707500", "112614.495000", "112615.282500", "112616.070000", "112616.860000", "112617.647500", "112618.435000", "112619.222500", "112620.012500", "112620.800000", "112621.587500", "112622.375000", "112623.165000", "112623.952500", "112624.740000", "112625.527500", "112626.317500", "112627.105000", "112627.892500", "112628.682500", "112629.470000", "112630.257500", "112631.045000", "112631.835000", "112632.622500", "112633.410000", "112634.197500", "112634.987500", "112635.775000", "112636.562500", "112637.350000", "112638.140000", "112638.927500", "112639.715000", "112640.502500", "112641.292500", "112642.080000", "112642.867500", "112643.655000", "112644.445000", "112645.232500", "112646.020000", "112646.810000", "112647.597500", "112648.385000", "112649.172500", "112649.962500", "112650.750000", "112651.537500", "112652.325000", "112653.115000", "112653.902500", "112654.690000", "112655.477500", "112656.267500", "112657.055000", "112657.842500", "112658.630000", "112659.420000", "112700.207500", "112700.995000", "112701.785000", "112702.572500", "112703.360000", "112704.147500", "112704.937500", "112705.725000", "112706.512500", "112707.300000", "112708.090000", "112708.877500", "112709.665000", "112710.452500", "112711.242500", "112712.030000", "112712.817500", "112713.605000", "112714.395000", "112715.182500", "112715.970000", "112716.757500", "112717.547500", "112718.335000", "112719.122500", "112719.912500", "112720.700000", "112721.487500", "112722.275000", "112723.065000", "112723.852500", "112724.640000", "112725.427500", "112726.217500", "112727.005000", "112727.792500", "112728.580000", "112729.370000", "112730.157500", "112730.945000", "112731.732500", "112732.522500", "112733.310000", "112734.097500", "112734.885000", "112735.675000", "112736.462500", "112737.250000", "112738.040000", "112738.827500", "112739.615000", "112740.402500", "112741.192500", "112741.980000", "112742.767500", "112743.555000", "112744.345000", "112745.132500", "112745.920000", "112746.707500", "112747.497500", "112748.285000", "112749.072500", "112749.860000", "112750.650000", "112751.437500", "112752.225000", "112753.012500", "112753.802500", "112754.590000", "112755.377500", "112756.167500", "112756.955000", "112757.742500", "112758.530000", "112759.320000", "112800.107500", "112800.895000", "112801.682500", "112802.472500"],
      "ContentTime": ["112038.468000", "112038.468000", "112038.484000", "112038.484000", "112038.484000", "112038.484000", "112038.484000", "112038.484000", "112038.484000", "112038.500000", "112038.500000", "112038.500000", "112038.500000", "112038.500000", "112058.453000", "112058.453000", "112058.453000", "112058.453000", "112058.453000", "112058.468000", "112058.468000", "112058.468000", "112058.468000", "112058.468000", "112058.468000", "112058.468000", "112058.468000", "112058.484000", "112058.484000", "112058.484000", "112058.484000", "112058.484000", "112058.484000", "112058.500000", "112058.500000", "112058.500000", "112058.500000", "112058.500000", "112058.500000", "112118.453000", "112118.453000", "112118.453000", "112118.453000", "112118.453000", "112118.453000", "112118.468000", "112118.468000", "112118.468000", "112118.468000", "112118.468000", "112118.468000", "112118.468000", "112118.484000", "112118.484000", "112118.484000", "112118.484000", "112118.484000", "112118.484000", "112118.484000", "112118.500000", "112118.500000", "112118.500000", "112118.500000", "112118.500000", "112118.500000", "112138.453000", "112138.453000", "112138.453000", "112138.453000", "112138.453000", "112138.453000", "112138.468000", "112138.468000", "112138.468000", "112138.468000", "112138.468000", "112138.468000", "112138.468000", "112138.484000", "112138.484000", "112138.484000", "112138.484000", "112138.484000", "112138.484000", "112138.484000", "112138.500000", "112138.500000", "112138.500000", "112138.500000", "112138.515000", "112158.453000", "112158.453000", "112158.453000", "112158.453000", "112158.453000", "112158.453000", "112158.468000", "112158.468000", "112158.468000", "112158.468000", "112158.468000", "112158.468000", "112158.468000", "112158.484000", "112158.484000", "112158.484000", "112158.484000", "112158.484000", "112158.484000", "112158.484000", "112158.500000", "112158.500000", "112158.500000", "112158.500000", "112158.500000", "112158.500000", "112218.453000", "112218.453000", "112218.453000", "112218.453000", "112218.468000", "112218.468000", "112218.468000", "112218.468000", "112218.468000", "112218.468000", "112218.468000", "112218.468000", "112218.484000", "112218.484000", "112218.484000", "112218.484000", "112218.484000", "112218.484000", "112218.500000", "112218.500000", "112218.500000", "112218.500000", "112218.500000", "112218.500000", "112218.500000", "112238.453000", "112238.453000", "112238.453000", "112238.453000", "112238.453000", "112238.453000", "112238.468000", "112238.468000", "112238.468000", "112238.468000", "112238.468000", "112238.468000", "112238.468000", "112238.484000", "112238.484000", "112238.484000", "112238.484000", "112238.484000", "112238.484000", "112238.484000", "112238.500000", "112238.500000", "112238.500000", "112238.500000", "112238.500000", "112238.500000", "112258.453000", "112258.453000", "112258.453000", "112258.453000", "112258.453000", "112258.453000", "112258.468000", "112258.468000", "112258.468000", "112258.468000", "112258.468000", "112258.468000", "112258.468000", "112258.484000", "112258.484000", "112258.484000", "112258.484000", "112258.484000", "112258.484000", "112258.484000", "112258.484000", "112258.500000", "112258.500000", "112258.500000", "112258.500000", "112318.453000", "112318.453000", "112318.453000", "112318.453000", "112318.453000", "112318.453000", "112318.468000", "112318.468000", "112318.468000", "112318.468000", "112318.468000", "112318.468000", "112318.484000", "112318.484000", "112318.484000", "112318.484000", "112318.484000", "112318.484000", "112318.484000", "112318.484000", "112318.500000", "112318.500000", "112318.500000", "112318.500000", "112318.500000", "112318.500000", "112338.453000", "112338.453000", "112338.453000", "112338.453000", "112338.453000", "112338.453000", "112338.468000", "112338.468000", "112338.468000", "112338.468000", "112338.468000", "112338.468000", "112338.484000", "112338.484000", "112338.484000", "112338.484000", "112338.484000", "112338.484000", "112338.484000", "112338.500000", "112338.500000", "112338.500000", "112338.500000", "112338.500000", "112338.500000", "112358.453000", "112358.453000", "112358.453000", "112358.453000", "112358.453000", "112358.453000", "112358.468000", "112358.468000", "112358.468000", "112358.468000", "112358.468000", "112358.468000", "112358.468000", "112358.484000", "112358.484000", "112358.484000", "112358.484000", "112358.484000", "112358.484000", "112358.500000", "112358.500000", "112358.500000", "112358.500000", "112358.500000", "112358.500000", "112358.500000", "112418.453000", "112418.453000", "112418.453000", "112418.453000", "112418.453000", "112418.453000", "112418.468000", "112418.468000", "112418.468000", "112418.468000", "112418.468000", "112418.468000", "112418.468000", "112418.484000", "112418.484000", "112418.484000", "112418.484000", "112418.484000", "112418.484000", "112418.500000", "112418.500000", "112418.500000", "112418.500000", "112418.500000", "112418.515000", "112438.453000", "112438.453000", "112438.453000", "112438.453000", "112438.453000", "112438.453000", "112438.468000", "112438.468000", "112438.468000", "112438.468000", "112438.468000", "112438.468000", "112438.468000", "112438.484000", "112438.484000", "112438.484000", "112438.484000", "112438.484000", "112438.484000", "112438.500000", "112438.500000", "112438.500000", "112438.500000", "112438.500000", "112438.500000", "112438.500000", "112458.453000", "112458.453000", "112458.453000", "112458.453000", "112458.453000", "112458.453000", "112458.468000", "112458.468000", "112458.468000", "112458.468000", "112458.468000", "112458.468000", "112458.468000", "112458.484000", "112458.484000", "112458.484000", "112458.484000", "112458.484000", "112458.484000", "112458.484000", "112458.484000", "112458.500000", "112458.500000", "112458.500000", "112458.500000", "112518.453000", "112518.453000", "112518.453000", "112518.453000", "112518.453000", "112518.453000", "112518.468000", "112518.468000", "112518.468000", "112518.468000", "112518.468000", "112518.468000", "112518.468000", "112518.484000", "112518.484000", "112518.484000", "112518.484000", "112518.484000", "112518.484000", "112518.484000", "112518.500000", "112518.500000", "112518.500000", "112518.500000", "112518.500000", "112518.500000", "112538.453000", "112538.453000", "112538.453000", "112538.453000", "112538.453000", "112538.453000", "112538.468000", "112538.468000", "112538.468000", "112538.468000", "112538.468000", "112538.468000", "112538.468000", "112538.484000", "112538.484000", "112538.484000", "112538.484000", "112538.484000", "112538.484000", "112538.484000", "112538.484000", "112538.500000", "112538.500000", "112538.500000", "112538.500000", "112558.453000", "112558.453000", "112558.453000", "112558.453000", "112558.468000", "112558.468000", "112558.468000", "112558.468000", "112558.468000", "112558.468000", "112558.484000", "112558.484000", "112558.484000", "112558.484000", "112558.484000", "112558.484000", "112558.484000", "112558.500000", "112558.500000", "112558.500000", "112558.500000", "112558.500000", "112558.500000", "112558.500000", "112558.500000", "112558.515000", "112618.453000", "112618.453000", "112618.453000", "112618.453000", "112618.453000", "112618.453000", "112618.468000", "112618.468000", "112618.468000", "112618.468000", "112618.468000", "112618.468000", "112618.468000", "112618.468000", "112618.484000", "112618.484000", "112618.484000", "112618.484000", "112618.484000", "112618.484000", "112618.500000", "112618.500000", "112618.500000", "112618.500000", "112618.500000", "112638.453000", "112638.453000", "112638.453000", "112638.453000", "112638.453000", "112638.453000", "112638.468000", "112638.468000", "112638.468000", "112638.468000", "112638.468000", "112638.468000", "112638.468000", "112638.484000", "112638.484000", "112638.484000", "112638.484000", "112638.484000", "112638.484000", "112638.484000", "112638.484000", "112638.500000", "112638.500000", "112638.500000", "112638.500000", "112638.500000", "112658.453000", "112658.453000", "112658.453000", "112658.453000", "112658.453000", "112658.453000", "112658.468000", "112658.468000", "112658.468000", "112658.468000", "112658.468000", "112658.468000", "112658.468000", "112658.484000", "112658.484000", "112658.484000", "112658.484000", "112658.484000", "112658.484000", "112658.484000", "112658.500000", "112658.500000", "112658.500000", "112658.500000", "112658.500000", "112718.453000", "112718.453000", "112718.453000", "112718.453000", "112718.453000", "112718.453000", "112718.468000", "112718.468000", "112718.468000", "112718.468000", "112718.468000", "112718.468000", "112718.468000", "112718.484000", "112718.484000", "112718.484000", "112718.484000", "112718.484000", "112718.484000", "112718.484000", "112718.484000", "112718.500000", "112718.500000", "112718.500000", "112718.500000", "112718.500000", "112738.453000", "112738.453000", "112738.453000", "112738.453000", "112738.453000", "112738.453000", "112738.468000", "112738.468000", "112738.468000", "112738.468000", "112738.468000", "112738.468000", "112738.468000", "112738.484000", "112738.484000", "112738.484000", "112738.484000", "112738.484000", "112738.484000", "112738.484000", "112738.500000", "112738.500000", "112738.500000", "112738.500000", "112738.500000", "112758.453000", "112758.453000", "112758.453000", "112758.453000", "112758.453000", "112758.468000", "112758.468000", "112758.468000", "112758.468000", "112758.468000", "112758.468000", "112758.468000", "112758.484000", "112758.484000", "112758.484000", "112758.484000", "112758.484000", "112758.484000", "112758.484000", "112758.500000", "112758.500000", "112758.500000", "112758.500000", "112758.500000", "112758.500000", "112803.218000", "112803.218000", "112803.218000", "112803.218000", "112803.218000", "112803.218000", "112803.234000"],
