{
  "AcquisitionMatrixPE": 104,
  "AcquisitionNumber": 1,
  "AcquisitionTime": "12:03:20.775000",
  "BandwidthPerPixelPhaseEncode": 13.935,
  "BaseResolution": 104,
  "CoilString": "C:HEA;HEP",
  "ConversionSoftware": "dcm2niix",
  "ConversionSoftwareVersion": "v1.0.20210317",
  "DerivedVendorReportedEchoSpacing": 0.000690017,
  "DeviceSerialNumber": "35450",
  "DwellTime": 2.5e-06,
  "EchoTime": 0.0348,
  "EffectiveEchoSpacing": 0.000690017,
  "FlipAngle": 55,
  "ImageComments": "Unaliased MB8/PE3 (remote)",
  "ImageOrientationPatientDICOM": [0.999946, -0.00187463, -0.0102168, 5.2022e-08, 0.983581, -0.180466],
  "ImageType": [
    "ORIGINAL",
    "PRIMARY",
    "M",
    "MB",
    "ND",
    "MOSAIC"
],
  "ImagingFrequency": 123.235,
  "InPlanePhaseEncodingDirectionDICOM": "COL",
  "InstitutionAddress": "Univeristy Ave. 197,Newark,North East,US,07102-1814",
  "InstitutionName": "RUBIC",
  "InstitutionalDepartmentName": "Department",
  "MRAcquisitionType": "2D",
  "MagneticFieldStrength": 3,
  "Manufacturer": "Siemens",
  "ManufacturersModelName": "TrioTim",
  "Modality": "MR",
  "MultibandAccelerationFactor": 8,
  "PartialFourier": 0.875,
  "PatientPosition": "HFS",
  "PercentPhaseFOV": 100,
  "PercentSampling": 100,
  "PhaseEncodingDirection": "j-",
  "PhaseEncodingSteps": 91,
  "PhaseResolution": 1,
  "PixelBandwidth": 1923,
  "ProcedureStepDescription": "Cole^Michael",
  "ProtocolName": "cmrr_mbep2d_bold_2mm_MB8_Task_8x",
  "PulseSequenceDetails": "%CustomerSeq%\\cmrr_mbep2d_bold",
  "ReceiveCoilName": "32Ch_Head",
  "ReconMatrixPE": 104,
  "RepetitionTime": 0.785,
  "SAR": 0.118457,
  "ScanOptions": "PFP\\FS",
  "ScanningSequence": "EP",
  "SequenceName": "epfid2d1_104",
  "SequenceVariant": "SK\\SS",
  "SeriesDescription": "cmrr_mbep2d_bold_2mm_MB8_Task_8x",
  "SeriesNumber": 21,
  "ShimSetting": [2077, -368, -7257, 443, 248, -667, -97, -7],
  "SliceThickness": 2,
  "SliceTiming": [0, 0.4375, 0.0875, 0.525, 0.175, 0.6125, 0.2625, 0.7, 0.35, 0, 0.4375, 0.0875, 0.525, 0.175, 0.6125, 0.2625, 0.7, 0.35, 0, 0.4375, 0.0875, 0.525, 0.175, 0.6125, 0.2625, 0.7, 0.35, 0, 0.4375, 0.0875, 0.525, 0.175, 0.6125, 0.2625, 0.7, 0.35, 0, 0.4375, 0.0875, 0.525, 0.175, 0.6125, 0.2625, 0.7, 0.35, 0, 0.4375, 0.0875, 0.525, 0.175, 0.6125, 0.2625, 0.7, 0.35, 0, 0.4375, 0.0875, 0.525, 0.175, 0.6125, 0.2625, 0.7, 0.35, 0, 0.4375, 0.0875, 0.525, 0.175, 0.6125, 0.2625, 0.7, 0.35],
  "SoftwareVersions": "syngo MR B19",
  "SpacingBetweenSlices": 2,
  "StationName": "MRC35450",
  "TaskName": "cpro",
  "TotalReadoutTime": 0.0710717,
  "TxRefAmp": 317.333,
  "dcmmeta_affine": [
    [-1.9998921155929565, 1.0404392014606856e-07, -0.020774783566594124, 105.44805908203125],
    [0.003749253461137414, 1.9671622514724731, -0.36091339588165283, -74.31863403320312],
    [-0.020433668047189713, 0.360932856798172, 1.967056155204773, -110.6610336303711],
    [0.0, 0.0, 0.0, 1.0]
],
  "dcmmeta_reorient_transform": [
    [0.0, -1.0, 0.0, 103.0],
    [1.0, 0.0, 0.0, 0.0],
    [0.0, 0.0, 1.0, 0.0],
    [0.0, 0.0, 0.0, 1.0]
],
  "dcmmeta_shape": [104, 104, 72, 581],
  "dcmmeta_slice_dim": 2,
  "dcmmeta_version": 0.6,
  "global": {
    "const": {
      "AcquisitionMatrix": [104, 0, 0, 104],
      "AngioFlag": "N",
      "BitsAllocated": 16,
      "BitsStored": 12,
      "Columns": 936,
      "EchoNumbers": 1,
      "EchoTime": 34.8,
      "EchoTrainLength": 1,
      "FlipAngle": 55.0,
      "HighBit": 11,
      "ImageOrientationPatient": [0.99994604958683, -0.0018746267239, -0.0102168336747, 5.2021961e-08, 0.98358114475792, -0.1804664281153],
      "ImagePositionPatient": [-937.40322637591, -945.078905723, 85.163523513928],
      "ImageType": [
        "ORIGINAL",
        "PRIMARY",
        "M",
        "MB",
        "ND",
        "MOSAIC"
],
      "ImagedNucleus": "1H",
      "ImagingFrequency": 123.234518,
      "InPlanePhaseEncodingDirection": "COL",
      "MRAcquisitionType": "2D",
      "MagneticFieldStrength": 3.0,
      "Manufacturer": "SIEMENS",
      "ManufacturerModelName": "TrioTim",
      "Modality": "MR",
      "NumberOfAverages": 1.0,
      "NumberOfPhaseEncodingSteps": 91,
      "PercentPhaseFieldOfView": 100.0,
      "PercentSampling": 100.0,
      "PerformedProcedureStepStartTime": "101512.937000",
      "PhotometricInterpretation": "MONOCHROME2",
      "PixelBandwidth": 1923.0,
      "PixelRepresentation": 0,
      "PixelSpacing": [2.0, 2.0],
      "ProtocolName": "cmrr_mbep2d_bold_2mm_MB8_Task_8x",
      "RepetitionTime": 785.0,
      "Rows": 936,
      "SAR": 0.11845703414073,
      "SamplesPerPixel": 1,
      "ScanOptions": [
        "PFP",
        "FS"
],
      "ScanningSequence": "EP",
      "SequenceName": "epfid2d1_104",
      "SequenceVariant": [
        "SK",
        "SS"
],
      "SeriesDescription": "cmrr_mbep2d_bold_2mm_MB8_Task_8x",
      "SeriesNumber": 21,
      "SeriesTime": "120356.921000",
      "SliceLocation": -96.522270513934,
      "SliceThickness": 2.0,
      "SmallestImagePixelValue": 0,
      "SoftwareVersions": "syngo MR B19",
      "SpacingBetweenSlices": 2.0000000063378,
      "SpecificCharacterSet": "ISO_IR 100",
      "StudyID": "1",
      "StudyTime": "101512.890000",
      "TransmitCoilName": "Body",
      "VariableFlipAngleFlag": "N",
      "WindowCenterWidthExplanation": "Algo1",
      "dBdt": 0.0},
    "slices": {}
  },
  "time": {
    "samples": {
      "AcquisitionNumber": [1, 2, 3, 4, 5, 6, 7, 8, 9, 10, 11, 12, 13, 14, 15, 16, 17, 18, 19, 20, 21, 22, 23, 24, 25, 26, 27, 28, 29, 30, 31, 32, 33, 34, 35, 36, 37, 38, 39, 40, 41, 42, 43, 44, 45, 46, 47, 48, 49, 50, 51, 52, 53, 54, 55, 56, 57, 58, 59, 60, 61, 62, 63, 64, 65, 66, 67, 68, 69, 70, 71, 72, 73, 74, 75, 76, 77, 78, 79, 80, 81, 82, 83, 84, 85, 86, 87, 88, 89, 90, 91, 92, 93, 94, 95, 96, 97, 98, 99, 100, 101, 102, 103, 104, 105, 106, 107, 108, 109, 110, 111, 112, 113, 114, 115, 116, 117, 118, 119, 120, 121, 122, 123, 124, 125, 126, 127, 128, 129, 130, 131, 132, 133, 134, 135, 136, 137, 138, 139, 140, 141, 142, 143, 144, 145, 146, 147, 148, 149, 150, 151, 152, 153, 154, 155, 156, 157, 158, 159, 160, 161, 162, 163, 164, 165, 166, 167, 168, 169, 170, 171, 172, 173, 174, 175, 176, 177, 178, 179, 180, 181, 182, 183, 184, 185, 186, 187, 188, 189, 190, 191, 192, 193, 194, 195, 196, 197, 198, 199, 200, 201, 202, 203, 204, 205, 206, 207, 208, 209, 210, 211, 212, 213, 214, 215, 216, 217, 218, 219, 220, 221, 222, 223, 224, 225, 226, 227, 228, 229, 230, 231, 232, 233, 234, 235, 236, 237, 238, 239, 240, 241, 242, 243, 244, 245, 246, 247, 248, 249, 250, 251, 252, 253, 254, 255, 256, 257, 258, 259, 260, 261, 262, 263, 264, 265, 266, 267, 268, 269, 270, 271, 272, 273, 274, 275, 276, 277, 278, 279, 280, 281, 282, 283, 284, 285, 286, 287, 288, 289, 290, 291, 292, 293, 294, 295, 296, 297, 298, 299, 300, 301, 302, 303, 304, 305, 306, 307, 308, 309, 310, 311, 312, 313, 314, 315, 316, 317, 318, 319, 320, 321, 322, 323, 324, 325, 326, 327, 328, 329, 330, 331, 332, 333, 334, 335, 336, 337, 338, 339, 340, 341, 342, 343, 344, 345, 346, 347, 348, 349, 350, 351, 352, 353, 354, 355, 356, 357, 358, 359, 360, 361, 362, 363, 364, 365, 366, 367, 368, 369, 370, 371, 372, 373, 374, 375, 376, 377, 378, 379, 380, 381, 382, 383, 384, 385, 386, 387, 388, 389, 390, 391, 392, 393, 394, 395, 396, 397, 398, 399, 400, 401, 402, 403, 404, 405, 406, 407, 408, 409, 410, 411, 412, 413, 414, 415, 416, 417, 418, 419, 420, 421, 422, 423, 424, 425, 426, 427, 428, 429, 430, 431, 432, 433, 434, 435, 436, 437, 438, 439, 440, 441, 442, 443, 444, 445, 446, 447, 448, 449, 450, 451, 452, 453, 454, 455, 456, 457, 458, 459, 460, 461, 462, 463, 464, 465, 466, 467, 468, 469, 470, 471, 472, 473, 474, 475, 476, 477, 478, 479, 480, 481, 482, 483, 484, 485, 486, 487, 488, 489, 490, 491, 492, 493, 494, 495, 496, 497, 498, 499, 500, 501, 502, 503, 504, 505, 506, 507, 508, 509, 510, 511, 512, 513, 514, 515, 516, 517, 518, 519, 520, 521, 522, 523, 524, 525, 526, 527, 528, 529, 530, 531, 532, 533, 534, 535, 536, 537, 538, 539, 540, 541, 542, 543, 544, 545, 546, 547, 548, 549, 550, 551, 552, 553, 554, 555, 556, 557, 558, 559, 560, 561, 562, 563, 564, 565, 566, 567, 568, 569, 570, 571, 572, 573, 574, 575, 576, 577, 578, 579, 580, 581],
      "AcquisitionTime": ["120320.775000", "120321.562500", "120322.352500", "120323.140000", "120323.927500", "120324.715000", "120325.505000", "120326.292500", "120327.080000", "120327.867500", "120328.657500", "120329.445000", "120330.232500", "120331.020000", "120331.810000", "120332.597500", "120333.385000", "120334.172500", "120334.962500", "120335.750000", "120336.537500", "120337.325000", "120338.115000", "120338.902500", "120339.690000", "120340.480000", "120341.267500", "120342.055000", "120342.842500", "120343.632500", "120344.420000", "120345.207500", "120345.995000", "120346.785000", "120347.572500", "120348.360000", "120349.147500", "120349.937500", "120350.725000", "120351.512500", "120352.300000", "120353.090000", "120353.877500", "120354.665000", "120355.452500", "120356.242500", "120357.030000", "120357.817500", "120358.607500", "120359.395000", "120400.182500", "120400.970000", "120401.760000", "120402.547500", "120403.335000", "120404.122500", "120404.912500", "120405.700000", "120406.487500", "120407.275000", "120408.065000", "120408.852500", "120409.640000", "120410.427500", "120411.217500", "120412.005000", "120412.792500", "120413.580000", "120414.370000", "120415.157500", "120415.945000", "120416.735000", "120417.522500", "120418.310000", "120419.097500", "120419.887500", "120420.675000", "120421.462500", "120422.250000", "120423.040000", "120423.827500", "120424.615000", "120425.402500", "120426.192500", "120426.980000", "120427.767500", "120428.555000", "120429.345000", "120430.132500", "120430.920000", "120431.707500", "120432.497500", "120433.285000", "120434.072500", "120434.862500", "120435.650000", "120436.437500", "120437.225000", "120438.015000", "120438.802500", "120439.590000", "120440.377500", "120441.167500", "120441.955000", "120442.742500", "120443.530000", "120444.320000", "120445.107500", "120445.895000", "120446.682500", "120447.472500", "120448.260000", "120449.047500", "120449.837500", "120450.625000", "120451.412500", "120452.200000", "120452.990000", "120453.777500", "120454.565000", "120455.352500", "120456.142500", "120456.930000", "120457.717500", "120458.505000", "120459.295000", "120500.082500", "120500.870000", "120501.657500", "120502.447500", "120503.235000", "120504.022500", "120504.810000", "120505.600000", "120506.387500", "120507.175000", "120507.965000", "120508.752500", "120509.540000", "120510.327500", "120511.117500", "120511.905000", "120512.692500", "120513.480000", "120514.270000", "120515.057500", "120515.845000", "120516.632500", "120517.422500", "120518.210000", "120518.997500", "120519.785000", "120520.575000", "120521.362500", "120522.150000", "120522.937500", "120523.727500", "120524.515000", "120525.302500", "120526.092500", "120526.880000", "120527.667500", "120528.455000", "120529.245000", "120530.032500", "120530.820000", "120531.607500", "120532.397500", "120533.185000", "120533.972500", "120534.760000", "120535.550000", "120536.337500", "120537.125000", "120537.912500", "120538.702500", "120539.490000", "120540.277500", "120541.065000", "120541.855000", "120542.642500", "120543.430000", "120544.220000", "120545.007500", "120545.795000", "120546.582500", "120547.372500", "120548.160000", "120548.947500", "120549.735000", "120550.525000", "120551.312500", "120552.100000", "120552.887500", "120553.677500", "120554.465000", "120555.252500", "120556.040000", "120556.830000", "120557.617500", "120558.405000", "120559.192500", "120559.982500", "120600.770000", "120601.557500", "120602.347500", "120603.135000", "120603.922500", "120604.710000", "120605.500000", "120606.287500", "120607.075000", "120607.862500", "120608.652500", "120609.440000", "120610.227500", "120611.015000", "120611.805000", "120612.592500", "120613.380000", "120614.167500", "120614.957500", "120615.745000", "120616.532500", "120617.320000", "120618.110000", "120618.897500", "120619.685000", "120620.475000", "120621.262500", "120622.050000", "120622.837500", "120623.627500", "120624.415000", "120625.202500", "120625.990000", "120626.780000", "120627.567500", "120628.355000", "120629.142500", "120629.932500", "120630.720000", "120631.507500", "120632.295000", "120633.085000", "120633.872500", "120634.660000", "120635.447500", "120636.237500", "120637.025000", "120637.812500", "120638.602500", "120639.390000", "120640.177500", "120640.965000", "120641.755000", "120642.542500", "120643.330000", "120644.117500", "120644.907500", "120645.695000", "120646.482500", "120647.270000", "120648.060000", "120648.847500", "120649.635000", "120650.422500", "120651.212500", "120652.000000", "120652.787500", "120653.575000", "120654.365000", "120655.152500", "120655.940000", "120656.730000", "120657.517500", "120658.305000", "120659.092500", "120659.882500", "120700.670000", "120701.457500", "120702.245000", "120703.035000", "120703.822500", "120704.610000", "120705.397500", "120706.187500", "120706.975000", "120707.762500", "120708.550000", "120709.340000", "120710.127500", "120710.915000", "120711.702500", "120712.492500", "120713.280000", "120714.067500", "120714.857500", "120715.645000", "120716.432500", "120717.220000", "120718.010000", "120718.797500", "120719.585000", "120720.372500", "120721.162500", "120721.950000", "120722.737500", "120723.525000", "120724.315000", "120725.102500", "120725.890000", "120726.677500", "120727.467500", "120728.255000", "120729.042500", "120729.830000", "120730.620000", "120731.407500", "120732.195000", "120732.985000", "120733.772500", "120734.560000", "120735.347500", "120736.137500", "120736.925000", "120737.712500", "120738.500000", "120739.290000", "120740.077500", "120740.865000", "120741.652500", "120742.442500", "120743.230000", "120744.017500", "120744.805000", "120745.595000", "120746.382500", "120747.170000", "120747.957500", "120748.747500", "120749.535000", "120750.322500", "120751.112500", "120751.900000", "120752.687500", "120753.475000", "120754.265000", "120755.052500", "120755.840000", "120756.627500", "120757.417500", "120758.205000", "120758.992500", "120759.780000", "120800.570000", "120801.357500", "120802.145000", "120802.932500", "120803.722500", "120804.510000", "120805.297500", "120806.087500", "120806.875000", "120807.662500", "120808.450000", "120809.240000", "120810.027500", "120810.815000", "120811.602500", "120812.392500", "120813.180000", "120813.967500", "120814.755000", "120815.545000", "120816.332500", "120817.120000", "120817.907500", "120818.697500", "120819.485000", "120820.272500", "120821.060000", "120821.850000", "120822.637500", "120823.425000", "120824.215000", "120825.002500", "120825.790000", "120826.577500", "120827.367500", "120828.155000", "120828.942500", "120829.730000", "120830.520000", "120831.307500", "120832.095000", "120832.882500", "120833.672500", "120834.460000", "120835.247500", "120836.035000", "120836.825000", "120837.612500", "120838.400000", "120839.187500", "120839.977500", "120840.765000", "120841.552500", "120842.342500", "120843.130000", "120843.917500", "120844.705000", "120845.495000", "120846.282500", "120847.070000", "120847.857500", "120848.647500", "120849.435000", "120850.222500", "120851.010000", "120851.800000", "120852.587500", "120853.375000", "120854.162500", "120854.952500", "120855.740000", "120856.527500", "120857.315000", "120858.105000", "120858.892500", "120859.680000", "120900.470000", "120901.257500", "120902.045000", "120902.832500", "120903.622500", "120904.410000", "120905.197500", "120905.985000", "120906.775000", "120907.562500", "120908.350000", "120909.137500", "120909.927500", "120910.715000", "120911.502500", "120912.290000", "120913.080000", "120913.867500", "120914.655000", "120915.442500", "120916.232500", "120917.020000", "120917.807500", "120918.597500", "120919.385000", "120920.172500", "120920.960000", "120921.750000", "120922.537500", "120923.325000", "120924.112500", "120924.902500", "120925.690000", "120926.477500", "120927.265000", "120928.055000", "120928.842500", "120929.630000", "120930.417500", "120931.207500", "120931.995000", "120932.782500", "120933.570000", "120934.360000", "120935.147500", "120935.935000", "120936.725000", "120937.512500", "120938.300000", "120939.087500", "120939.877500", "120940.665000", "120941.452500", "120942.240000", "120943.030000", "120943.817500", "120944.605000", "120945.392500", "120946.182500", "120946.970000", "120947.757500", "120948.545000", "120949.335000", "120950.122500", "120950.910000", "120951.697500", "120952.487500", "120953.275000", "120954.062500", "120954.852500", "120955.640000", "120956.427500", "120957.215000", "120958.005000", "120958.792500", "120959.580000", "121000.367500", "121001.157500", "121001.945000", "121002.732500", "121003.520000", "121004.310000", "121005.097500", "121005.885000", "121006.672500", "121007.462500", "121008.250000", "121009.037500", "121009.825000", "121010.615000", "121011.402500", "121012.190000", "121012.980000", "121013.767500", "121014.555000", "121015.342500", "121016.132500", "121016.920000", "121017.707500", "121018.495000", "121019.285000", "121020.072500", "121020.860000", "121021.647500", "121022.437500", "121023.225000", "121024.012500", "121024.800000", "121025.590000", "121026.377500", "121027.165000", "121027.952500", "121028.742500", "121029.530000", "121030.317500", "121031.107500", "121031.895000", "121032.682500", "121033.470000", "121034.260000", "121035.047500", "121035.835000", "121036.622500", "121037.412500", "121038.200000", "121038.987500", "121039.775000", "121040.565000", "121041.352500", "121042.140000", "121042.927500", "121043.717500", "121044.505000", "121045.292500", "121046.080000", "121046.870000", "121047.657500", "121048.445000", "121049.235000", "121050.022500", "121050.810000", "121051.597500", "121052.387500", "121053.175000", "121053.962500", "121054.750000", "121055.540000", "121056.327500", "121057.115000", "121057.902500"],
      "ContentTime": ["120356.921000", "120356.921000", "120356.921000", "120356.921000", "120356.921000", "120356.921000", "120356.937000", "120356.937000", "120356.937000", "120356.937000", "120356.937000", "120356.937000", "120356.937000", "120356.937000", "120356.953000", "120356.953000", "120356.953000", "120356.953000", "120356.953000", "120356.968000", "120356.968000", "120356.968000", "120356.968000", "120356.968000", "120356.968000", "120356.968000", "120356.984000", "120356.984000", "120356.984000", "120356.984000", "120356.984000", "120356.984000", "120356.984000", "120356.984000", "120357.000000", "120357.000000", "120357.000000", "120357.000000", "120357.000000", "120357.015000", "120357.015000", "120357.015000", "120357.015000", "120416.890000", "120416.890000", "120416.906000", "120416.906000", "120416.906000", "120416.906000", "120416.906000", "120416.906000", "120416.906000", "120416.906000", "120416.921000", "120416.921000", "120416.921000", "120416.921000", "120416.921000", "120416.921000", "120416.921000", "120416.921000", "120416.937000", "120416.937000", "120416.937000", "120416.937000", "120416.937000", "120416.937000", "120416.937000", "120436.890000", "120436.890000", "120436.906000", "120436.906000", "120436.906000", "120436.906000", "120436.906000", "120436.906000", "120436.906000", "120436.906000", "120436.921000", "120436.921000", "120436.921000", "120436.921000", "120436.921000", "120436.937000", "120436.937000", "120436.937000", "120436.937000", "120436.937000", "120436.937000", "120436.937000", "120436.953000", "120436.953000", "120436.953000", "120436.953000", "120456.890000", "120456.906000", "120456.906000", "120456.906000", "120456.906000", "120456.906000", "120456.921000", "120456.921000", "120456.921000", "120456.921000", "120456.921000", "120456.937000", "120456.937000", "120456.937000", "120456.937000", "120456.937000", "120456.937000", "120456.953000", "120456.953000", "120456.953000", "120456.953000", "120456.953000", "120456.953000", "120456.953000", "120456.953000", "120516.890000", "120516.890000", "120516.906000", "120516.906000", "120516.906000", "120516.906000", "120516.906000", "120516.906000", "120516.906000", "120516.906000", "120516.921000", "120516.921000", "120516.921000", "120516.921000", "120516.921000", "120516.921000", "120516.921000", "120516.937000", "120516.937000", "120516.937000", "120516.937000", "120516.937000", "120516.937000", "120516.937000", "120516.937000", "120516.953000", "120536.890000", "120536.890000", "120536.906000", "120536.906000", "120536.906000", "120536.906000", "120536.906000", "120536.906000", "120536.906000", "120536.906000", "120536.921000", "120536.921000", "120536.921000", "120536.921000", "120536.921000", "120536.921000", "120536.921000", "120536.937000", "120536.937000", "120536.937000", "120536.937000", "120536.937000", "120536.937000", "120536.937000", "120536.937000", "120556.890000", "120556.890000", "120556.906000", "120556.906000", "120556.906000", "120556.906000", "120556.906000", "120556.906000", "120556.921000", "120556.921000", "120556.921000", "120556.921000", "120556.921000", "120556.921000", "120556.921000", "120556.921000", "120556.937000", "120556.937000", "120556.937000", "120556.937000", "120556.937000", "120556.937000", "120556.937000", "120556.953000", "120556.953000", "120556.953000", "120616.890000", "120616.890000", "120616.906000", "120616.906000", "120616.906000", "120616.906000", "120616.906000", "120616.906000", "120616.906000", "120616.921000", "120616.921000", "120616.921000", "120616.921000", "120616.921000", "120616.921000", "120616.921000", "120616.937000", "120616.937000", "120616.937000", "120616.937000", "120616.937000", "120616.937000", "120616.953000", "120616.953000", "120616.953000", "120636.890000", "120636.890000", "120636.906000", "120636.906000", "120636.906000", "120636.906000", "120636.906000", "120636.906000", "120636.906000", "120636.906000", "120636.921000", "120636.921000", "120636.921000", "120636.921000", "120636.921000", "120636.921000", "120636.921000", "120636.937000", "120636.937000", "120636.937000", "120636.937000", "120636.937000", "120636.953000", "120636.953000", "120636.953000", "120636.953000", "120656.890000", "120656.890000", "120656.906000", "120656.906000", "120656.906000", "120656.906000", "120656.906000", "120656.906000", "120656.906000", "120656.906000", "120656.921000", "120656.921000", "120656.921000", "120656.921000", "120656.921000", "120656.921000", "120656.921000", "120656.937000", "120656.937000", "120656.937000", "120656.937000", "120656.937000", "120656.937000", "120656.937000", "120656.937000", "120716.890000", "120716.890000", "120716.906000", "120716.906000", "120716.906000", "120716.906000", "120716.906000", "120716.906000", "120716.906000", "120716.906000", "120716.921000", "120716.921000", "120716.921000", "120716.921000", "120716.921000", "120716.921000", "120716.921000", "120716.937000", "120716.937000", "120716.937000", "120716.937000", "120716.937000", "120716.937000", "120716.937000", "120716.937000", "120716.953000", "120736.890000", "120736.890000", "120736.906000", "120736.906000", "120736.906000", "120736.906000", "120736.906000", "120736.906000", "120736.906000", "120736.921000", "120736.921000", "120736.921000", "120736.921000", "120736.921000", "120736.921000", "120736.921000", "120736.921000", "120736.937000", "120736.937000", "120736.937000", "120736.937000", "120736.937000", "120736.937000", "120736.937000", "120736.953000", "120756.890000", "120756.890000", "120756.906000", "120756.906000", "120756.906000", "120756.906000", "120756.906000", "120756.906000", "120756.906000", "120756.906000", "120756.921000", "120756.921000", "120756.921000", "120756.921000", "120756.921000", "120756.921000", "120756.921000", "120756.937000", "120756.937000", "120756.937000", "120756.937000", "120756.937000", "120756.937000", "120756.937000", "120756.937000", "120756.953000", "120816.890000", "120816.890000", "120816.906000", "120816.906000", "120816.906000", "120816.906000", "120816.906000", "120816.906000", "120816.906000", "120816.906000", "120816.921000", "120816.921000", "120816.921000", "120816.921000", "120816.921000", "120816.921000", "120816.937000", "120816.937000", "120816.937000", "120816.937000", "120816.937000", "120816.937000", "120816.937000", "120816.937000", "120816.953000", "120836.890000", "120836.921000", "120836.921000", "120836.921000", "120836.937000", "120836.937000", "120836.937000", "120836.937000", "120836.937000", "120836.953000", "120836.953000", "120836.953000", "120836.953000", "120836.953000", "120836.953000", "120836.953000", "120836.968000", "120836.968000", "120836.968000", "120836.968000", "120836.968000", "120836.968000", "120836.968000", "120836.968000", "120836.984000", "120856.890000", "120856.890000", "120856.906000", "120856.906000", "120856.906000", "120856.906000", "120856.906000", "120856.906000", "120856.906000", "120856.906000", "120856.921000", "120856.921000", "120856.921000", "120856.921000", "120856.921000", "120856.921000", "120856.921000", "120856.937000", "120856.937000", "120856.937000", "120856.937000", "120856.937000", "120856.937000", "120856.937000", "120856.953000", "120856.953000", "120916.890000", "120916.890000", "120916.906000", "120916.937000", "120916.937000", "120916.937000", "120916.937000", "120916.937000", "120916.937000", "120916.937000", "120916.937000", "120916.953000", "120916.953000", "120916.953000", "120916.953000", "120916.953000", "120916.953000", "120916.953000", "120916.968000", "120916.968000", "120916.968000", "120916.968000", "120916.968000", "120916.984000", "120916.984000", "120936.890000", "120936.890000", "120936.906000", "120936.906000", "120936.906000", "120936.906000", "120936.906000", "120936.906000", "120936.906000", "120936.906000", "120936.921000", "120936.921000", "120936.921000", "120936.921000", "120936.921000", "120936.937000", "120936.937000", "120936.937000", "120936.937000", "120936.937000", "120936.937000", "120936.937000", "120936.953000", "120936.953000", "120936.953000", "120936.953000", "120956.890000", "120956.906000", "120956.906000", "120956.906000", "120956.906000", "120956.906000", "120956.906000", "120956.906000", "120956.906000", "120956.921000", "120956.921000", "120956.921000", "120956.921000", "120956.921000", "120956.937000", "120956.937000", "120956.937000", "120956.937000", "120956.937000", "120956.937000", "120956.937000", "120956.953000", "120956.953000", "120956.953000", "120956.953000", "121016.890000", "121016.890000", "121016.906000", "121016.906000", "121016.906000", "121016.906000", "121016.906000", "121016.906000", "121016.906000", "121016.906000", "121016.921000", "121016.921000", "121016.921000", "121016.921000", "121016.921000", "121016.921000", "121016.921000", "121016.937000", "121016.937000", "121016.937000", "121016.937000", "121016.937000", "121016.937000", "121016.937000", "121016.953000", "121016.953000", "121036.890000", "121036.890000", "121036.906000", "121036.906000", "121036.906000", "121036.906000", "121036.906000", "121036.906000", "121036.906000", "121036.906000", "121036.921000", "121036.921000", "121036.921000", "121036.921000", "121036.921000", "121036.937000", "121036.937000", "121036.937000", "121036.937000", "121036.937000", "121036.937000", "121036.937000", "121036.937000", "121036.953000", "121036.953000", "121056.890000", "121056.890000", "121056.906000", "121056.906000", "121056.906000", "121056.906000", "121056.906000", "121056.906000", "121056.906000", "121056.906000", "121056.921000", "121056.921000", "121056.921000", "121056.921000", "121056.921000", "121056.921000", "121056.921000", "121056.937000", "121056.937000", "121056.937000", "121056.937000", "121056.937000", "121056.937000", "121056.937000", "121056.937000", "121056.953000", "121059.046000", "121059.046000", "121059.046000"],
