{
  "AcquisitionMatrixPE": 104,
  "AcquisitionNumber": 1,
  "AcquisitionTime": "11:24:53.820000",
  "BandwidthPerPixelPhaseEncode": 13.935,
  "BaseResolution": 104,
  "CoilString": "C:HEA;HEP",
  "ConversionSoftware": "dcm2niix",
  "ConversionSoftwareVersion": "v1.0.20210317",
  "DerivedVendorReportedEchoSpacing": 0.000690017,
  "DeviceSerialNumber": "35450",
  "DwellTime": 2.5e-06,
  "EchoTime": 0.0348,
  "EffectiveEchoSpacing": 0.000690017,
  "FlipAngle": 55,
  "ImageComments": "Unaliased MB8/PE3 (remote)",
  "ImageOrientationPatientDICOM": [1, 0, 0, 0, 0.975149, -0.221548],
  "ImageType": [
    "ORIGINAL",
    "PRIMARY",
    "M",
    "MB",
    "ND",
    "MOSAIC"
],
  "ImagingFrequency": 123.234,
  "InPlanePhaseEncodingDirectionDICOM": "COL",
  "InstitutionAddress": "Univeristy Ave. 197,Newark,North East,US,07102-1814",
  "InstitutionName": "RUBIC",
  "InstitutionalDepartmentName": "Department",
  "MRAcquisitionType": "2D",
  "MagneticFieldStrength": 3,
  "Manufacturer": "Siemens",
  "ManufacturersModelName": "TrioTim",
  "Modality": "MR",
  "MultibandAccelerationFactor": 8,
  "PartialFourier": 0.875,
  "PatientPosition": "HFS",
  "PercentPhaseFOV": 100,
  "PercentSampling": 100,
  "PhaseEncodingDirection": "j-",
  "PhaseEncodingSteps": 91,
  "PhaseResolution": 1,
  "PixelBandwidth": 1923,
  "ProcedureStepDescription": "Cole^Michael",
  "ProtocolName": "cmrr_mbep2d_bold_2mm_MB8_Task_8x",
  "PulseSequenceDetails": "%CustomerSeq%\\cmrr_mbep2d_bold",
  "ReceiveCoilName": "32Ch_Head",
  "ReconMatrixPE": 104,
  "RepetitionTime": 0.785,
  "SAR": 0.12895,
  "ScanOptions": "PFP\\FS",
  "ScanningSequence": "EP",
  "SequenceName": "epfid2d1_104",
  "SequenceVariant": "SK\\SS",
  "SeriesDescription": "cmrr_mbep2d_bold_2mm_MB8_Task_8x",
  "SeriesNumber": 13,
  "ShimSetting": [2075, -364, -7263, 225, 220, -495, 72, 24],
  "SliceThickness": 2,
  "SliceTiming": [0, 0.4375, 0.0875, 0.525, 0.175, 0.6125, 0.2625, 0.7, 0.35, 0, 0.4375, 0.0875, 0.525, 0.175, 0.6125, 0.2625, 0.7, 0.35, 0, 0.4375, 0.0875, 0.525, 0.175, 0.6125, 0.2625, 0.7, 0.35, 0, 0.4375, 0.0875, 0.525, 0.175, 0.6125, 0.2625, 0.7, 0.35, 0, 0.4375, 0.0875, 0.525, 0.175, 0.6125, 0.2625, 0.7, 0.35, 0, 0.4375, 0.0875, 0.525, 0.175, 0.6125, 0.2625, 0.7, 0.35, 0, 0.4375, 0.0875, 0.525, 0.175, 0.6125, 0.2625, 0.7, 0.35, 0, 0.4375, 0.0875, 0.525, 0.175, 0.6125, 0.2625, 0.7, 0.35],
  "SoftwareVersions": "syngo MR B19",
  "SpacingBetweenSlices": 2,
  "StationName": "MRC35450",
  "TaskName": "cpro",
  "TotalReadoutTime": 0.0710717,
  "TxRefAmp": 456.615,
  "dcmmeta_affine": [
    [-2.0, 0.0, 0.0, 101.96610260009766],
    [0.0, 1.9502986669540405, -0.44309699535369873, -79.59001159667969],
    [0.0, 0.44309699535369873, 1.9502986669540405, -116.91829681396484],
    [0.0, 0.0, 0.0, 1.0]
],
  "dcmmeta_reorient_transform": [
    [0.0, -1.0, 0.0, 103.0],
    [1.0, 0.0, 0.0, 0.0],
    [0.0, 0.0, 1.0, 0.0],
    [0.0, 0.0, 0.0, 1.0]
],
  "dcmmeta_shape": [104, 104, 72, 581],
  "dcmmeta_slice_dim": 2,
  "dcmmeta_version": 0.6,
  "global": {
    "const": {
      "AcquisitionMatrix": [104, 0, 0, 104],
      "AngioFlag": "N",
      "BitsAllocated": 16,
      "BitsStored": 12,
      "Columns": 936,
      "EchoNumbers": 1,
      "EchoTime": 34.8,
      "EchoTrainLength": 1,
      "FlipAngle": 55.0,
      "HighBit": 11,
      "ImageOrientationPatient": [1.0, 0.0, 0.0, 0.0, 0.97514935362234, -0.2215485006267],
      "ImagePositionPatient": [-933.96610164642, -932.61501624295, 113.04904593961],
      "ImageType": [
        "ORIGINAL",
        "PRIMARY",
        "M",
        "MB",
        "ND",
        "MOSAIC"
],
      "ImagedNucleus": "1H",
      "ImagingFrequency": 123.234423,
      "InPlanePhaseEncodingDirection": "COL",
      "MRAcquisitionType": "2D",
      "MagneticFieldStrength": 3.0,
      "Manufacturer": "SIEMENS",
      "ManufacturerModelName": "TrioTim",
      "Modality": "MR",
      "NumberOfAverages": 1.0,
      "NumberOfPhaseEncodingSteps": 91,
      "PercentPhaseFieldOfView": 100.0,
      "PercentSampling": 100.0,
      "PerformedProcedureStepStartTime": "101946.203000",
      "PhotometricInterpretation": "MONOCHROME2",
      "PixelBandwidth": 1923.0,
      "PixelRepresentation": 0,
      "PixelSpacing": [2.0, 2.0],
      "ProtocolName": "cmrr_mbep2d_bold_2mm_MB8_Task_8x",
      "RepetitionTime": 785.0,
      "Rows": 936,
      "SAR": 0.12895003944758,
      "SamplesPerPixel": 1,
      "ScanOptions": [
        "PFP",
        "FS"
],
      "ScanningSequence": "EP",
      "SequenceName": "epfid2d1_104",
      "SequenceVariant": [
        "SK",
        "SS"
],
      "SeriesDescription": "cmrr_mbep2d_bold_2mm_MB8_Task_8x",
      "SeriesNumber": 13,
      "SeriesTime": "112521.562000",
      "SliceLocation": -96.37975443493,
      "SliceThickness": 2.0,
      "SmallestImagePixelValue": 0,
      "SoftwareVersions": "syngo MR B19",
      "SpacingBetweenSlices": 1.9999999740658,
      "SpecificCharacterSet": "ISO_IR 100",
      "StudyID": "1",
      "StudyTime": "101946.078000",
      "TransmitCoilName": "Body",
      "VariableFlipAngleFlag": "N",
      "WindowCenterWidthExplanation": "Algo1",
      "dBdt": 0.0},
    "slices": {}
  },
  "time": {
    "samples": {
      "AcquisitionNumber": [1, 2, 3, 4, 5, 6, 7, 8, 9, 10, 11, 12, 13, 14, 15, 16, 17, 18, 19, 20, 21, 22, 23, 24, 25, 26, 27, 28, 29, 30, 31, 32, 33, 34, 35, 36, 37, 38, 39, 40, 41, 42, 43, 44, 45, 46, 47, 48, 49, 50, 51, 52, 53, 54, 55, 56, 57, 58, 59, 60, 61, 62, 63, 64, 65, 66, 67, 68, 69, 70, 71, 72, 73, 74, 75, 76, 77, 78, 79, 80, 81, 82, 83, 84, 85, 86, 87, 88, 89, 90, 91, 92, 93, 94, 95, 96, 97, 98, 99, 100, 101, 102, 103, 104, 105, 106, 107, 108, 109, 110, 111, 112, 113, 114, 115, 116, 117, 118, 119, 120, 121, 122, 123, 124, 125, 126, 127, 128, 129, 130, 131, 132, 133, 134, 135, 136, 137, 138, 139, 140, 141, 142, 143, 144, 145, 146, 147, 148, 149, 150, 151, 152, 153, 154, 155, 156, 157, 158, 159, 160, 161, 162, 163, 164, 165, 166, 167, 168, 169, 170, 171, 172, 173, 174, 175, 176, 177, 178, 179, 180, 181, 182, 183, 184, 185, 186, 187, 188, 189, 190, 191, 192, 193, 194, 195, 196, 197, 198, 199, 200, 201, 202, 203, 204, 205, 206, 207, 208, 209, 210, 211, 212, 213, 214, 215, 216, 217, 218, 219, 220, 221, 222, 223, 224, 225, 226, 227, 228, 229, 230, 231, 232, 233, 234, 235, 236, 237, 238, 239, 240, 241, 242, 243, 244, 245, 246, 247, 248, 249, 250, 251, 252, 253, 254, 255, 256, 257, 258, 259, 260, 261, 262, 263, 264, 265, 266, 267, 268, 269, 270, 271, 272, 273, 274, 275, 276, 277, 278, 279, 280, 281, 282, 283, 284, 285, 286, 287, 288, 289, 290, 291, 292, 293, 294, 295, 296, 297, 298, 299, 300, 301, 302, 303, 304, 305, 306, 307, 308, 309, 310, 311, 312, 313, 314, 315, 316, 317, 318, 319, 320, 321, 322, 323, 324, 325, 326, 327, 328, 329, 330, 331, 332, 333, 334, 335, 336, 337, 338, 339, 340, 341, 342, 343, 344, 345, 346, 347, 348, 349, 350, 351, 352, 353, 354, 355, 356, 357, 358, 359, 360, 361, 362, 363, 364, 365, 366, 367, 368, 369, 370, 371, 372, 373, 374, 375, 376, 377, 378, 379, 380, 381, 382, 383, 384, 385, 386, 387, 388, 389, 390, 391, 392, 393, 394, 395, 396, 397, 398, 399, 400, 401, 402, 403, 404, 405, 406, 407, 408, 409, 410, 411, 412, 413, 414, 415, 416, 417, 418, 419, 420, 421, 422, 423, 424, 425, 426, 427, 428, 429, 430, 431, 432, 433, 434, 435, 436, 437, 438, 439, 440, 441, 442, 443, 444, 445, 446, 447, 448, 449, 450, 451, 452, 453, 454, 455, 456, 457, 458, 459, 460, 461, 462, 463, 464, 465, 466, 467, 468, 469, 470, 471, 472, 473, 474, 475, 476, 477, 478, 479, 480, 481, 482, 483, 484, 485, 486, 487, 488, 489, 490, 491, 492, 493, 494, 495, 496, 497, 498, 499, 500, 501, 502, 503, 504, 505, 506, 507, 508, 509, 510, 511, 512, 513, 514, 515, 516, 517, 518, 519, 520, 521, 522, 523, 524, 525, 526, 527, 528, 529, 530, 531, 532, 533, 534, 535, 536, 537, 538, 539, 540, 541, 542, 543, 544, 545, 546, 547, 548, 549, 550, 551, 552, 553, 554, 555, 556, 557, 558, 559, 560, 561, 562, 563, 564, 565, 566, 567, 568, 569, 570, 571, 572, 573, 574, 575, 576, 577, 578, 579, 580, 581],
      "AcquisitionTime": ["112453.820000", "112454.607500", "112455.395000", "112456.185000", "112456.972500", "112457.760000", "112458.547500", "112459.337500", "112500.125000", "112500.912500", "112501.700000", "112502.490000", "112503.277500", "112504.065000", "112504.855000", "112505.642500", "112506.430000", "112507.217500", "112508.007500", "112508.795000", "112509.582500", "112510.370000", "112511.160000", "112511.947500", "112512.735000", "112513.522500", "112514.312500", "112515.100000", "112515.887500", "112516.675000", "112517.465000", "112518.252500", "112519.040000", "112519.827500", "112520.617500", "112521.405000", "112522.192500", "112522.982500", "112523.770000", "112524.557500", "112525.345000", "112526.135000", "112526.922500", "112527.710000", "112528.497500", "112529.287500", "112530.075000", "112530.862500", "112531.650000", "112532.440000", "112533.227500", "112534.015000", "112534.802500", "112535.592500", "112536.380000", "112537.167500", "112537.955000", "112538.745000", "112539.532500", "112540.320000", "112541.110000", "112541.897500", "112542.685000", "112543.472500", "112544.262500", "112545.050000", "112545.837500", "112546.625000", "112547.415000", "112548.202500", "112548.990000", "112549.777500", "112550.567500", "112551.355000", "112552.142500", "112552.930000", "112553.720000", "112554.507500", "112555.295000", "112556.082500", "112556.872500", "112557.660000", "112558.447500", "112559.237500", "112600.025000", "112600.812500", "112601.600000", "112602.390000", "112603.177500", "112603.965000", "112604.752500", "112605.542500", "112606.330000", "112607.117500", "112607.905000", "112608.695000", "112609.482500", "112610.270000", "112611.057500", "112611.847500", "112612.635000", "112613.422500", "112614.210000", "112615.000000", "112615.787500", "112616.575000", "112617.365000", "112618.152500", "112618.940000", "112619.727500", "112620.517500", "112621.305000", "112622.092500", "112622.880000", "112623.670000", "112624.457500", "112625.245000", "112626.032500", "112626.822500", "112627.610000", "112628.397500", "112629.185000", "112629.975000", "112630.762500", "112631.550000", "112632.337500", "112633.127500", "112633.915000", "112634.702500", "112635.492500", "112636.280000", "112637.067500", "112637.855000", "112638.645000", "112639.432500", "112640.220000", "112641.007500", "112641.797500", "112642.585000", "112643.372500", "112644.160000", "112644.950000", "112645.737500", "112646.525000", "112647.312500", "112648.102500", "112648.890000", "112649.677500", "112650.465000", "112651.255000", "112652.042500", "112652.830000", "112653.620000", "112654.407500", "112655.195000", "112655.982500", "112656.772500", "112657.560000", "112658.347500", "112659.135000", "112659.925000", "112700.712500", "112701.500000", "112702.287500", "112703.077500", "112703.865000", "112704.652500", "112705.440000", "112706.230000", "112707.017500", "112707.805000", "112708.592500", "112709.382500", "112710.170000", "112710.957500", "112711.747500", "112712.535000", "112713.322500", "112714.110000", "112714.900000", "112715.687500", "112716.475000", "112717.262500", "112718.052500", "112718.840000", "112719.627500", "112720.415000", "112721.205000", "112721.992500", "112722.780000", "112723.567500", "112724.357500", "112725.145000", "112725.932500", "112726.722500", "112727.510000", "112728.297500", "112729.085000", "112729.875000", "112730.662500", "112731.450000", "112732.237500", "112733.027500", "112733.815000", "112734.602500", "112735.390000", "112736.180000", "112736.967500", "112737.755000", "112738.542500", "112739.332500", "112740.120000", "112740.907500", "112741.695000", "112742.485000", "112743.272500", "112744.060000", "112744.850000", "112745.637500", "112746.425000", "112747.212500", "112748.002500", "112748.790000", "112749.577500", "112750.365000", "112751.155000", "112751.942500", "112752.730000", "112753.517500", "112754.307500", "112755.095000", "112755.882500", "112756.670000", "112757.460000", "112758.247500", "112759.035000", "112759.822500", "112800.612500", "112801.400000", "112802.187500", "112802.977500", "112803.765000", "112804.552500", "112805.340000", "112806.130000", "112806.917500", "112807.705000", "112808.492500", "112809.282500", "112810.070000", "112810.857500", "112811.645000", "112812.435000", "112813.222500", "112814.010000", "112814.797500", "112815.587500", "112816.375000", "112817.162500", "112817.950000", "112818.740000", "112819.527500", "112820.315000", "112821.105000", "112821.892500", "112822.680000", "112823.467500", "112824.257500", "112825.045000", "112825.832500", "112826.620000", "112827.410000", "112828.197500", "112828.985000", "112829.772500", "112830.562500", "112831.350000", "112832.137500", "112832.925000", "112833.715000", "112834.502500", "112835.290000", "112836.077500", "112836.867500", "112837.655000", "112838.442500", "112839.232500", "112840.020000", "112840.807500", "112841.595000", "112842.385000", "112843.172500", "112843.960000", "112844.747500", "112845.537500", "112846.325000", "112847.112500", "112847.900000", "112848.690000", "112849.477500", "112850.265000", "112851.052500", "112851.842500", "112852.630000", "112853.417500", "112854.205000", "112854.995000", "112855.782500", "112856.570000", "112857.360000", "112858.147500", "112858.935000", "112859.722500", "112900.512500", "112901.300000", "112902.087500", "112902.875000", "112903.665000", "112904.452500", "112905.240000", "112906.027500", "112906.817500", "112907.605000", "112908.392500", "112909.180000", "112909.970000", "112910.757500", "112911.545000", "112912.332500", "112913.122500", "112913.910000", "112914.697500", "112915.487500", "112916.275000", "112917.062500", "112917.850000", "112918.640000", "112919.427500", "112920.215000", "112921.002500", "112921.792500", "112922.580000", "112923.367500", "112924.155000", "112924.945000", "112925.732500", "112926.520000", "112927.307500", "112928.097500", "112928.885000", "112929.672500", "112930.460000", "112931.250000", "112932.037500", "112932.825000", "112933.615000", "112934.402500", "112935.190000", "112935.977500", "112936.767500", "112937.555000", "112938.342500", "112939.130000", "112939.920000", "112940.707500", "112941.495000", "112942.282500", "112943.072500", "112943.860000", "112944.647500", "112945.435000", "112946.225000", "112947.012500", "112947.800000", "112948.587500", "112949.377500", "112950.165000", "112950.952500", "112951.742500", "112952.530000", "112953.317500", "112954.105000", "112954.895000", "112955.682500", "112956.470000", "112957.257500", "112958.047500", "112958.835000", "112959.622500", "113000.410000", "113001.200000", "113001.987500", "113002.775000", "113003.562500", "113004.352500", "113005.140000", "113005.927500", "113006.715000", "113007.505000", "113008.292500", "113009.080000", "113009.870000", "113010.657500", "113011.445000", "113012.232500", "113013.022500", "113013.810000", "113014.597500", "113015.385000", "113016.175000", "113016.962500", "113017.750000", "113018.537500", "113019.327500", "113020.115000", "113020.902500", "113021.690000", "113022.480000", "113023.267500", "113024.055000", "113024.842500", "113025.632500", "113026.420000", "113027.207500", "113027.997500", "113028.785000", "113029.572500", "113030.360000", "113031.150000", "113031.937500", "113032.725000", "113033.512500", "113034.302500", "113035.090000", "113035.877500", "113036.665000", "113037.455000", "113038.242500", "113039.030000", "113039.817500", "113040.607500", "113041.395000", "113042.182500", "113042.972500", "113043.760000", "113044.547500", "113045.335000", "113046.125000", "113046.912500", "113047.700000", "113048.487500", "113049.277500", "113050.065000", "113050.852500", "113051.640000", "113052.430000", "113053.217500", "113054.005000", "113054.792500", "113055.582500", "113056.370000", "113057.157500", "113057.945000", "113058.735000", "113059.522500", "113100.310000", "113101.100000", "113101.887500", "113102.675000", "113103.462500", "113104.252500", "113105.040000", "113105.827500", "113106.615000", "113107.405000", "113108.192500", "113108.980000", "113109.767500", "113110.557500", "113111.345000", "113112.132500", "113112.920000", "113113.710000", "113114.497500", "113115.285000", "113116.072500", "113116.862500", "113117.650000", "113118.437500", "113119.227500", "113120.015000", "113120.802500", "113121.590000", "113122.380000", "113123.167500", "113123.955000", "113124.742500", "113125.532500", "113126.320000", "113127.107500", "113127.895000", "113128.685000", "113129.472500", "113130.260000", "113131.047500", "113131.837500", "113132.625000", "113133.412500", "113134.200000", "113134.990000", "113135.777500", "113136.565000", "113137.355000", "113138.142500", "113138.930000", "113139.717500", "113140.507500", "113141.295000", "113142.082500", "113142.870000", "113143.660000", "113144.447500", "113145.235000", "113146.022500", "113146.812500", "113147.600000", "113148.387500", "113149.175000", "113149.965000", "113150.752500", "113151.540000", "113152.327500", "113153.117500", "113153.905000", "113154.692500", "113155.482500", "113156.270000", "113157.057500", "113157.845000", "113158.635000", "113159.422500", "113200.210000", "113200.997500", "113201.787500", "113202.575000", "113203.362500", "113204.150000", "113204.940000", "113205.727500", "113206.515000", "113207.302500", "113208.092500", "113208.880000", "113209.667500", "113210.455000", "113211.245000", "113212.032500", "113212.820000", "113213.610000", "113214.397500", "113215.185000", "113215.972500", "113216.762500", "113217.550000", "113218.337500", "113219.125000", "113219.915000", "113220.702500", "113221.490000", "113222.277500", "113223.067500", "113223.855000", "113224.642500", "113225.430000", "113226.220000", "113227.007500", "113227.795000", "113228.582500", "113229.372500", "113230.160000", "113230.947500"],
      "ContentTime": ["112521.562000", "112521.578000", "112521.578000", "112521.578000", "112521.578000", "112521.578000", "112521.578000", "112521.578000", "112521.593000", "112521.593000", "112521.593000", "112521.593000", "112521.593000", "112521.593000", "112521.593000", "112521.593000", "112521.609000", "112521.609000", "112521.609000", "112521.609000", "112521.609000", "112521.609000", "112521.609000", "112521.625000", "112521.625000", "112521.625000", "112521.625000", "112521.625000", "112521.640000", "112521.640000", "112521.640000", "112521.640000", "112521.640000", "112541.531000", "112541.546000", "112541.546000", "112541.546000", "112541.546000", "112541.546000", "112541.546000", "112541.546000", "112541.546000", "112541.562000", "112541.562000", "112541.562000", "112541.562000", "112541.562000", "112541.562000", "112541.562000", "112541.578000", "112541.578000", "112541.578000", "112541.578000", "112541.578000", "112541.593000", "112541.593000", "112541.593000", "112541.593000", "112541.593000", "112601.531000", "112601.546000", "112601.546000", "112601.546000", "112601.546000", "112601.546000", "112601.546000", "112601.546000", "112601.546000", "112601.562000", "112601.562000", "112601.562000", "112601.562000", "112601.562000", "112601.562000", "112601.562000", "112601.578000", "112601.578000", "112601.578000", "112601.578000", "112601.578000", "112601.578000", "112601.593000", "112601.593000", "112601.593000", "112621.531000", "112621.546000", "112621.546000", "112621.546000", "112621.546000", "112621.546000", "112621.546000", "112621.546000", "112621.546000", "112621.562000", "112621.562000", "112621.562000", "112621.562000", "112621.562000", "112621.562000", "112621.562000", "112621.562000", "112621.578000", "112621.578000", "112621.578000", "112621.578000", "112621.578000", "112621.578000", "112621.593000", "112621.593000", "112621.593000", "112641.531000", "112641.546000", "112641.546000", "112641.546000", "112641.546000", "112641.546000", "112641.546000", "112641.546000", "112641.546000", "112641.562000", "112641.562000", "112641.562000", "112641.562000", "112641.562000", "112641.562000", "112641.578000", "112641.578000", "112641.578000", "112641.578000", "112641.578000", "112641.578000", "112641.578000", "112641.593000", "112641.593000", "112641.593000", "112701.531000", "112701.546000", "112701.546000", "112701.546000", "112701.546000", "112701.546000", "112701.546000", "112701.546000", "112701.546000", "112701.562000", "112701.562000", "112701.562000", "112701.562000", "112701.562000", "112701.562000", "112701.562000", "112701.562000", "112701.578000", "112701.578000", "112701.578000", "112701.578000", "112701.578000", "112701.578000", "112701.578000", "112701.593000", "112701.593000", "112721.531000", "112721.546000", "112721.546000", "112721.546000", "112721.546000", "112721.546000", "112721.546000", "112721.546000", "112721.546000", "112721.562000", "112721.562000", "112721.562000", "112721.562000", "112721.562000", "112721.562000", "112721.562000", "112721.578000", "112721.578000", "112721.578000", "112721.578000", "112721.578000", "112721.578000", "112721.578000", "112721.578000", "112721.593000", "112741.531000", "112741.546000", "112741.546000", "112741.546000", "112741.546000", "112741.546000", "112741.546000", "112741.546000", "112741.546000", "112741.562000", "112741.562000", "112741.562000", "112741.562000", "112741.562000", "112741.562000", "112741.562000", "112741.578000", "112741.578000", "112741.578000", "112741.578000", "112741.578000", "112741.578000", "112741.593000", "112741.593000", "112741.593000", "112741.593000", "112801.531000", "112801.546000", "112801.546000", "112801.546000", "112801.546000", "112801.546000", "112801.546000", "112801.546000", "112801.546000", "112801.562000", "112801.562000", "112801.562000", "112801.562000", "112801.562000", "112801.562000", "112801.562000", "112801.578000", "112801.578000", "112801.578000", "112801.578000", "112801.578000", "112801.578000", "112801.593000", "112801.593000", "112801.593000", "112821.531000", "112821.546000", "112821.546000", "112821.546000", "112821.546000", "112821.546000", "112821.546000", "112821.546000", "112821.546000", "112821.562000", "112821.562000", "112821.562000", "112821.562000", "112821.562000", "112821.562000", "112821.578000", "112821.578000", "112821.578000", "112821.578000", "112821.578000", "112821.578000", "112821.578000", "112821.578000", "112821.593000", "112821.593000", "112841.531000", "112841.546000", "112841.546000", "112841.546000", "112841.546000", "112841.546000", "112841.546000", "112841.546000", "112841.562000", "112841.562000", "112841.562000", "112841.562000", "112841.562000", "112841.562000", "112841.562000", "112841.578000", "112841.578000", "112841.578000", "112841.578000", "112841.578000", "112841.578000", "112841.578000", "112841.578000", "112841.593000", "112841.593000", "112841.593000", "112901.531000", "112901.546000", "112901.546000", "112901.546000", "112901.546000", "112901.546000", "112901.546000", "112901.546000", "112901.546000", "112901.562000", "112901.562000", "112901.562000", "112901.562000", "112901.562000", "112901.562000", "112901.562000", "112901.578000", "112901.578000", "112901.578000", "112901.578000", "112901.578000", "112901.578000", "112901.593000", "112901.593000", "112901.593000", "112921.531000", "112921.546000", "112921.546000", "112921.546000", "112921.546000", "112921.546000", "112921.546000", "112921.546000", "112921.562000", "112921.562000", "112921.562000", "112921.562000", "112921.562000", "112921.562000", "112921.578000", "112921.578000", "112921.578000", "112921.578000", "112921.578000", "112921.578000", "112921.578000", "112921.578000", "112921.593000", "112921.593000", "112921.593000", "112921.593000", "112941.531000", "112941.546000", "112941.546000", "112941.546000", "112941.546000", "112941.546000", "112941.546000", "112941.546000", "112941.546000", "112941.562000", "112941.562000", "112941.562000", "112941.562000", "112941.562000", "112941.562000", "112941.562000", "112941.578000", "112941.578000", "112941.578000", "112941.578000", "112941.578000", "112941.578000", "112941.593000", "112941.593000", "112941.593000", "113001.531000", "113001.546000", "113001.546000", "113001.546000", "113001.546000", "113001.546000", "113001.546000", "113001.546000", "113001.546000", "113001.562000", "113001.562000", "113001.562000", "113001.562000", "113001.562000", "113001.562000", "113001.562000", "113001.578000", "113001.578000", "113001.578000", "113001.578000", "113001.578000", "113001.593000", "113001.593000", "113001.593000", "113001.593000", "113001.593000", "113021.531000", "113021.546000", "113021.546000", "113021.546000", "113021.546000", "113021.546000", "113021.546000", "113021.546000", "113021.546000", "113021.562000", "113021.562000", "113021.562000", "113021.562000", "113021.562000", "113021.562000", "113021.578000", "113021.578000", "113021.578000", "113021.578000", "113021.578000", "113021.578000", "113021.578000", "113021.593000", "113021.593000", "113021.593000", "113041.531000", "113041.546000", "113041.546000", "113041.546000", "113041.546000", "113041.546000", "113041.546000", "113041.546000", "113041.546000", "113041.562000", "113041.562000", "113041.562000", "113041.562000", "113041.562000", "113041.562000", "113041.562000", "113041.578000", "113041.578000", "113041.578000", "113041.578000", "113041.578000", "113041.578000", "113041.578000", "113041.578000", "113041.593000", "113041.593000", "113101.531000", "113101.546000", "113101.546000", "113101.546000", "113101.546000", "113101.546000", "113101.546000", "113101.546000", "113101.546000", "113101.562000", "113101.562000", "113101.562000", "113101.562000", "113101.562000", "113101.562000", "113101.562000", "113101.578000", "113101.578000", "113101.578000", "113101.578000", "113101.578000", "113101.578000", "113101.578000", "113101.578000", "113101.593000", "113121.531000", "113121.546000", "113121.546000", "113121.546000", "113121.546000", "113121.546000", "113121.546000", "113121.546000", "113121.562000", "113121.562000", "113121.562000", "113121.562000", "113121.562000", "113121.578000", "113121.578000", "113121.578000", "113121.578000", "113121.578000", "113121.578000", "113121.578000", "113121.593000", "113121.593000", "113121.593000", "113121.593000", "113121.593000", "113121.593000", "113141.531000", "113141.546000", "113141.546000", "113141.546000", "113141.546000", "113141.546000", "113141.546000", "113141.562000", "113141.562000", "113141.562000", "113141.562000", "113141.562000", "113141.562000", "113141.562000", "113141.578000", "113141.578000", "113141.578000", "113141.578000", "113141.578000", "113141.578000", "113141.578000", "113141.578000", "113141.593000", "113141.593000", "113141.593000", "113201.531000", "113201.546000", "113201.546000", "113201.546000", "113201.546000", "113201.546000", "113201.546000", "113201.546000", "113201.546000", "113201.562000", "113201.562000", "113201.562000", "113201.562000", "113201.562000", "113201.562000", "113201.562000", "113201.578000", "113201.578000", "113201.578000", "113201.578000", "113201.578000", "113201.578000", "113201.578000", "113201.593000", "113201.593000", "113201.593000", "113221.531000", "113221.546000", "113221.546000", "113221.546000", "113221.546000", "113221.546000", "113221.546000", "113221.546000", "113221.546000", "113221.562000", "113221.562000", "113221.562000", "113221.562000", "113221.562000", "113221.562000", "113221.562000", "113221.578000", "113221.578000", "113221.578000", "113221.578000", "113221.578000", "113221.578000", "113221.593000", "113221.593000", "113221.593000", "113231.312000", "113231.312000", "113231.328000", "113231.328000", "113231.328000", "113231.328000", "113231.328000", "113231.328000", "113231.328000", "113231.343000", "113231.343000", "113231.343000", "113231.343000"],
