{
  "AcquisitionMatrixPE": 104,
  "AcquisitionNumber": 1,
  "AcquisitionTime": "12:15:3.707500",
  "BandwidthPerPixelPhaseEncode": 13.935,
  "BaseResolution": 104,
  "CoilString": "C:HEA;HEP",
  "ConversionSoftware": "dcm2niix",
  "ConversionSoftwareVersion": "v1.0.20210317",
  "DerivedVendorReportedEchoSpacing": 0.000690017,
  "DeviceSerialNumber": "35450",
  "DwellTime": 2.5e-06,
  "EchoTime": 0.0348,
  "EffectiveEchoSpacing": 0.000690017,
  "FlipAngle": 55,
  "ImageComments": "Unaliased MB8/PE3 (remote)",
  "ImageOrientationPatientDICOM": [1, 0, 0, 0, 0.975149, -0.221548],
  "ImageType": [
    "ORIGINAL",
    "PRIMARY",
    "M",
    "MB",
    "ND",
    "MOSAIC"
],
  "ImagingFrequency": 123.234,
  "InPlanePhaseEncodingDirectionDICOM": "COL",
  "InstitutionAddress": "Univeristy Ave. 197,Newark,North East,US,07102-1814",
  "InstitutionName": "RUBIC",
  "InstitutionalDepartmentName": "Department",
  "MRAcquisitionType": "2D",
  "MagneticFieldStrength": 3,
  "Manufacturer": "Siemens",
  "ManufacturersModelName": "TrioTim",
  "Modality": "MR",
  "MultibandAccelerationFactor": 8,
  "PartialFourier": 0.875,
  "PatientPosition": "HFS",
  "PercentPhaseFOV": 100,
  "PercentSampling": 100,
  "PhaseEncodingDirection": "j-",
  "PhaseEncodingSteps": 91,
  "PhaseResolution": 1,
  "PixelBandwidth": 1923,
  "ProcedureStepDescription": "Cole^Michael",
  "ProtocolName": "cmrr_mbep2d_bold_2mm_MB8_Task_8x",
  "PulseSequenceDetails": "%CustomerSeq%\\cmrr_mbep2d_bold",
  "ReceiveCoilName": "32Ch_Head",
  "ReconMatrixPE": 104,
  "RepetitionTime": 0.785,
  "SAR": 0.127009,
  "ScanOptions": "PFP\\FS",
  "ScanningSequence": "EP",
  "SequenceName": "epfid2d1_104",
  "SequenceVariant": "SK\\SS",
  "SeriesDescription": "cmrr_mbep2d_bold_2mm_MB8_Task_8x",
  "SeriesNumber": 25,
  "ShimSetting": [2075, -364, -7263, 225, 220, -495, 72, 24],
  "SliceThickness": 2,
  "SliceTiming": [0, 0.4375, 0.0875, 0.525, 0.175, 0.6125, 0.2625, 0.7, 0.35, 0, 0.4375, 0.0875, 0.525, 0.175, 0.6125, 0.2625, 0.7, 0.35, 0, 0.4375, 0.0875, 0.525, 0.175, 0.6125, 0.2625, 0.7, 0.35, 0, 0.4375, 0.0875, 0.525, 0.175, 0.6125, 0.2625, 0.7, 0.35, 0, 0.4375, 0.0875, 0.525, 0.175, 0.6125, 0.2625, 0.7, 0.35, 0, 0.4375, 0.0875, 0.525, 0.175, 0.6125, 0.2625, 0.7, 0.35, 0, 0.4375, 0.0875, 0.525, 0.175, 0.6125, 0.2625, 0.7, 0.35, 0, 0.4375, 0.0875, 0.525, 0.175, 0.6125, 0.2625, 0.7, 0.35],
  "SoftwareVersions": "syngo MR B19",
  "SpacingBetweenSlices": 2,
  "StationName": "MRC35450",
  "TaskName": "cpro",
  "TotalReadoutTime": 0.0710717,
  "TxRefAmp": 456.615,
  "dcmmeta_affine": [
    [-2.0, 0.0, 0.0, 101.96610260009766],
    [0.0, 1.9502986669540405, -0.44309699535369873, -79.59001159667969],
    [0.0, 0.44309699535369873, 1.9502986669540405, -116.91829681396484],
    [0.0, 0.0, 0.0, 1.0]
],
  "dcmmeta_reorient_transform": [
    [0.0, -1.0, 0.0, 103.0],
    [1.0, 0.0, 0.0, 0.0],
    [0.0, 0.0, 1.0, 0.0],
    [0.0, 0.0, 0.0, 1.0]
],
  "dcmmeta_shape": [104, 104, 72, 581],
  "dcmmeta_slice_dim": 2,
  "dcmmeta_version": 0.6,
  "global": {
    "const": {
      "AcquisitionMatrix": [104, 0, 0, 104],
      "AngioFlag": "N",
      "BitsAllocated": 16,
      "BitsStored": 12,
      "Columns": 936,
      "EchoNumbers": 1,
      "EchoTime": 34.8,
      "EchoTrainLength": 1,
      "FlipAngle": 55.0,
      "HighBit": 11,
      "ImageOrientationPatient": [1.0, 0.0, 0.0, 0.0, 0.97514935362234, -0.2215485006267],
      "ImagePositionPatient": [-933.96610164642, -932.61501624295, 113.04904593961],
      "ImageType": [
        "ORIGINAL",
        "PRIMARY",
        "M",
        "MB",
        "ND",
        "MOSAIC"
],
      "ImagedNucleus": "1H",
      "ImagingFrequency": 123.234423,
      "InPlanePhaseEncodingDirection": "COL",
      "MRAcquisitionType": "2D",
      "MagneticFieldStrength": 3.0,
      "Manufacturer": "SIEMENS",
      "ManufacturerModelName": "TrioTim",
      "Modality": "MR",
      "NumberOfAverages": 1.0,
      "NumberOfPhaseEncodingSteps": 91,
      "PercentPhaseFieldOfView": 100.0,
      "PercentSampling": 100.0,
      "PerformedProcedureStepStartTime": "101946.203000",
      "PhotometricInterpretation": "MONOCHROME2",
      "PixelBandwidth": 1923.0,
      "PixelRepresentation": 0,
      "PixelSpacing": [2.0, 2.0],
      "ProtocolName": "cmrr_mbep2d_bold_2mm_MB8_Task_8x",
      "RepetitionTime": 785.0,
      "Rows": 936,
      "SAR": 0.12700902044393,
      "SamplesPerPixel": 1,
      "ScanOptions": [
        "PFP",
        "FS"
],
      "ScanningSequence": "EP",
      "SequenceName": "epfid2d1_104",
      "SequenceVariant": [
        "SK",
        "SS"
],
      "SeriesDescription": "cmrr_mbep2d_bold_2mm_MB8_Task_8x",
      "SeriesNumber": 25,
      "SeriesTime": "121541.562000",
      "SliceLocation": -96.37975443493,
      "SliceThickness": 2.0,
      "SmallestImagePixelValue": 0,
      "SoftwareVersions": "syngo MR B19",
      "SpacingBetweenSlices": 1.9999999740658,
      "SpecificCharacterSet": "ISO_IR 100",
      "StudyID": "1",
      "StudyTime": "101946.078000",
      "TransmitCoilName": "Body",
      "VariableFlipAngleFlag": "N",
      "WindowCenterWidthExplanation": "Algo1",
      "dBdt": 0.0},
    "slices": {}
  },
  "time": {
    "samples": {
      "AcquisitionNumber": [1, 2, 3, 4, 5, 6, 7, 8, 9, 10, 11, 12, 13, 14, 15, 16, 17, 18, 19, 20, 21, 22, 23, 24, 25, 26, 27, 28, 29, 30, 31, 32, 33, 34, 35, 36, 37, 38, 39, 40, 41, 42, 43, 44, 45, 46, 47, 48, 49, 50, 51, 52, 53, 54, 55, 56, 57, 58, 59, 60, 61, 62, 63, 64, 65, 66, 67, 68, 69, 70, 71, 72, 73, 74, 75, 76, 77, 78, 79, 80, 81, 82, 83, 84, 85, 86, 87, 88, 89, 90, 91, 92, 93, 94, 95, 96, 97, 98, 99, 100, 101, 102, 103, 104, 105, 106, 107, 108, 109, 110, 111, 112, 113, 114, 115, 116, 117, 118, 119, 120, 121, 122, 123, 124, 125, 126, 127, 128, 129, 130, 131, 132, 133, 134, 135, 136, 137, 138, 139, 140, 141, 142, 143, 144, 145, 146, 147, 148, 149, 150, 151, 152, 153, 154, 155, 156, 157, 158, 159, 160, 161, 162, 163, 164, 165, 166, 167, 168, 169, 170, 171, 172, 173, 174, 175, 176, 177, 178, 179, 180, 181, 182, 183, 184, 185, 186, 187, 188, 189, 190, 191, 192, 193, 194, 195, 196, 197, 198, 199, 200, 201, 202, 203, 204, 205, 206, 207, 208, 209, 210, 211, 212, 213, 214, 215, 216, 217, 218, 219, 220, 221, 222, 223, 224, 225, 226, 227, 228, 229, 230, 231, 232, 233, 234, 235, 236, 237, 238, 239, 240, 241, 242, 243, 244, 245, 246, 247, 248, 249, 250, 251, 252, 253, 254, 255, 256, 257, 258, 259, 260, 261, 262, 263, 264, 265, 266, 267, 268, 269, 270, 271, 272, 273, 274, 275, 276, 277, 278, 279, 280, 281, 282, 283, 284, 285, 286, 287, 288, 289, 290, 291, 292, 293, 294, 295, 296, 297, 298, 299, 300, 301, 302, 303, 304, 305, 306, 307, 308, 309, 310, 311, 312, 313, 314, 315, 316, 317, 318, 319, 320, 321, 322, 323, 324, 325, 326, 327, 328, 329, 330, 331, 332, 333, 334, 335, 336, 337, 338, 339, 340, 341, 342, 343, 344, 345, 346, 347, 348, 349, 350, 351, 352, 353, 354, 355, 356, 357, 358, 359, 360, 361, 362, 363, 364, 365, 366, 367, 368, 369, 370, 371, 372, 373, 374, 375, 376, 377, 378, 379, 380, 381, 382, 383, 384, 385, 386, 387, 388, 389, 390, 391, 392, 393, 394, 395, 396, 397, 398, 399, 400, 401, 402, 403, 404, 405, 406, 407, 408, 409, 410, 411, 412, 413, 414, 415, 416, 417, 418, 419, 420, 421, 422, 423, 424, 425, 426, 427, 428, 429, 430, 431, 432, 433, 434, 435, 436, 437, 438, 439, 440, 441, 442, 443, 444, 445, 446, 447, 448, 449, 450, 451, 452, 453, 454, 455, 456, 457, 458, 459, 460, 461, 462, 463, 464, 465, 466, 467, 468, 469, 470, 471, 472, 473, 474, 475, 476, 477, 478, 479, 480, 481, 482, 483, 484, 485, 486, 487, 488, 489, 490, 491, 492, 493, 494, 495, 496, 497, 498, 499, 500, 501, 502, 503, 504, 505, 506, 507, 508, 509, 510, 511, 512, 513, 514, 515, 516, 517, 518, 519, 520, 521, 522, 523, 524, 525, 526, 527, 528, 529, 530, 531, 532, 533, 534, 535, 536, 537, 538, 539, 540, 541, 542, 543, 544, 545, 546, 547, 548, 549, 550, 551, 552, 553, 554, 555, 556, 557, 558, 559, 560, 561, 562, 563, 564, 565, 566, 567, 568, 569, 570, 571, 572, 573, 574, 575, 576, 577, 578, 579, 580, 581],
      "AcquisitionTime": ["121503.707500", "121504.497500", "121505.285000", "121506.072500", "121506.860000", "121507.650000", "121508.437500", "121509.225000", "121510.012500", "121510.802500", "121511.590000", "121512.377500", "121513.165000", "121513.955000", "121514.742500", "121515.530000", "121516.317500", "121517.107500", "121517.895000", "121518.682500", "121519.470000", "121520.260000", "121521.047500", "121521.835000", "121522.625000", "121523.412500", "121524.200000", "121524.987500", "121525.777500", "121526.565000", "121527.352500", "121528.140000", "121528.930000", "121529.717500", "121530.505000", "121531.292500", "121532.082500", "121532.870000", "121533.657500", "121534.445000", "121535.235000", "121536.022500", "121536.810000", "121537.597500", "121538.387500", "121539.175000", "121539.962500", "121540.752500", "121541.540000", "121542.327500", "121543.115000", "121543.905000", "121544.692500", "121545.480000", "121546.267500", "121547.057500", "121547.845000", "121548.632500", "121549.420000", "121550.210000", "121550.997500", "121551.785000", "121552.572500", "121553.362500", "121554.150000", "121554.937500", "121555.725000", "121556.515000", "121557.302500", "121558.090000", "121558.880000", "121559.667500", "121600.455000", "121601.242500", "121602.032500", "121602.820000", "121603.607500", "121604.395000", "121605.185000", "121605.972500", "121606.760000", "121607.547500", "121608.337500", "121609.125000", "121609.912500", "121610.700000", "121611.490000", "121612.277500", "121613.065000", "121613.852500", "121614.642500", "121615.430000", "121616.217500", "121617.007500", "121617.795000", "121618.582500", "121619.370000", "121620.160000", "121620.947500", "121621.735000", "121622.522500", "121623.312500", "121624.100000", "121624.887500", "121625.675000", "121626.465000", "121627.252500", "121628.040000", "121628.827500", "121629.617500", "121630.405000", "121631.192500", "121631.980000", "121632.770000", "121633.557500", "121634.345000", "121635.135000", "121635.922500", "121636.710000", "121637.497500", "121638.287500", "121639.075000", "121639.862500", "121640.650000", "121641.440000", "121642.227500", "121643.015000", "121643.802500", "121644.592500", "121645.380000", "121646.167500", "121646.955000", "121647.745000", "121648.532500", "121649.320000", "121650.107500", "121650.897500", "121651.685000", "121652.472500", "121653.262500", "121654.050000", "121654.837500", "121655.625000", "121656.415000", "121657.202500", "121657.990000", "121658.777500", "121659.567500", "121700.355000", "121701.142500", "121701.930000", "121702.720000", "121703.507500", "121704.295000", "121705.082500", "121705.872500", "121706.660000", "121707.447500", "121708.235000", "121709.025000", "121709.812500", "121710.600000", "121711.390000", "121712.177500", "121712.965000", "121713.752500", "121714.542500", "121715.330000", "121716.117500", "121716.905000", "121717.695000", "121718.482500", "121719.270000", "121720.057500", "121720.847500", "121721.635000", "121722.422500", "121723.210000", "121724.000000", "121724.787500", "121725.575000", "121726.362500", "121727.152500", "121727.940000", "121728.727500", "121729.517500", "121730.305000", "121731.092500", "121731.880000", "121732.670000", "121733.457500", "121734.245000", "121735.032500", "121735.822500", "121736.610000", "121737.397500", "121738.185000", "121738.975000", "121739.762500", "121740.550000", "121741.337500", "121742.127500", "121742.915000", "121743.702500", "121744.490000", "121745.280000", "121746.067500", "121746.855000", "121747.645000", "121748.432500", "121749.220000", "121750.007500", "121750.797500", "121751.585000", "121752.372500", "121753.160000", "121753.950000", "121754.737500", "121755.525000", "121756.312500", "121757.102500", "121757.890000", "121758.677500", "121759.465000", "121800.255000", "121801.042500", "121801.830000", "121802.617500", "121803.407500", "121804.195000", "121804.982500", "121805.772500", "121806.560000", "121807.347500", "121808.135000", "121808.925000", "121809.712500", "121810.500000", "121811.287500", "121812.077500", "121812.865000", "121813.652500", "121814.440000", "121815.230000", "121816.017500", "121816.805000", "121817.592500", "121818.382500", "121819.170000", "121819.957500", "121820.747500", "121821.535000", "121822.322500", "121823.110000", "121823.900000", "121824.687500", "121825.475000", "121826.262500", "121827.052500", "121827.840000", "121828.627500", "121829.415000", "121830.205000", "121830.992500", "121831.780000", "121832.567500", "121833.357500", "121834.145000", "121834.932500", "121835.720000", "121836.510000", "121837.297500", "121838.085000", "121838.875000", "121839.662500", "121840.450000", "121841.237500", "121842.027500", "121842.815000", "121843.602500", "121844.390000", "121845.180000", "121845.967500", "121846.755000", "121847.542500", "121848.332500", "121849.120000", "121849.907500", "121850.695000", "121851.485000", "121852.272500", "121853.060000", "121853.847500", "121854.637500", "121855.425000", "121856.212500", "121857.002500", "121857.790000", "121858.577500", "121859.365000", "121900.155000", "121900.942500", "121901.730000", "121902.517500", "121903.307500", "121904.095000", "121904.882500", "121905.670000", "121906.460000", "121907.247500", "121908.035000", "121908.822500", "121909.612500", "121910.400000", "121911.187500", "121911.975000", "121912.765000", "121913.552500", "121914.340000", "121915.130000", "121915.917500", "121916.705000", "121917.492500", "121918.282500", "121919.070000", "121919.857500", "121920.645000", "121921.435000", "121922.222500", "121923.010000", "121923.797500", "121924.587500", "121925.375000", "121926.162500", "121926.950000", "121927.740000", "121928.527500", "121929.315000", "121930.102500", "121930.892500", "121931.680000", "121932.467500", "121933.257500", "121934.045000", "121934.832500", "121935.620000", "121936.410000", "121937.197500", "121937.985000", "121938.772500", "121939.562500", "121940.350000", "121941.137500", "121941.925000", "121942.715000", "121943.502500", "121944.290000", "121945.077500", "121945.867500", "121946.655000", "121947.442500", "121948.230000", "121949.020000", "121949.807500", "121950.595000", "121951.385000", "121952.172500", "121952.960000", "121953.747500", "121954.537500", "121955.325000", "121956.112500", "121956.900000", "121957.690000", "121958.477500", "121959.265000", "122000.052500", "122000.842500", "122001.630000", "122002.417500", "122003.205000", "122003.995000", "122004.782500", "122005.570000", "122006.357500", "122007.147500", "122007.935000", "122008.722500", "122009.512500", "122010.300000", "122011.087500", "122011.875000", "122012.665000", "122013.452500", "122014.240000", "122015.027500", "122015.817500", "122016.605000", "122017.392500", "122018.180000", "122018.970000", "122019.757500", "122020.545000", "122021.332500", "122022.122500", "122022.910000", "122023.697500", "122024.485000", "122025.275000", "122026.062500", "122026.850000", "122027.640000", "122028.427500", "122029.215000", "122030.002500", "122030.792500", "122031.580000", "122032.367500", "122033.155000", "122033.945000", "122034.732500", "122035.520000", "122036.307500", "122037.097500", "122037.885000", "122038.672500", "122039.460000", "122040.250000", "122041.037500", "122041.825000", "122042.612500", "122043.402500", "122044.190000", "122044.977500", "122045.767500", "122046.555000", "122047.342500", "122048.130000", "122048.920000", "122049.707500", "122050.495000", "122051.282500", "122052.072500", "122052.860000", "122053.647500", "122054.435000", "122055.225000", "122056.012500", "122056.800000", "122057.587500", "122058.377500", "122059.165000", "122059.952500", "122100.740000", "122101.530000", "122102.317500", "122103.105000", "122103.895000", "122104.682500", "122105.470000", "122106.257500", "122107.047500", "122107.835000", "122108.622500", "122109.410000", "122110.200000", "122110.987500", "122111.775000", "122112.562500", "122113.352500", "122114.140000", "122114.927500", "122115.715000", "122116.505000", "122117.292500", "122118.080000", "122118.867500", "122119.657500", "122120.445000", "122121.232500", "122122.022500", "122122.810000", "122123.597500", "122124.385000", "122125.175000", "122125.962500", "122126.750000", "122127.537500", "122128.327500", "122129.115000", "122129.902500", "122130.690000", "122131.480000", "122132.267500", "122133.055000", "122133.842500", "122134.632500", "122135.420000", "122136.207500", "122136.997500", "122137.785000", "122138.572500", "122139.360000", "122140.150000", "122140.937500", "122141.725000", "122142.512500", "122143.302500", "122144.090000", "122144.877500", "122145.665000", "122146.455000", "122147.242500", "122148.030000", "122148.817500", "122149.607500", "122150.395000", "122151.182500", "122151.970000", "122152.760000", "122153.547500", "122154.335000", "122155.125000", "122155.912500", "122156.700000", "122157.487500", "122158.277500", "122159.065000", "122159.852500", "122200.640000", "122201.430000", "122202.217500", "122203.005000", "122203.792500", "122204.582500", "122205.370000", "122206.157500", "122206.945000", "122207.735000", "122208.522500", "122209.310000", "122210.097500", "122210.887500", "122211.675000", "122212.462500", "122213.252500", "122214.040000", "122214.827500", "122215.615000", "122216.405000", "122217.192500", "122217.980000", "122218.767500", "122219.557500", "122220.345000", "122221.132500", "122221.920000", "122222.710000", "122223.497500", "122224.285000", "122225.072500", "122225.862500", "122226.650000", "122227.437500", "122228.225000", "122229.015000", "122229.802500", "122230.590000", "122231.380000", "122232.167500", "122232.955000", "122233.742500", "122234.532500", "122235.320000", "122236.107500", "122236.895000", "122237.685000", "122238.472500", "122239.260000", "122240.047500", "122240.837500"],
      "ContentTime": ["121541.562000", "121541.562000", "121541.562000", "121541.562000", "121541.578000", "121541.578000", "121541.578000", "121541.578000", "121541.578000", "121541.578000", "121541.578000", "121541.578000", "121541.593000", "121541.593000", "121541.593000", "121541.593000", "121541.593000", "121541.593000", "121541.593000", "121541.609000", "121541.609000", "121541.609000", "121541.609000", "121541.609000", "121541.609000", "121541.625000", "121541.625000", "121541.625000", "121541.625000", "121541.625000", "121541.625000", "121541.625000", "121541.640000", "121541.640000", "121541.640000", "121541.640000", "121541.640000", "121541.640000", "121541.640000", "121541.640000", "121541.656000", "121541.656000", "121541.656000", "121541.656000", "121541.656000", "121601.531000", "121601.546000", "121601.546000", "121601.546000", "121601.546000", "121601.546000", "121601.546000", "121601.546000", "121601.546000", "121601.562000", "121601.562000", "121601.562000", "121601.562000", "121601.562000", "121601.562000", "121601.562000", "121601.578000", "121601.578000", "121601.578000", "121601.578000", "121601.578000", "121601.578000", "121601.593000", "121601.593000", "121601.593000", "121621.531000", "121621.546000", "121621.546000", "121621.546000", "121621.546000", "121621.546000", "121621.546000", "121621.546000", "121621.546000", "121621.562000", "121621.562000", "121621.562000", "121621.562000", "121621.562000", "121621.562000", "121621.562000", "121621.562000", "121621.578000", "121621.578000", "121621.578000", "121621.578000", "121621.578000", "121621.578000", "121621.578000", "121621.593000", "121621.593000", "121641.531000", "121641.546000", "121641.546000", "121641.546000", "121641.546000", "121641.546000", "121641.546000", "121641.546000", "121641.546000", "121641.562000", "121641.562000", "121641.562000", "121641.562000", "121641.562000", "121641.562000", "121641.578000", "121641.578000", "121641.578000", "121641.578000", "121641.578000", "121641.578000", "121641.593000", "121641.593000", "121641.593000", "121641.593000", "121701.531000", "121701.546000", "121701.546000", "121701.546000", "121701.546000", "121701.546000", "121701.546000", "121701.546000", "121701.546000", "121701.562000", "121701.562000", "121701.562000", "121701.562000", "121701.562000", "121701.562000", "121701.562000", "121701.578000", "121701.578000", "121701.578000", "121701.578000", "121701.578000", "121701.578000", "121701.578000", "121701.578000", "121701.593000", "121701.593000", "121721.531000", "121721.546000", "121721.546000", "121721.546000", "121721.546000", "121721.546000", "121721.546000", "121721.546000", "121721.546000", "121721.562000", "121721.562000", "121721.562000", "121721.562000", "121721.562000", "121721.562000", "121721.562000", "121721.562000", "121721.578000", "121721.578000", "121721.578000", "121721.578000", "121721.578000", "121721.578000", "121721.578000", "121721.593000", "121741.531000", "121741.546000", "121741.546000", "121741.546000", "121741.546000", "121741.546000", "121741.546000", "121741.546000", "121741.546000", "121741.562000", "121741.562000", "121741.562000", "121741.562000", "121741.562000", "121741.562000", "121741.562000", "121741.578000", "121741.578000", "121741.578000", "121741.578000", "121741.578000", "121741.578000", "121741.578000", "121741.578000", "121741.593000", "121741.593000", "121801.531000", "121801.546000", "121801.546000", "121801.546000", "121801.546000", "121801.546000", "121801.546000", "121801.546000", "121801.546000", "121801.562000", "121801.562000", "121801.562000", "121801.562000", "121801.562000", "121801.562000", "121801.562000", "121801.578000", "121801.578000", "121801.578000", "121801.578000", "121801.578000", "121801.578000", "121801.578000", "121801.578000", "121801.593000", "121821.531000", "121821.546000", "121821.546000", "121821.546000", "121821.546000", "121821.546000", "121821.546000", "121821.546000", "121821.546000", "121821.562000", "121821.562000", "121821.562000", "121821.562000", "121821.562000", "121821.562000", "121821.562000", "121821.578000", "121821.578000", "121821.578000", "121821.578000", "121821.578000", "121821.578000", "121821.578000", "121821.578000", "121821.593000", "121821.593000", "121841.531000", "121841.546000", "121841.546000", "121841.546000", "121841.546000", "121841.546000", "121841.546000", "121841.546000", "121841.546000", "121841.562000", "121841.562000", "121841.562000", "121841.562000", "121841.562000", "121841.562000", "121841.562000", "121841.578000", "121841.578000", "121841.578000", "121841.578000", "121841.578000", "121841.578000", "121841.578000", "121841.578000", "121841.593000", "121901.531000", "121901.546000", "121901.546000", "121901.546000", "121901.546000", "121901.546000", "121901.546000", "121901.546000", "121901.546000", "121901.562000", "121901.562000", "121901.562000", "121901.562000", "121901.562000", "121901.562000", "121901.562000", "121901.562000", "121901.578000", "121901.578000", "121901.578000", "121901.578000", "121901.578000", "121901.578000", "121901.578000", "121901.593000", "121901.593000", "121921.531000", "121921.546000", "121921.546000", "121921.546000", "121921.546000", "121921.546000", "121921.546000", "121921.562000", "121921.562000", "121921.562000", "121921.562000", "121921.562000", "121921.562000", "121921.562000", "121921.578000", "121921.578000", "121921.578000", "121921.578000", "121921.578000", "121921.593000", "121921.593000", "121921.593000", "121921.593000", "121921.593000", "121921.609000", "121941.531000", "121941.546000", "121941.546000", "121941.546000", "121941.546000", "121941.546000", "121941.546000", "121941.546000", "121941.546000", "121941.562000", "121941.562000", "121941.562000", "121941.562000", "121941.562000", "121941.562000", "121941.562000", "121941.578000", "121941.578000", "121941.578000", "121941.578000", "121941.578000", "121941.578000", "121941.578000", "121941.578000", "121941.593000", "121941.593000", "122001.531000", "122001.546000", "122001.546000", "122001.546000", "122001.546000", "122001.546000", "122001.546000", "122001.546000", "122001.546000", "122001.562000", "122001.562000", "122001.562000", "122001.562000", "122001.562000", "122001.562000", "122001.562000", "122001.562000", "122001.578000", "122001.578000", "122001.578000", "122001.578000", "122001.578000", "122001.578000", "122001.578000", "122001.593000", "122021.531000", "122021.546000", "122021.546000", "122021.546000", "122021.546000", "122021.546000", "122021.546000", "122021.546000", "122021.562000", "122021.562000", "122021.562000", "122021.562000", "122021.562000", "122021.562000", "122021.578000", "122021.578000", "122021.578000", "122021.578000", "122021.578000", "122021.578000", "122021.593000", "122021.593000", "122021.593000", "122021.593000", "122021.593000", "122021.593000", "122041.531000", "122041.546000", "122041.546000", "122041.546000", "122041.546000", "122041.546000", "122041.546000", "122041.546000", "122041.546000", "122041.562000", "122041.562000", "122041.562000", "122041.562000", "122041.562000", "122041.562000", "122041.578000", "122041.578000", "122041.578000", "122041.578000", "122041.578000", "122041.578000", "122041.578000", "122041.593000", "122041.593000", "122041.593000", "122101.531000", "122101.546000", "122101.546000", "122101.546000", "122101.546000", "122101.546000", "122101.546000", "122101.546000", "122101.546000", "122101.562000", "122101.562000", "122101.562000", "122101.562000", "122101.562000", "122101.562000", "122101.562000", "122101.578000", "122101.578000", "122101.578000", "122101.578000", "122101.578000", "122101.578000", "122101.578000", "122101.593000", "122101.593000", "122101.593000", "122121.531000", "122121.546000", "122121.546000", "122121.546000", "122121.546000", "122121.546000", "122121.546000", "122121.546000", "122121.546000", "122121.562000", "122121.562000", "122121.562000", "122121.562000", "122121.562000", "122121.562000", "122121.562000", "122121.578000", "122121.578000", "122121.578000", "122121.578000", "122121.578000", "122121.578000", "122121.593000", "122121.593000", "122121.593000", "122141.531000", "122141.546000", "122141.546000", "122141.546000", "122141.546000", "122141.546000", "122141.546000", "122141.546000", "122141.546000", "122141.562000", "122141.562000", "122141.562000", "122141.562000", "122141.562000", "122141.578000", "122141.578000", "122141.578000", "122141.578000", "122141.578000", "122141.578000", "122141.578000", "122141.593000", "122141.593000", "122141.593000", "122141.593000", "122141.593000", "122201.531000", "122201.546000", "122201.546000", "122201.546000", "122201.546000", "122201.562000", "122201.562000", "122201.562000", "122201.562000", "122201.562000", "122201.562000", "122201.578000", "122201.578000", "122201.578000", "122201.578000", "122201.578000", "122201.578000", "122201.578000", "122201.593000", "122201.593000", "122201.593000", "122201.593000", "122201.593000", "122201.593000", "122201.593000", "122221.531000", "122221.546000", "122221.546000", "122221.546000", "122221.546000", "122221.546000", "122221.546000", "122221.546000", "122221.546000", "122221.562000", "122221.562000", "122221.562000", "122221.562000", "122221.562000", "122221.562000", "122221.562000", "122221.578000", "122221.578000", "122221.578000", "122221.578000", "122221.593000", "122221.593000", "122221.593000", "122221.593000", "122221.593000", "122241.531000", "122241.546000", "122241.546000", "122241.546000", "122241.546000", "122241.546000", "122241.546000", "122241.546000", "122241.546000", "122241.562000", "122241.562000", "122241.562000", "122241.562000", "122241.562000", "122241.562000", "122241.562000", "122241.578000", "122241.578000", "122241.578000", "122241.578000", "122241.578000", "122241.578000", "122241.578000", "122241.593000", "122241.593000", "122241.593000", "122242.046000"],
