{
  "AcquisitionMatrixPE": 104,
  "AcquisitionNumber": 1,
  "AcquisitionTime": "12:06:34.710000",
  "BandwidthPerPixelPhaseEncode": 13.935,
  "BaseResolution": 104,
  "CoilString": "C:HEA;HEP",
  "ConversionSoftware": "dcm2niix",
  "ConversionSoftwareVersion": "v1.0.20210317",
  "DerivedVendorReportedEchoSpacing": 0.000690017,
  "DeviceSerialNumber": "35450",
  "DwellTime": 2.5e-06,
  "EchoTime": 0.0348,
  "EffectiveEchoSpacing": 0.000690017,
  "FlipAngle": 55,
  "ImageComments": "Unaliased MB8/PE3 (remote)",
  "ImageOrientationPatientDICOM": [1, 0, 0, 0, 0.975149, -0.221548],
  "ImageType": [
    "ORIGINAL",
    "PRIMARY",
    "M",
    "MB",
    "ND",
    "MOSAIC"
],
  "ImagingFrequency": 123.234,
  "InPlanePhaseEncodingDirectionDICOM": "COL",
  "InstitutionAddress": "Univeristy Ave. 197,Newark,North East,US,07102-1814",
  "InstitutionName": "RUBIC",
  "InstitutionalDepartmentName": "Department",
  "MRAcquisitionType": "2D",
  "MagneticFieldStrength": 3,
  "Manufacturer": "Siemens",
  "ManufacturersModelName": "TrioTim",
  "Modality": "MR",
  "MultibandAccelerationFactor": 8,
  "PartialFourier": 0.875,
  "PatientPosition": "HFS",
  "PercentPhaseFOV": 100,
  "PercentSampling": 100,
  "PhaseEncodingDirection": "j-",
  "PhaseEncodingSteps": 91,
  "PhaseResolution": 1,
  "PixelBandwidth": 1923,
  "ProcedureStepDescription": "Cole^Michael",
  "ProtocolName": "cmrr_mbep2d_bold_2mm_MB8_Task_8x",
  "PulseSequenceDetails": "%CustomerSeq%\\cmrr_mbep2d_bold",
  "ReceiveCoilName": "32Ch_Head",
  "ReconMatrixPE": 104,
  "RepetitionTime": 0.785,
  "SAR": 0.127009,
  "ScanOptions": "PFP\\FS",
  "ScanningSequence": "EP",
  "SequenceName": "epfid2d1_104",
  "SequenceVariant": "SK\\SS",
  "SeriesDescription": "cmrr_mbep2d_bold_2mm_MB8_Task_8x",
  "SeriesNumber": 23,
  "ShimSetting": [2075, -364, -7263, 225, 220, -495, 72, 24],
  "SliceThickness": 2,
  "SliceTiming": [0, 0.4375, 0.0875, 0.525, 0.175, 0.6125, 0.2625, 0.7, 0.35, 0, 0.4375, 0.0875, 0.525, 0.175, 0.6125, 0.2625, 0.7, 0.35, 0, 0.4375, 0.0875, 0.525, 0.175, 0.6125, 0.2625, 0.7, 0.35, 0, 0.4375, 0.0875, 0.525, 0.175, 0.6125, 0.2625, 0.7, 0.35, 0, 0.4375, 0.0875, 0.525, 0.175, 0.6125, 0.2625, 0.7, 0.35, 0, 0.4375, 0.0875, 0.525, 0.175, 0.6125, 0.2625, 0.7, 0.35, 0, 0.4375, 0.0875, 0.525, 0.175, 0.6125, 0.2625, 0.7, 0.35, 0, 0.4375, 0.0875, 0.525, 0.175, 0.6125, 0.2625, 0.7, 0.35],
  "SoftwareVersions": "syngo MR B19",
  "SpacingBetweenSlices": 2,
  "StationName": "MRC35450",
  "TaskName": "cpro",
  "TotalReadoutTime": 0.0710717,
  "TxRefAmp": 456.615,
  "dcmmeta_affine": [
    [-2.0, 0.0, 0.0, 101.96610260009766],
    [0.0, 1.9502986669540405, -0.44309699535369873, -79.59001159667969],
    [0.0, 0.44309699535369873, 1.9502986669540405, -116.91829681396484],
    [0.0, 0.0, 0.0, 1.0]
],
  "dcmmeta_reorient_transform": [
    [0.0, -1.0, 0.0, 103.0],
    [1.0, 0.0, 0.0, 0.0],
    [0.0, 0.0, 1.0, 0.0],
    [0.0, 0.0, 0.0, 1.0]
],
  "dcmmeta_shape": [104, 104, 72, 581],
  "dcmmeta_slice_dim": 2,
  "dcmmeta_version": 0.6,
  "global": {
    "const": {
      "AcquisitionMatrix": [104, 0, 0, 104],
      "AngioFlag": "N",
      "BitsAllocated": 16,
      "BitsStored": 12,
      "Columns": 936,
      "EchoNumbers": 1,
      "EchoTime": 34.8,
      "EchoTrainLength": 1,
      "FlipAngle": 55.0,
      "HighBit": 11,
      "ImageOrientationPatient": [1.0, 0.0, 0.0, 0.0, 0.97514935362234, -0.2215485006267],
      "ImagePositionPatient": [-933.96610164642, -932.61501624295, 113.04904593961],
      "ImageType": [
        "ORIGINAL",
        "PRIMARY",
        "M",
        "MB",
        "ND",
        "MOSAIC"
],
      "ImagedNucleus": "1H",
      "ImagingFrequency": 123.234423,
      "InPlanePhaseEncodingDirection": "COL",
      "MRAcquisitionType": "2D",
      "MagneticFieldStrength": 3.0,
      "Manufacturer": "SIEMENS",
      "ManufacturerModelName": "TrioTim",
      "Modality": "MR",
      "NumberOfAverages": 1.0,
      "NumberOfPhaseEncodingSteps": 91,
      "PercentPhaseFieldOfView": 100.0,
      "PercentSampling": 100.0,
      "PerformedProcedureStepStartTime": "101946.203000",
      "PhotometricInterpretation": "MONOCHROME2",
      "PixelBandwidth": 1923.0,
      "PixelRepresentation": 0,
      "PixelSpacing": [2.0, 2.0],
      "ProtocolName": "cmrr_mbep2d_bold_2mm_MB8_Task_8x",
      "RepetitionTime": 785.0,
      "Rows": 936,
      "SAR": 0.12700902044393,
      "SamplesPerPixel": 1,
      "ScanOptions": [
        "PFP",
        "FS"
],
      "ScanningSequence": "EP",
      "SequenceName": "epfid2d1_104",
      "SequenceVariant": [
        "SK",
        "SS"
],
      "SeriesDescription": "cmrr_mbep2d_bold_2mm_MB8_Task_8x",
      "SeriesNumber": 23,
      "SeriesTime": "120653.609000",
      "SliceLocation": -96.37975443493,
      "SliceThickness": 2.0,
      "SmallestImagePixelValue": 0,
      "SoftwareVersions": "syngo MR B19",
      "SpacingBetweenSlices": 1.9999999740658,
      "SpecificCharacterSet": "ISO_IR 100",
      "StudyID": "1",
      "StudyTime": "101946.078000",
      "TransmitCoilName": "Body",
      "VariableFlipAngleFlag": "N",
      "WindowCenterWidthExplanation": "Algo1",
      "dBdt": 0.0},
    "slices": {}
  },
  "time": {
    "samples": {
      "AcquisitionNumber": [1, 2, 3, 4, 5, 6, 7, 8, 9, 10, 11, 12, 13, 14, 15, 16, 17, 18, 19, 20, 21, 22, 23, 24, 25, 26, 27, 28, 29, 30, 31, 32, 33, 34, 35, 36, 37, 38, 39, 40, 41, 42, 43, 44, 45, 46, 47, 48, 49, 50, 51, 52, 53, 54, 55, 56, 57, 58, 59, 60, 61, 62, 63, 64, 65, 66, 67, 68, 69, 70, 71, 72, 73, 74, 75, 76, 77, 78, 79, 80, 81, 82, 83, 84, 85, 86, 87, 88, 89, 90, 91, 92, 93, 94, 95, 96, 97, 98, 99, 100, 101, 102, 103, 104, 105, 106, 107, 108, 109, 110, 111, 112, 113, 114, 115, 116, 117, 118, 119, 120, 121, 122, 123, 124, 125, 126, 127, 128, 129, 130, 131, 132, 133, 134, 135, 136, 137, 138, 139, 140, 141, 142, 143, 144, 145, 146, 147, 148, 149, 150, 151, 152, 153, 154, 155, 156, 157, 158, 159, 160, 161, 162, 163, 164, 165, 166, 167, 168, 169, 170, 171, 172, 173, 174, 175, 176, 177, 178, 179, 180, 181, 182, 183, 184, 185, 186, 187, 188, 189, 190, 191, 192, 193, 194, 195, 196, 197, 198, 199, 200, 201, 202, 203, 204, 205, 206, 207, 208, 209, 210, 211, 212, 213, 214, 215, 216, 217, 218, 219, 220, 221, 222, 223, 224, 225, 226, 227, 228, 229, 230, 231, 232, 233, 234, 235, 236, 237, 238, 239, 240, 241, 242, 243, 244, 245, 246, 247, 248, 249, 250, 251, 252, 253, 254, 255, 256, 257, 258, 259, 260, 261, 262, 263, 264, 265, 266, 267, 268, 269, 270, 271, 272, 273, 274, 275, 276, 277, 278, 279, 280, 281, 282, 283, 284, 285, 286, 287, 288, 289, 290, 291, 292, 293, 294, 295, 296, 297, 298, 299, 300, 301, 302, 303, 304, 305, 306, 307, 308, 309, 310, 311, 312, 313, 314, 315, 316, 317, 318, 319, 320, 321, 322, 323, 324, 325, 326, 327, 328, 329, 330, 331, 332, 333, 334, 335, 336, 337, 338, 339, 340, 341, 342, 343, 344, 345, 346, 347, 348, 349, 350, 351, 352, 353, 354, 355, 356, 357, 358, 359, 360, 361, 362, 363, 364, 365, 366, 367, 368, 369, 370, 371, 372, 373, 374, 375, 376, 377, 378, 379, 380, 381, 382, 383, 384, 385, 386, 387, 388, 389, 390, 391, 392, 393, 394, 395, 396, 397, 398, 399, 400, 401, 402, 403, 404, 405, 406, 407, 408, 409, 410, 411, 412, 413, 414, 415, 416, 417, 418, 419, 420, 421, 422, 423, 424, 425, 426, 427, 428, 429, 430, 431, 432, 433, 434, 435, 436, 437, 438, 439, 440, 441, 442, 443, 444, 445, 446, 447, 448, 449, 450, 451, 452, 453, 454, 455, 456, 457, 458, 459, 460, 461, 462, 463, 464, 465, 466, 467, 468, 469, 470, 471, 472, 473, 474, 475, 476, 477, 478, 479, 480, 481, 482, 483, 484, 485, 486, 487, 488, 489, 490, 491, 492, 493, 494, 495, 496, 497, 498, 499, 500, 501, 502, 503, 504, 505, 506, 507, 508, 509, 510, 511, 512, 513, 514, 515, 516, 517, 518, 519, 520, 521, 522, 523, 524, 525, 526, 527, 528, 529, 530, 531, 532, 533, 534, 535, 536, 537, 538, 539, 540, 541, 542, 543, 544, 545, 546, 547, 548, 549, 550, 551, 552, 553, 554, 555, 556, 557, 558, 559, 560, 561, 562, 563, 564, 565, 566, 567, 568, 569, 570, 571, 572, 573, 574, 575, 576, 577, 578, 579, 580, 581],
      "AcquisitionTime": ["120634.710000", "120635.497500", "120636.285000", "120637.072500", "120637.862500", "120638.650000", "120639.437500", "120640.225000", "120641.015000", "120641.802500", "120642.590000", "120643.377500", "120644.167500", "120644.955000", "120645.742500", "120646.530000", "120647.320000", "120648.107500", "120648.895000", "120649.685000", "120650.472500", "120651.260000", "120652.047500", "120652.837500", "120653.625000", "120654.412500", "120655.200000", "120655.990000", "120656.777500", "120657.565000", "120658.352500", "120659.142500", "120659.930000", "120700.717500", "120701.505000", "120702.295000", "120703.082500", "120703.870000", "120704.657500", "120705.447500", "120706.235000", "120707.022500", "120707.812500", "120708.600000", "120709.387500", "120710.175000", "120710.965000", "120711.752500", "120712.540000", "120713.327500", "120714.117500", "120714.905000", "120715.692500", "120716.480000", "120717.270000", "120718.057500", "120718.845000", "120719.632500", "120720.422500", "120721.210000", "120721.997500", "120722.785000", "120723.575000", "120724.362500", "120725.150000", "120725.940000", "120726.727500", "120727.515000", "120728.302500", "120729.092500", "120729.880000", "120730.667500", "120731.455000", "120732.245000", "120733.032500", "120733.820000", "120734.607500", "120735.397500", "120736.185000", "120736.972500", "120737.760000", "120738.550000", "120739.337500", "120740.125000", "120740.912500", "120741.702500", "120742.490000", "120743.277500", "120744.067500", "120744.855000", "120745.642500", "120746.430000", "120747.220000", "120748.007500", "120748.795000", "120749.582500", "120750.372500", "120751.160000", "120751.947500", "120752.735000", "120753.525000", "120754.312500", "120755.100000", "120755.887500", "120756.677500", "120757.465000", "120758.252500", "120759.040000", "120759.830000", "120800.617500", "120801.405000", "120802.195000", "120802.982500", "120803.770000", "120804.557500", "120805.347500", "120806.135000", "120806.922500", "120807.710000", "120808.500000", "120809.287500", "120810.075000", "120810.862500", "120811.652500", "120812.440000", "120813.227500", "120814.015000", "120814.805000", "120815.592500", "120816.380000", "120817.167500", "120817.957500", "120818.745000", "120819.532500", "120820.322500", "120821.110000", "120821.897500", "120822.685000", "120823.475000", "120824.262500", "120825.050000", "120825.837500", "120826.627500", "120827.415000", "120828.202500", "120828.990000", "120829.780000", "120830.567500", "120831.355000", "120832.142500", "120832.932500", "120833.720000", "120834.507500", "120835.295000", "120836.085000", "120836.872500", "120837.660000", "120838.450000", "120839.237500", "120840.025000", "120840.812500", "120841.602500", "120842.390000", "120843.177500", "120843.965000", "120844.755000", "120845.542500", "120846.330000", "120847.117500", "120847.907500", "120848.695000", "120849.482500", "120850.270000", "120851.060000", "120851.847500", "120852.635000", "120853.422500", "120854.212500", "120855.000000", "120855.787500", "120856.577500", "120857.365000", "120858.152500", "120858.940000", "120859.730000", "120900.517500", "120901.305000", "120902.092500", "120902.882500", "120903.670000", "120904.457500", "120905.245000", "120906.035000", "120906.822500", "120907.610000", "120908.397500", "120909.187500", "120909.975000", "120910.762500", "120911.550000", "120912.340000", "120913.127500", "120913.915000", "120914.705000", "120915.492500", "120916.280000", "120917.067500", "120917.857500", "120918.645000", "120919.432500", "120920.220000", "120921.010000", "120921.797500", "120922.585000", "120923.372500", "120924.162500", "120924.950000", "120925.737500", "120926.525000", "120927.315000", "120928.102500", "120928.890000", "120929.677500", "120930.467500", "120931.255000", "120932.042500", "120932.832500", "120933.620000", "120934.407500", "120935.195000", "120935.985000", "120936.772500", "120937.560000", "120938.347500", "120939.137500", "120939.925000", "120940.712500", "120941.500000", "120942.290000", "120943.077500", "120943.865000", "120944.652500", "120945.442500", "120946.230000", "120947.017500", "120947.805000", "120948.595000", "120949.382500", "120950.170000", "120950.960000", "120951.747500", "120952.535000", "120953.322500", "120954.112500", "120954.900000", "120955.687500", "120956.475000", "120957.265000", "120958.052500", "120958.840000", "120959.627500", "121000.417500", "121001.205000", "121001.992500", "121002.780000", "121003.570000", "121004.357500", "121005.145000", "121005.935000", "121006.722500", "121007.510000", "121008.297500", "121009.087500", "121009.875000", "121010.662500", "121011.450000", "121012.240000", "121013.027500", "121013.815000", "121014.602500", "121015.392500", "121016.180000", "121016.967500", "121017.755000", "121018.545000", "121019.332500", "121020.120000", "121020.907500", "121021.697500", "121022.485000", "121023.272500", "121024.062500", "121024.850000", "121025.637500", "121026.425000", "121027.215000", "121028.002500", "121028.790000", "121029.577500", "121030.367500", "121031.155000", "121031.942500", "121032.730000", "121033.520000", "121034.307500", "121035.095000", "121035.882500", "121036.672500", "121037.460000", "121038.247500", "121039.035000", "121039.825000", "121040.612500", "121041.400000", "121042.190000", "121042.977500", "121043.765000", "121044.552500", "121045.342500", "121046.130000", "121046.917500", "121047.705000", "121048.495000", "121049.282500", "121050.070000", "121050.857500", "121051.647500", "121052.435000", "121053.222500", "121054.010000", "121054.800000", "121055.587500", "121056.375000", "121057.162500", "121057.952500", "121058.740000", "121059.527500", "121100.317500", "121101.105000", "121101.892500", "121102.680000", "121103.470000", "121104.257500", "121105.045000", "121105.832500", "121106.622500", "121107.410000", "121108.197500", "121108.985000", "121109.775000", "121110.562500", "121111.350000", "121112.137500", "121112.927500", "121113.715000", "121114.502500", "121115.290000", "121116.080000", "121116.867500", "121117.655000", "121118.445000", "121119.232500", "121120.020000", "121120.807500", "121121.597500", "121122.385000", "121123.172500", "121123.960000", "121124.750000", "121125.537500", "121126.325000", "121127.112500", "121127.902500", "121128.690000", "121129.477500", "121130.265000", "121131.055000", "121131.842500", "121132.630000", "121133.417500", "121134.207500", "121134.995000", "121135.782500", "121136.572500", "121137.360000", "121138.147500", "121138.935000", "121139.725000", "121140.512500", "121141.300000", "121142.087500", "121142.877500", "121143.665000", "121144.452500", "121145.240000", "121146.030000", "121146.817500", "121147.605000", "121148.392500", "121149.182500", "121149.970000", "121150.757500", "121151.545000", "121152.335000", "121153.122500", "121153.910000", "121154.700000", "121155.487500", "121156.275000", "121157.062500", "121157.852500", "121158.640000", "121159.427500", "121200.215000", "121201.005000", "121201.792500", "121202.580000", "121203.367500", "121204.157500", "121204.945000", "121205.732500", "121206.520000", "121207.310000", "121208.097500", "121208.885000", "121209.672500", "121210.462500", "121211.250000", "121212.037500", "121212.827500", "121213.615000", "121214.402500", "121215.190000", "121215.980000", "121216.767500", "121217.555000", "121218.342500", "121219.132500", "121219.920000", "121220.707500", "121221.495000", "121222.285000", "121223.072500", "121223.860000", "121224.647500", "121225.437500", "121226.225000", "121227.012500", "121227.800000", "121228.590000", "121229.377500", "121230.165000", "121230.955000", "121231.742500", "121232.530000", "121233.317500", "121234.107500", "121234.895000", "121235.682500", "121236.470000", "121237.260000", "121238.047500", "121238.835000", "121239.622500", "121240.412500", "121241.200000", "121241.987500", "121242.775000", "121243.565000", "121244.352500", "121245.140000", "121245.927500", "121246.717500", "121247.505000", "121248.292500", "121249.082500", "121249.870000", "121250.657500", "121251.445000", "121252.235000", "121253.022500", "121253.810000", "121254.597500", "121255.387500", "121256.175000", "121256.962500", "121257.750000", "121258.540000", "121259.327500", "121300.115000", "121300.902500", "121301.692500", "121302.480000", "121303.267500", "121304.055000", "121304.845000", "121305.632500", "121306.420000", "121307.210000", "121307.997500", "121308.785000", "121309.572500", "121310.362500", "121311.150000", "121311.937500", "121312.725000", "121313.515000", "121314.302500", "121315.090000", "121315.877500", "121316.667500", "121317.455000", "121318.242500", "121319.030000", "121319.820000", "121320.607500", "121321.395000", "121322.185000", "121322.972500", "121323.760000", "121324.547500", "121325.337500", "121326.125000", "121326.912500", "121327.700000", "121328.490000", "121329.277500", "121330.065000", "121330.852500", "121331.642500", "121332.430000", "121333.217500", "121334.005000", "121334.795000", "121335.582500", "121336.370000", "121337.157500", "121337.947500", "121338.735000", "121339.522500", "121340.312500", "121341.100000", "121341.887500", "121342.675000", "121343.465000", "121344.252500", "121345.040000", "121345.827500", "121346.617500", "121347.405000", "121348.192500", "121348.980000", "121349.770000", "121350.557500", "121351.345000", "121352.132500", "121352.922500", "121353.710000", "121354.497500", "121355.285000", "121356.075000", "121356.862500", "121357.650000", "121358.440000", "121359.227500", "121400.015000", "121400.802500", "121401.592500", "121402.380000", "121403.167500", "121403.955000", "121404.745000", "121405.532500", "121406.320000", "121407.107500", "121407.897500", "121408.685000", "121409.472500", "121410.260000", "121411.050000", "121411.837500"],
      "ContentTime": ["120653.609000", "120653.609000", "120653.625000", "120653.625000", "120653.625000", "120653.625000", "120653.625000", "120653.625000", "120653.625000", "120653.640000", "120653.640000", "120653.640000", "120653.640000", "120653.640000", "120653.640000", "120653.640000", "120653.640000", "120653.656000", "120653.656000", "120653.656000", "120653.656000", "120713.578000", "120713.593000", "120713.593000", "120713.593000", "120713.593000", "120713.593000", "120713.593000", "120713.593000", "120713.593000", "120713.609000", "120713.609000", "120713.609000", "120713.609000", "120713.609000", "120713.609000", "120713.609000", "120713.625000", "120713.625000", "120713.625000", "120713.625000", "120713.625000", "120713.625000", "120713.625000", "120713.640000", "120713.640000", "120733.578000", "120733.593000", "120733.593000", "120733.593000", "120733.593000", "120733.593000", "120733.593000", "120733.593000", "120733.609000", "120733.609000", "120733.609000", "120733.609000", "120733.609000", "120733.609000", "120733.609000", "120733.609000", "120733.625000", "120733.625000", "120733.625000", "120733.625000", "120733.625000", "120733.625000", "120733.625000", "120733.640000", "120733.640000", "120733.640000", "120753.578000", "120753.593000", "120753.593000", "120753.593000", "120753.593000", "120753.593000", "120753.593000", "120753.593000", "120753.593000", "120753.609000", "120753.609000", "120753.609000", "120753.609000", "120753.609000", "120753.609000", "120753.609000", "120753.625000", "120753.625000", "120753.625000", "120753.625000", "120753.625000", "120753.625000", "120753.625000", "120753.625000", "120753.640000", "120813.578000", "120813.593000", "120813.593000", "120813.593000", "120813.593000", "120813.593000", "120813.593000", "120813.593000", "120813.593000", "120813.609000", "120813.609000", "120813.609000", "120813.609000", "120813.609000", "120813.609000", "120813.609000", "120813.625000", "120813.625000", "120813.625000", "120813.625000", "120813.625000", "120813.625000", "120813.640000", "120813.640000", "120813.640000", "120813.640000", "120833.578000", "120833.593000", "120833.593000", "120833.593000", "120833.593000", "120833.593000", "120833.593000", "120833.593000", "120833.609000", "120833.609000", "120833.609000", "120833.609000", "120833.609000", "120833.609000", "120833.625000", "120833.625000", "120833.625000", "120833.625000", "120833.625000", "120833.625000", "120833.625000", "120833.640000", "120833.640000", "120833.640000", "120833.640000", "120853.578000", "120853.593000", "120853.593000", "120853.593000", "120853.593000", "120853.593000", "120853.593000", "120853.593000", "120853.593000", "120853.609000", "120853.609000", "120853.609000", "120853.609000", "120853.609000", "120853.609000", "120853.609000", "120853.625000", "120853.625000", "120853.625000", "120853.625000", "120853.625000", "120853.625000", "120853.625000", "120853.625000", "120853.640000", "120853.640000", "120913.578000", "120913.593000", "120913.593000", "120913.593000", "120913.593000", "120913.593000", "120913.593000", "120913.593000", "120913.593000", "120913.609000", "120913.609000", "120913.609000", "120913.609000", "120913.609000", "120913.609000", "120913.609000", "120913.625000", "120913.625000", "120913.625000", "120913.625000", "120913.625000", "120913.625000", "120913.625000", "120913.640000", "120913.640000", "120933.578000", "120933.593000", "120933.593000", "120933.593000", "120933.593000", "120933.593000", "120933.593000", "120933.593000", "120933.609000", "120933.609000", "120933.609000", "120933.609000", "120933.609000", "120933.609000", "120933.609000", "120933.625000", "120933.625000", "120933.625000", "120933.625000", "120933.625000", "120933.625000", "120933.625000", "120933.625000", "120933.640000", "120933.640000", "120933.640000", "120953.578000", "120953.593000", "120953.593000", "120953.593000", "120953.593000", "120953.593000", "120953.593000", "120953.593000", "120953.593000", "120953.609000", "120953.609000", "120953.609000", "120953.609000", "120953.609000", "120953.609000", "120953.609000", "120953.625000", "120953.625000", "120953.625000", "120953.625000", "120953.625000", "120953.625000", "120953.625000", "120953.625000", "120953.640000", "121013.578000", "121013.593000", "121013.593000", "121013.593000", "121013.593000", "121013.593000", "121013.593000", "121013.593000", "121013.593000", "121013.609000", "121013.609000", "121013.609000", "121013.609000", "121013.609000", "121013.609000", "121013.609000", "121013.625000", "121013.625000", "121013.625000", "121013.625000", "121013.625000", "121013.625000", "121013.625000", "121013.625000", "121013.640000", "121013.640000", "121033.578000", "121033.593000", "121033.593000", "121033.593000", "121033.593000", "121033.593000", "121033.593000", "121033.593000", "121033.593000", "121033.609000", "121033.609000", "121033.609000", "121033.609000", "121033.609000", "121033.609000", "121033.609000", "121033.625000", "121033.625000", "121033.625000", "121033.625000", "121033.625000", "121033.625000", "121033.625000", "121033.640000", "121033.640000", "121053.578000", "121053.593000", "121053.593000", "121053.593000", "121053.593000", "121053.593000", "121053.593000", "121053.609000", "121053.609000", "121053.609000", "121053.609000", "121053.609000", "121053.609000", "121053.625000", "121053.625000", "121053.625000", "121053.625000", "121053.625000", "121053.625000", "121053.625000", "121053.640000", "121053.640000", "121053.640000", "121053.640000", "121053.640000", "121113.578000", "121113.593000", "121113.593000", "121113.593000", "121113.593000", "121113.593000", "121113.593000", "121113.593000", "121113.593000", "121113.609000", "121113.609000", "121113.609000", "121113.609000", "121113.609000", "121113.609000", "121113.609000", "121113.625000", "121113.625000", "121113.625000", "121113.625000", "121113.625000", "121113.625000", "121113.625000", "121113.625000", "121113.640000", "121113.640000", "121133.578000", "121133.593000", "121133.593000", "121133.593000", "121133.593000", "121133.593000", "121133.593000", "121133.593000", "121133.609000", "121133.609000", "121133.609000", "121133.609000", "121133.609000", "121133.609000", "121133.609000", "121133.625000", "121133.625000", "121133.625000", "121133.625000", "121133.625000", "121133.640000", "121133.640000", "121133.640000", "121133.640000", "121133.640000", "121153.578000", "121153.593000", "121153.593000", "121153.593000", "121153.593000", "121153.593000", "121153.593000", "121153.593000", "121153.593000", "121153.609000", "121153.609000", "121153.609000", "121153.609000", "121153.609000", "121153.609000", "121153.609000", "121153.625000", "121153.625000", "121153.625000", "121153.625000", "121153.625000", "121153.640000", "121153.640000", "121153.640000", "121153.640000", "121153.640000", "121213.578000", "121213.593000", "121213.593000", "121213.593000", "121213.593000", "121213.593000", "121213.593000", "121213.593000", "121213.593000", "121213.609000", "121213.609000", "121213.609000", "121213.609000", "121213.609000", "121213.609000", "121213.625000", "121213.625000", "121213.625000", "121213.625000", "121213.625000", "121213.640000", "121213.640000", "121213.640000", "121213.640000", "121213.640000", "121233.578000", "121233.593000", "121233.593000", "121233.593000", "121233.593000", "121233.593000", "121233.593000", "121233.593000", "121233.593000", "121233.609000", "121233.609000", "121233.609000", "121233.609000", "121233.609000", "121233.609000", "121233.609000", "121233.625000", "121233.625000", "121233.625000", "121233.625000", "121233.625000", "121233.640000", "121233.640000", "121233.640000", "121233.640000", "121233.640000", "121253.578000", "121253.593000", "121253.593000", "121253.593000", "121253.593000", "121253.593000", "121253.593000", "121253.593000", "121253.609000", "121253.609000", "121253.609000", "121253.609000", "121253.609000", "121253.609000", "121253.609000", "121253.609000", "121253.625000", "121253.625000", "121253.625000", "121253.625000", "121253.625000", "121253.625000", "121253.625000", "121253.625000", "121253.640000", "121313.578000", "121313.593000", "121313.593000", "121313.593000", "121313.593000", "121313.593000", "121313.593000", "121313.593000", "121313.593000", "121313.609000", "121313.609000", "121313.609000", "121313.609000", "121313.609000", "121313.609000", "121313.609000", "121313.625000", "121313.625000", "121313.625000", "121313.625000", "121313.625000", "121313.625000", "121313.640000", "121313.640000", "121313.640000", "121313.640000", "121333.578000", "121333.593000", "121333.593000", "121333.593000", "121333.593000", "121333.593000", "121333.593000", "121333.593000", "121333.609000", "121333.609000", "121333.609000", "121333.609000", "121333.609000", "121333.609000", "121333.609000", "121333.609000", "121333.625000", "121333.625000", "121333.625000", "121333.625000", "121333.625000", "121333.625000", "121333.640000", "121333.640000", "121333.640000", "121353.578000", "121353.593000", "121353.593000", "121353.593000", "121353.593000", "121353.593000", "121353.593000", "121353.593000", "121353.593000", "121353.609000", "121353.609000", "121353.609000", "121353.609000", "121353.609000", "121353.609000", "121353.609000", "121353.625000", "121353.625000", "121353.625000", "121353.625000", "121353.625000", "121353.625000", "121353.625000", "121353.625000", "121353.640000", "121353.640000", "121413.078000", "121413.078000", "121413.078000", "121413.078000", "121413.078000", "121413.078000", "121413.078000", "121413.093000", "121413.093000", "121413.093000", "121413.093000", "121413.093000", "121413.093000", "121413.093000", "121413.109000", "121413.109000", "121413.109000", "121413.109000", "121413.109000", "121413.125000", "121413.125000", "121413.125000", "121413.125000", "121413.125000", "121413.125000"],
