{
  "AcquisitionMatrixPE": 104,
  "AcquisitionNumber": 1,
  "AcquisitionTime": "11:01:59.862500",
  "BandwidthPerPixelPhaseEncode": 13.935,
  "BaseResolution": 104,
  "CoilString": "C:HEA;HEP",
  "ConversionSoftware": "dcm2niix",
  "ConversionSoftwareVersion": "v1.0.20210317",
  "DerivedVendorReportedEchoSpacing": 0.000690017,
  "DeviceSerialNumber": "35450",
  "DwellTime": 2.5e-06,
  "EchoTime": 0.0348,
  "EffectiveEchoSpacing": 0.000690017,
  "FlipAngle": 55,
  "ImageComments": "Unaliased MB8/PE3 (remote)",
  "ImageOrientationPatientDICOM": [1, 0, 0, 0, 0.975149, -0.221548],
  "ImageType": [
    "ORIGINAL",
    "PRIMARY",
    "M",
    "MB",
    "ND",
    "MOSAIC"
],
  "ImagingFrequency": 123.234,
  "InPlanePhaseEncodingDirectionDICOM": "COL",
  "InstitutionAddress": "Univeristy Ave. 197,Newark,North East,US,07102-1814",
  "InstitutionName": "RUBIC",
  "InstitutionalDepartmentName": "Department",
  "MRAcquisitionType": "2D",
  "MagneticFieldStrength": 3,
  "Manufacturer": "Siemens",
  "ManufacturersModelName": "TrioTim",
  "Modality": "MR",
  "MultibandAccelerationFactor": 8,
  "PartialFourier": 0.875,
  "PatientPosition": "HFS",
  "PercentPhaseFOV": 100,
  "PercentSampling": 100,
  "PhaseEncodingDirection": "j-",
  "PhaseEncodingSteps": 91,
  "PhaseResolution": 1,
  "PixelBandwidth": 1923,
  "ProcedureStepDescription": "Cole^Michael",
  "ProtocolName": "cmrr_mbep2d_bold_2mm_MB8_Rest",
  "PulseSequenceDetails": "%CustomerSeq%\\cmrr_mbep2d_bold",
  "ReceiveCoilName": "32Ch_Head",
  "ReconMatrixPE": 104,
  "RepetitionTime": 0.785,
  "SAR": 0.127861,
  "ScanOptions": "PFP\\FS",
  "ScanningSequence": "EP",
  "SequenceName": "epfid2d1_104",
  "SequenceVariant": "SK\\SS",
  "SeriesDescription": "cmrr_mbep2d_bold_2mm_MB8_Rest",
  "SeriesNumber": 9,
  "ShimSetting": [2075, -364, -7263, 225, 220, -495, 72, 24],
  "SliceThickness": 2,
  "SliceTiming": [0, 0.4375, 0.0875, 0.525, 0.175, 0.6125, 0.2625, 0.7, 0.35, 0, 0.4375, 0.0875, 0.525, 0.175, 0.6125, 0.2625, 0.7, 0.35, 0, 0.4375, 0.0875, 0.525, 0.175, 0.6125, 0.2625, 0.7, 0.35, 0, 0.4375, 0.0875, 0.525, 0.175, 0.6125, 0.2625, 0.7, 0.35, 0, 0.4375, 0.0875, 0.525, 0.175, 0.6125, 0.2625, 0.7, 0.35, 0, 0.4375, 0.0875, 0.525, 0.175, 0.6125, 0.2625, 0.7, 0.35, 0, 0.4375, 0.0875, 0.525, 0.175, 0.6125, 0.2625, 0.7, 0.35, 0, 0.4375, 0.0875, 0.525, 0.175, 0.6125, 0.2625, 0.7, 0.35],
  "SoftwareVersions": "syngo MR B19",
  "SpacingBetweenSlices": 2,
  "StationName": "MRC35450",
  "TaskName": "rest",
  "TotalReadoutTime": 0.0710717,
  "TxRefAmp": 456.615,
  "dcmmeta_affine": [
    [-2.0, 0.0, 0.0, 101.96610260009766],
    [0.0, 1.9502986669540405, -0.44309699535369873, -79.59001159667969],
    [0.0, 0.44309699535369873, 1.9502986669540405, -116.91829681396484],
    [0.0, 0.0, 0.0, 1.0]
],
  "dcmmeta_reorient_transform": [
    [0.0, -1.0, 0.0, 103.0],
    [1.0, 0.0, 0.0, 0.0],
    [0.0, 0.0, 1.0, 0.0],
    [0.0, 0.0, 0.0, 1.0]
],
  "dcmmeta_shape": [104, 104, 72, 1070],
  "dcmmeta_slice_dim": 2,
  "dcmmeta_version": 0.6,
  "global": {
    "const": {
      "AcquisitionMatrix": [104, 0, 0, 104],
      "AngioFlag": "N",
      "BitsAllocated": 16,
      "BitsStored": 12,
      "Columns": 936,
      "EchoNumbers": 1,
      "EchoTime": 34.8,
      "EchoTrainLength": 1,
      "FlipAngle": 55.0,
      "HighBit": 11,
      "ImageOrientationPatient": [1.0, 0.0, 0.0, 0.0, 0.97514935362234, -0.2215485006267],
      "ImagePositionPatient": [-933.96610164642, -932.61501624295, 113.04904593961],
      "ImageType": [
        "ORIGINAL",
        "PRIMARY",
        "M",
        "MB",
        "ND",
        "MOSAIC"
],
      "ImagedNucleus": "1H",
      "ImagingFrequency": 123.234357,
      "InPlanePhaseEncodingDirection": "COL",
      "MRAcquisitionType": "2D",
      "MagneticFieldStrength": 3.0,
      "Manufacturer": "SIEMENS",
      "ManufacturerModelName": "TrioTim",
      "Modality": "MR",
      "NumberOfAverages": 1.0,
      "NumberOfPhaseEncodingSteps": 91,
      "PercentPhaseFieldOfView": 100.0,
      "PercentSampling": 100.0,
      "PerformedProcedureStepStartTime": "101946.203000",
      "PhotometricInterpretation": "MONOCHROME2",
      "PixelBandwidth": 1923.0,
      "PixelRepresentation": 0,
      "PixelSpacing": [2.0, 2.0],
      "ProtocolName": "cmrr_mbep2d_bold_2mm_MB8_Rest",
      "RepetitionTime": 785.0,
      "Rows": 936,
      "SAR": 0.12786065139645,
      "SamplesPerPixel": 1,
      "ScanOptions": [
        "PFP",
        "FS"
],
      "ScanningSequence": "EP",
      "SequenceName": "epfid2d1_104",
      "SequenceVariant": [
        "SK",
        "SS"
],
      "SeriesDescription": "cmrr_mbep2d_bold_2mm_MB8_Rest",
      "SeriesNumber": 9,
      "SeriesTime": "110213.640000",
      "SliceLocation": -96.37975443493,
      "SliceThickness": 2.0,
      "SmallestImagePixelValue": 0,
      "SoftwareVersions": "syngo MR B19",
      "SpacingBetweenSlices": 1.9999999740658,
      "SpecificCharacterSet": "ISO_IR 100",
      "StudyID": "1",
      "StudyTime": "101946.078000",
      "TransmitCoilName": "Body",
      "VariableFlipAngleFlag": "N",
      "WindowCenterWidthExplanation": "Algo1",
      "dBdt": 0.0},
    "slices": {}
  },
  "time": {
    "samples": {
      "AcquisitionNumber": [1, 2, 3, 4, 5, 6, 7, 8, 9, 10, 11, 12, 13, 14, 15, 16, 17, 18, 19, 20, 21, 22, 23, 24, 25, 26, 27, 28, 29, 30, 31, 32, 33, 34, 35, 36, 37, 38, 39, 40, 41, 42, 43, 44, 45, 46, 47, 48, 49, 50, 51, 52, 53, 54, 55, 56, 57, 58, 59, 60, 61, 62, 63, 64, 65, 66, 67, 68, 69, 70, 71, 72, 73, 74, 75, 76, 77, 78, 79, 80, 81, 82, 83, 84, 85, 86, 87, 88, 89, 90, 91, 92, 93, 94, 95, 96, 97, 98, 99, 100, 101, 102, 103, 104, 105, 106, 107, 108, 109, 110, 111, 112, 113, 114, 115, 116, 117, 118, 119, 120, 121, 122, 123, 124, 125, 126, 127, 128, 129, 130, 131, 132, 133, 134, 135, 136, 137, 138, 139, 140, 141, 142, 143, 144, 145, 146, 147, 148, 149, 150, 151, 152, 153, 154, 155, 156, 157, 158, 159, 160, 161, 162, 163, 164, 165, 166, 167, 168, 169, 170, 171, 172, 173, 174, 175, 176, 177, 178, 179, 180, 181, 182, 183, 184, 185, 186, 187, 188, 189, 190, 191, 192, 193, 194, 195, 196, 197, 198, 199, 200, 201, 202, 203, 204, 205, 206, 207, 208, 209, 210, 211, 212, 213, 214, 215, 216, 217, 218, 219, 220, 221, 222, 223, 224, 225, 226, 227, 228, 229, 230, 231, 232, 233, 234, 235, 236, 237, 238, 239, 240, 241, 242, 243, 244, 245, 246, 247, 248, 249, 250, 251, 252, 253, 254, 255, 256, 257, 258, 259, 260, 261, 262, 263, 264, 265, 266, 267, 268, 269, 270, 271, 272, 273, 274, 275, 276, 277, 278, 279, 280, 281, 282, 283, 284, 285, 286, 287, 288, 289, 290, 291, 292, 293, 294, 295, 296, 297, 298, 299, 300, 301, 302, 303, 304, 305, 306, 307, 308, 309, 310, 311, 312, 313, 314, 315, 316, 317, 318, 319, 320, 321, 322, 323, 324, 325, 326, 327, 328, 329, 330, 331, 332, 333, 334, 335, 336, 337, 338, 339, 340, 341, 342, 343, 344, 345, 346, 347, 348, 349, 350, 351, 352, 353, 354, 355, 356, 357, 358, 359, 360, 361, 362, 363, 364, 365, 366, 367, 368, 369, 370, 371, 372, 373, 374, 375, 376, 377, 378, 379, 380, 381, 382, 383, 384, 385, 386, 387, 388, 389, 390, 391, 392, 393, 394, 395, 396, 397, 398, 399, 400, 401, 402, 403, 404, 405, 406, 407, 408, 409, 410, 411, 412, 413, 414, 415, 416, 417, 418, 419, 420, 421, 422, 423, 424, 425, 426, 427, 428, 429, 430, 431, 432, 433, 434, 435, 436, 437, 438, 439, 440, 441, 442, 443, 444, 445, 446, 447, 448, 449, 450, 451, 452, 453, 454, 455, 456, 457, 458, 459, 460, 461, 462, 463, 464, 465, 466, 467, 468, 469, 470, 471, 472, 473, 474, 475, 476, 477, 478, 479, 480, 481, 482, 483, 484, 485, 486, 487, 488, 489, 490, 491, 492, 493, 494, 495, 496, 497, 498, 499, 500, 501, 502, 503, 504, 505, 506, 507, 508, 509, 510, 511, 512, 513, 514, 515, 516, 517, 518, 519, 520, 521, 522, 523, 524, 525, 526, 527, 528, 529, 530, 531, 532, 533, 534, 535, 536, 537, 538, 539, 540, 541, 542, 543, 544, 545, 546, 547, 548, 549, 550, 551, 552, 553, 554, 555, 556, 557, 558, 559, 560, 561, 562, 563, 564, 565, 566, 567, 568, 569, 570, 571, 572, 573, 574, 575, 576, 577, 578, 579, 580, 581, 582, 583, 584, 585, 586, 587, 588, 589, 590, 591, 592, 593, 594, 595, 596, 597, 598, 599, 600, 601, 602, 603, 604, 605, 606, 607, 608, 609, 610, 611, 612, 613, 614, 615, 616, 617, 618, 619, 620, 621, 622, 623, 624, 625, 626, 627, 628, 629, 630, 631, 632, 633, 634, 635, 636, 637, 638, 639, 640, 641, 642, 643, 644, 645, 646, 647, 648, 649, 650, 651, 652, 653, 654, 655, 656, 657, 658, 659, 660, 661, 662, 663, 664, 665, 666, 667, 668, 669, 670, 671, 672, 673, 674, 675, 676, 677, 678, 679, 680, 681, 682, 683, 684, 685, 686, 687, 688, 689, 690, 691, 692, 693, 694, 695, 696, 697, 698, 699, 700, 701, 702, 703, 704, 705, 706, 707, 708, 709, 710, 711, 712, 713, 714, 715, 716, 717, 718, 719, 720, 721, 722, 723, 724, 725, 726, 727, 728, 729, 730, 731, 732, 733, 734, 735, 736, 737, 738, 739, 740, 741, 742, 743, 744, 745, 746, 747, 748, 749, 750, 751, 752, 753, 754, 755, 756, 757, 758, 759, 760, 761, 762, 763, 764, 765, 766, 767, 768, 769, 770, 771, 772, 773, 774, 775, 776, 777, 778, 779, 780, 781, 782, 783, 784, 785, 786, 787, 788, 789, 790, 791, 792, 793, 794, 795, 796, 797, 798, 799, 800, 801, 802, 803, 804, 805, 806, 807, 808, 809, 810, 811, 812, 813, 814, 815, 816, 817, 818, 819, 820, 821, 822, 823, 824, 825, 826, 827, 828, 829, 830, 831, 832, 833, 834, 835, 836, 837, 838, 839, 840, 841, 842, 843, 844, 845, 846, 847, 848, 849, 850, 851, 852, 853, 854, 855, 856, 857, 858, 859, 860, 861, 862, 863, 864, 865, 866, 867, 868, 869, 870, 871, 872, 873, 874, 875, 876, 877, 878, 879, 880, 881, 882, 883, 884, 885, 886, 887, 888, 889, 890, 891, 892, 893, 894, 895, 896, 897, 898, 899, 900, 901, 902, 903, 904, 905, 906, 907, 908, 909, 910, 911, 912, 913, 914, 915, 916, 917, 918, 919, 920, 921, 922, 923, 924, 925, 926, 927, 928, 929, 930, 931, 932, 933, 934, 935, 936, 937, 938, 939, 940, 941, 942, 943, 944, 945, 946, 947, 948, 949, 950, 951, 952, 953, 954, 955, 956, 957, 958, 959, 960, 961, 962, 963, 964, 965, 966, 967, 968, 969, 970, 971, 972, 973, 974, 975, 976, 977, 978, 979, 980, 981, 982, 983, 984, 985, 986, 987, 988, 989, 990, 991, 992, 993, 994, 995, 996, 997, 998, 999, 1000, 1001, 1002, 1003, 1004, 1005, 1006, 1007, 1008, 1009, 1010, 1011, 1012, 1013, 1014, 1015, 1016, 1017, 1018, 1019, 1020, 1021, 1022, 1023, 1024, 1025, 1026, 1027, 1028, 1029, 1030, 1031, 1032, 1033, 1034, 1035, 1036, 1037, 1038, 1039, 1040, 1041, 1042, 1043, 1044, 1045, 1046, 1047, 1048, 1049, 1050, 1051, 1052, 1053, 1054, 1055, 1056, 1057, 1058, 1059, 1060, 1061, 1062, 1063, 1064, 1065, 1066, 1067, 1068, 1069, 1070],
      "AcquisitionTime": ["110159.862500", "110200.650000", "110201.437500", "110202.225000", "110203.015000", "110203.802500", "110204.590000", "110205.377500", "110206.167500", "110206.955000", "110207.742500", "110208.530000", "110209.320000", "110210.107500", "110210.895000", "110211.682500", "110212.472500", "110213.260000", "110214.047500", "110214.835000", "110215.625000", "110216.412500", "110217.200000", "110217.990000", "110218.777500", "110219.565000", "110220.352500", "110221.142500", "110221.930000", "110222.717500", "110223.505000", "110224.295000", "110225.082500", "110225.870000", "110226.657500", "110227.447500", "110228.235000", "110229.022500", "110229.810000", "110230.600000", "110231.387500", "110232.175000", "110232.962500", "110233.752500", "110234.540000", "110235.327500", "110236.117500", "110236.905000", "110237.692500", "110238.480000", "110239.270000", "110240.057500", "110240.845000", "110241.632500", "110242.422500", "110243.210000", "110243.997500", "110244.785000", "110245.575000", "110246.362500", "110247.150000", "110247.937500", "110248.727500", "110249.515000", "110250.302500", "110251.090000", "110251.880000", "110252.667500", "110253.455000", "110254.245000", "110255.032500", "110255.820000", "110256.607500", "110257.397500", "110258.185000", "110258.972500", "110259.760000", "110300.550000", "110301.337500", "110302.125000", "110302.912500", "110303.702500", "110304.490000", "110305.277500", "110306.065000", "110306.855000", "110307.642500", "110308.430000", "110309.217500", "110310.007500", "110310.795000", "110311.582500", "110312.372500", "110313.160000", "110313.947500", "110314.735000", "110315.525000", "110316.312500", "110317.100000", "110317.887500", "110318.677500", "110319.465000", "110320.252500", "110321.040000", "110321.830000", "110322.617500", "110323.405000", "110324.192500", "110324.982500", "110325.770000", "110326.557500", "110327.345000", "110328.135000", "110328.922500", "110329.710000", "110330.500000", "110331.287500", "110332.075000", "110332.862500", "110333.652500", "110334.440000", "110335.227500", "110336.015000", "110336.805000", "110337.592500", "110338.380000", "110339.167500", "110339.957500", "110340.745000", "110341.532500", "110342.320000", "110343.110000", "110343.897500", "110344.685000", "110345.472500", "110346.262500", "110347.050000", "110347.837500", "110348.627500", "110349.415000", "110350.202500", "110350.990000", "110351.780000", "110352.567500", "110353.355000", "110354.142500", "110354.932500", "110355.720000", "110356.507500", "110357.295000", "110358.085000", "110358.872500", "110359.660000", "110400.447500", "110401.237500", "110402.025000", "110402.812500", "110403.600000", "110404.390000", "110405.177500", "110405.965000", "110406.755000", "110407.542500", "110408.330000", "110409.117500", "110409.907500", "110410.695000", "110411.482500", "110412.270000", "110413.060000", "110413.847500", "110414.635000", "110415.422500", "110416.212500", "110417.000000", "110417.787500", "110418.575000", "110419.365000", "110420.152500", "110420.940000", "110421.727500", "110422.517500", "110423.305000", "110424.092500", "110424.882500", "110425.670000", "110426.457500", "110427.245000", "110428.035000", "110428.822500", "110429.610000", "110430.397500", "110431.187500", "110431.975000", "110432.762500", "110433.550000", "110434.340000", "110435.127500", "110435.915000", "110436.702500", "110437.492500", "110438.280000", "110439.067500", "110439.855000", "110440.645000", "110441.432500", "110442.220000", "110443.010000", "110443.797500", "110444.585000", "110445.372500", "110446.162500", "110446.950000", "110447.737500", "110448.525000", "110449.315000", "110450.102500", "110450.890000", "110451.677500", "110452.467500", "110453.255000", "110454.042500", "110454.830000", "110455.620000", "110456.407500", "110457.195000", "110457.985000", "110458.772500", "110459.560000", "110500.347500", "110501.137500", "110501.925000", "110502.712500", "110503.500000", "110504.290000", "110505.077500", "110505.865000", "110506.652500", "110507.442500", "110508.230000", "110509.017500", "110509.805000", "110510.595000", "110511.382500", "110512.170000", "110512.957500", "110513.747500", "110514.535000", "110515.322500", "110516.112500", "110516.900000", "110517.687500", "110518.475000", "110519.265000", "110520.052500", "110520.840000", "110521.627500", "110522.417500", "110523.205000", "110523.992500", "110524.780000", "110525.570000", "110526.357500", "110527.145000", "110527.932500", "110528.722500", "110529.510000", "110530.297500", "110531.085000", "110531.875000", "110532.662500", "110533.450000", "110534.240000", "110535.027500", "110535.815000", "110536.602500", "110537.392500", "110538.180000", "110538.967500", "110539.755000", "110540.545000", "110541.332500", "110542.120000", "110542.907500", "110543.697500", "110544.485000", "110545.272500", "110546.060000", "110546.850000", "110547.637500", "110548.425000", "110549.212500", "110550.002500", "110550.790000", "110551.577500", "110552.367500", "110553.155000", "110553.942500", "110554.730000", "110555.520000", "110556.307500", "110557.095000", "110557.882500", "110558.672500", "110559.460000", "110600.247500", "110601.035000", "110601.825000", "110602.612500", "110603.400000", "110604.187500", "110604.977500", "110605.765000", "110606.552500", "110607.340000", "110608.130000", "110608.917500", "110609.705000", "110610.495000", "110611.282500", "110612.070000", "110612.857500", "110613.647500", "110614.435000", "110615.222500", "110616.010000", "110616.800000", "110617.587500", "110618.375000", "110619.162500", "110619.952500", "110620.740000", "110621.527500", "110622.315000", "110623.105000", "110623.892500", "110624.680000", "110625.467500", "110626.257500", "110627.045000", "110627.832500", "110628.622500", "110629.410000", "110630.197500", "110630.985000", "110631.775000", "110632.562500", "110633.350000", "110634.137500", "110634.927500", "110635.715000", "110636.502500", "110637.290000", "110638.080000", "110638.867500", "110639.655000", "110640.442500", "110641.232500", "110642.020000", "110642.807500", "110643.595000", "110644.385000", "110645.172500", "110645.960000", "110646.750000", "110647.537500", "110648.325000", "110649.112500", "110649.902500", "110650.690000", "110651.477500", "110652.265000", "110653.055000", "110653.842500", "110654.630000", "110655.417500", "110656.207500", "110656.995000", "110657.782500", "110658.570000", "110659.360000", "110700.147500", "110700.935000", "110701.722500", "110702.512500", "110703.300000", "110704.087500", "110704.877500", "110705.665000", "110706.452500", "110707.240000", "110708.030000", "110708.817500", "110709.605000", "110710.392500", "110711.182500", "110711.970000", "110712.757500", "110713.545000", "110714.335000", "110715.122500", "110715.910000", "110716.697500", "110717.487500", "110718.275000", "110719.062500", "110719.850000", "110720.640000", "110721.427500", "110722.215000", "110723.005000", "110723.792500", "110724.580000", "110725.367500", "110726.157500", "110726.945000", "110727.732500", "110728.520000", "110729.310000", "110730.097500", "110730.885000", "110731.672500", "110732.462500", "110733.250000", "110734.037500", "110734.825000", "110735.615000", "110736.402500", "110737.190000", "110737.977500", "110738.767500", "110739.555000", "110740.342500", "110741.132500", "110741.920000", "110742.707500", "110743.495000", "110744.285000", "110745.072500", "110745.860000", "110746.647500", "110747.437500", "110748.225000", "110749.012500", "110749.800000", "110750.590000", "110751.377500", "110752.165000", "110752.952500", "110753.742500", "110754.530000", "110755.317500", "110756.105000", "110756.895000", "110757.682500", "110758.470000", "110759.260000", "110800.047500", "110800.835000", "110801.622500", "110802.412500", "110803.200000", "110803.987500", "110804.775000", "110805.565000", "110806.352500", "110807.140000", "110807.927500", "110808.717500", "110809.505000", "110810.292500", "110811.080000", "110811.870000", "110812.657500", "110813.445000", "110814.235000", "110815.022500", "110815.810000", "110816.597500", "110817.387500", "110818.175000", "110818.962500", "110819.750000", "110820.540000", "110821.327500", "110822.115000", "110822.902500", "110823.692500", "110824.480000", "110825.267500", "110826.055000", "110826.845000", "110827.632500", "110828.420000", "110829.207500", "110829.997500", "110830.785000", "110831.572500", "110832.362500", "110833.150000", "110833.937500", "110834.725000", "110835.515000", "110836.302500", "110837.090000", "110837.877500", "110838.667500", "110839.455000", "110840.242500", "110841.030000", "110841.820000", "110842.607500", "110843.395000", "110844.182500", "110844.972500", "110845.760000", "110846.547500", "110847.335000", "110848.125000", "110848.912500", "110849.700000", "110850.490000", "110851.277500", "110852.065000", "110852.852500", "110853.642500", "110854.430000", "110855.217500", "110856.005000", "110856.795000", "110857.582500", "110858.370000", "110859.157500", "110859.947500", "110900.735000", "110901.522500", "110902.310000", "110903.100000", "110903.887500", "110904.675000", "110905.462500", "110906.252500", "110907.040000", "110907.827500", "110908.617500", "110909.405000", "110910.192500", "110910.980000", "110911.770000", "110912.557500", "110913.345000", "110914.132500", "110914.922500", "110915.710000", "110916.497500", "110917.285000", "110918.075000", "110918.862500", "110919.650000", "110920.437500", "110921.227500", "110922.015000", "110922.802500", "110923.590000", "110924.380000", "110925.167500", "110925.955000", "110926.745000", "110927.532500", "110928.320000", "110929.107500", "110929.897500", "110930.685000", "110931.472500", "110932.260000", "110933.050000", "110933.837500", "110934.625000", "110935.412500", "110936.202500", "110936.990000", "110937.777500", "110938.565000", "110939.355000", "110940.142500", "110940.930000", "110941.717500", "110942.507500", "110943.295000", "110944.082500", "110944.872500", "110945.660000", "110946.447500", "110947.235000", "110948.025000", "110948.812500", "110949.600000", "110950.387500", "110951.177500", "110951.965000", "110952.752500", "110953.540000", "110954.330000", "110955.117500", "110955.905000", "110956.692500", "110957.482500", "110958.270000", "110959.057500", "110959.845000", "111000.635000", "111001.422500", "111002.210000", "111003.000000", "111003.787500", "111004.575000", "111005.362500", "111006.152500", "111006.940000", "111007.727500", "111008.515000", "111009.305000", "111010.092500", "111010.880000", "111011.667500", "111012.457500", "111013.245000", "111014.032500", "111014.820000", "111015.610000", "111016.397500", "111017.185000", "111017.972500", "111018.762500", "111019.550000", "111020.337500", "111021.127500", "111021.915000", "111022.702500", "111023.490000", "111024.280000", "111025.067500", "111025.855000", "111026.642500", "111027.432500", "111028.220000", "111029.007500", "111029.795000", "111030.585000", "111031.372500", "111032.160000", "111032.947500", "111033.737500", "111034.525000", "111035.312500", "111036.100000", "111036.890000", "111037.677500", "111038.465000", "111039.255000", "111040.042500", "111040.830000", "111041.617500", "111042.407500", "111043.195000", "111043.982500", "111044.770000", "111045.560000", "111046.347500", "111047.135000", "111047.922500", "111048.712500", "111049.500000", "111050.287500", "111051.075000", "111051.865000", "111052.652500", "111053.440000", "111054.227500", "111055.017500", "111055.805000", "111056.592500", "111057.382500", "111058.170000", "111058.957500", "111059.745000", "111100.535000", "111101.322500", "111102.110000", "111102.897500", "111103.687500", "111104.475000", "111105.262500", "111106.050000", "111106.840000", "111107.627500", "111108.415000", "111109.202500", "111109.992500", "111110.780000", "111111.567500", "111112.355000", "111113.145000", "111113.932500", "111114.720000", "111115.510000", "111116.297500", "111117.085000", "111117.872500", "111118.662500", "111119.450000", "111120.237500", "111121.025000", "111121.815000", "111122.602500", "111123.390000", "111124.177500", "111124.967500", "111125.755000", "111126.542500", "111127.330000", "111128.120000", "111128.907500", "111129.695000", "111130.485000", "111131.272500", "111132.060000", "111132.847500", "111133.637500", "111134.425000", "111135.212500", "111136.000000", "111136.790000", "111137.577500", "111138.365000", "111139.152500", "111139.942500", "111140.730000", "111141.517500", "111142.305000", "111143.095000", "111143.882500", "111144.670000", "111145.457500", "111146.247500", "111147.035000", "111147.822500", "111148.612500", "111149.400000", "111150.187500", "111150.975000", "111151.765000", "111152.552500", "111153.340000", "111154.127500", "111154.917500", "111155.705000", "111156.492500", "111157.280000", "111158.070000", "111158.857500", "111159.645000", "111200.432500", "111201.222500", "111202.010000", "111202.797500", "111203.585000", "111204.375000", "111205.162500", "111205.950000", "111206.740000", "111207.527500", "111208.315000", "111209.102500", "111209.892500", "111210.680000", "111211.467500", "111212.255000", "111213.045000", "111213.832500", "111214.620000", "111215.407500", "111216.197500", "111216.985000", "111217.772500", "111218.560000", "111219.350000", "111220.137500", "111220.925000", "111221.712500", "111222.502500", "111223.290000", "111224.077500", "111224.867500", "111225.655000", "111226.442500", "111227.230000", "111228.020000", "111228.807500", "111229.595000", "111230.382500", "111231.172500", "111231.960000", "111232.747500", "111233.535000", "111234.325000", "111235.112500", "111235.900000", "111236.687500", "111237.477500", "111238.265000", "111239.052500", "111239.840000", "111240.630000", "111241.417500", "111242.205000", "111242.995000", "111243.782500", "111244.570000", "111245.357500", "111246.147500", "111246.935000", "111247.722500", "111248.510000", "111249.300000", "111250.087500", "111250.875000", "111251.662500", "111252.452500", "111253.240000", "111254.027500", "111254.815000", "111255.605000", "111256.392500", "111257.180000", "111257.967500", "111258.757500", "111259.545000", "111300.332500", "111301.122500", "111301.910000", "111302.697500", "111303.485000", "111304.275000", "111305.062500", "111305.850000", "111306.637500", "111307.427500", "111308.215000", "111309.002500", "111309.790000", "111310.580000", "111311.367500", "111312.155000", "111312.942500", "111313.732500", "111314.520000", "111315.307500", "111316.095000", "111316.885000", "111317.672500", "111318.460000", "111319.250000", "111320.037500", "111320.825000", "111321.612500", "111322.402500", "111323.190000", "111323.977500", "111324.765000", "111325.555000", "111326.342500", "111327.130000", "111327.917500", "111328.707500", "111329.495000", "111330.282500", "111331.070000", "111331.860000", "111332.647500", "111333.435000", "111334.222500", "111335.012500", "111335.800000", "111336.587500", "111337.377500", "111338.165000", "111338.952500", "111339.740000", "111340.530000", "111341.317500", "111342.105000", "111342.892500", "111343.682500", "111344.470000", "111345.257500", "111346.045000", "111346.835000", "111347.622500", "111348.410000", "111349.197500", "111349.987500", "111350.775000", "111351.562500", "111352.350000", "111353.140000", "111353.927500", "111354.715000", "111355.505000", "111356.292500", "111357.080000", "111357.867500", "111358.657500", "111359.445000", "111400.232500", "111401.020000", "111401.810000", "111402.597500", "111403.385000", "111404.172500", "111404.962500", "111405.750000", "111406.537500", "111407.325000", "111408.115000", "111408.902500", "111409.690000", "111410.477500", "111411.267500", "111412.055000", "111412.842500", "111413.632500", "111414.420000", "111415.207500", "111415.995000", "111416.785000", "111417.572500", "111418.360000", "111419.147500", "111419.937500", "111420.725000", "111421.512500", "111422.300000", "111423.090000", "111423.877500", "111424.665000", "111425.452500", "111426.242500", "111427.030000", "111427.817500", "111428.605000", "111429.395000", "111430.182500", "111430.970000", "111431.760000", "111432.547500", "111433.335000", "111434.122500", "111434.912500", "111435.700000", "111436.487500", "111437.275000", "111438.065000", "111438.852500", "111439.640000", "111440.427500", "111441.217500", "111442.005000", "111442.792500", "111443.580000", "111444.370000", "111445.157500", "111445.945000", "111446.735000", "111447.522500", "111448.310000", "111449.097500", "111449.887500", "111450.675000", "111451.462500", "111452.250000", "111453.040000", "111453.827500", "111454.615000", "111455.402500", "111456.192500", "111456.980000", "111457.767500", "111458.555000", "111459.345000", "111500.132500", "111500.920000", "111501.707500", "111502.497500", "111503.285000", "111504.072500", "111504.862500", "111505.650000", "111506.437500", "111507.225000", "111508.015000", "111508.802500", "111509.590000", "111510.377500", "111511.167500", "111511.955000", "111512.742500", "111513.530000", "111514.320000", "111515.107500", "111515.895000", "111516.682500", "111517.472500", "111518.260000", "111519.047500", "111519.835000", "111520.625000", "111521.412500", "111522.200000", "111522.990000", "111523.777500", "111524.565000", "111525.352500", "111526.142500", "111526.930000", "111527.717500", "111528.505000", "111529.295000", "111530.082500", "111530.870000", "111531.657500", "111532.447500", "111533.235000", "111534.022500", "111534.810000", "111535.600000", "111536.387500", "111537.175000", "111537.962500", "111538.752500", "111539.540000", "111540.327500", "111541.117500", "111541.905000", "111542.692500", "111543.480000", "111544.270000", "111545.057500", "111545.845000", "111546.632500", "111547.422500", "111548.210000", "111548.997500", "111549.785000", "111550.575000", "111551.362500", "111552.150000", "111552.937500", "111553.727500", "111554.515000", "111555.302500", "111556.090000", "111556.880000", "111557.667500", "111558.455000", "111559.245000", "111600.032500", "111600.820000", "111601.607500", "111602.397500"],
