{
  "AcquisitionMatrixPE": 104,
  "AcquisitionNumber": 1,
  "AcquisitionTime": "16:20:54.750000",
  "BandwidthPerPixelPhaseEncode": 13.935,
  "BaseResolution": 104,
  "CoilString": "C:HEA;HEP",
  "ConversionSoftware": "dcm2niix",
  "ConversionSoftwareVersion": "v1.0.20210317",
  "DerivedVendorReportedEchoSpacing": 0.000690017,
  "DeviceSerialNumber": "35450",
  "DwellTime": 2.5e-06,
  "EchoTime": 0.0348,
  "EffectiveEchoSpacing": 0.000690017,
  "FlipAngle": 55,
  "ImageComments": "Unaliased MB8/PE3",
  "ImageOrientationPatientDICOM": [0.999781, 0.000292439, 0.0209404, -3.70528e-08, 0.999903, -0.0139622],
  "ImageType": [
    "ORIGINAL",
    "PRIMARY",
    "M",
    "MB",
    "ND",
    "MOSAIC"
],
  "ImagingFrequency": 123.235,
  "InPlanePhaseEncodingDirectionDICOM": "COL",
  "InstitutionAddress": "Univeristy Ave. 197,Newark,North East,US,07102-1814",
  "InstitutionName": "RUBIC",
  "InstitutionalDepartmentName": "Department",
  "MRAcquisitionType": "2D",
  "MagneticFieldStrength": 3,
  "Manufacturer": "Siemens",
  "ManufacturersModelName": "TrioTim",
  "Modality": "MR",
  "MultibandAccelerationFactor": 8,
  "PartialFourier": 0.875,
  "PatientPosition": "HFS",
  "PercentPhaseFOV": 100,
  "PercentSampling": 100,
  "PhaseEncodingDirection": "j-",
  "PhaseEncodingSteps": 91,
  "PhaseResolution": 1,
  "PixelBandwidth": 1923,
  "ProcedureStepDescription": "Cole^Michael",
  "ProtocolName": "cmrr_mbep2d_bold_2mm_MB8_Task_8x",
  "PulseSequenceDetails": "%CustomerSeq%\\cmrr_mbep2d_bold",
  "ReceiveCoilName": "32Ch_Head",
  "ReconMatrixPE": 104,
  "RepetitionTime": 0.785,
  "SAR": 0.165453,
  "ScanOptions": "PFP\\FS",
  "ScanningSequence": "EP",
  "SequenceName": "epfid2d1_104",
  "SequenceVariant": "SK\\SS",
  "SeriesDescription": "cmrr_mbep2d_bold_2mm_MB8_Task_8x",
  "SeriesNumber": 21,
  "ShimSetting": [2127, -486, -7263, 574, -91, -221, 179, -132],
  "SliceThickness": 2,
  "SliceTiming": [0, 0.4375, 0.0875, 0.525, 0.175, 0.6125, 0.2625, 0.7, 0.35, 0, 0.4375, 0.0875, 0.525, 0.175, 0.6125, 0.2625, 0.7, 0.35, 0, 0.4375, 0.0875, 0.525, 0.175, 0.6125, 0.2625, 0.7, 0.35, 0, 0.4375, 0.0875, 0.525, 0.175, 0.6125, 0.2625, 0.7, 0.35, 0, 0.4375, 0.0875, 0.525, 0.175, 0.6125, 0.2625, 0.7, 0.35, 0, 0.4375, 0.0875, 0.525, 0.175, 0.6125, 0.2625, 0.7, 0.35, 0, 0.4375, 0.0875, 0.525, 0.175, 0.6125, 0.2625, 0.7, 0.35, 0, 0.4375, 0.0875, 0.525, 0.175, 0.6125, 0.2625, 0.7, 0.35],
  "SoftwareVersions": "syngo MR B19",
  "SpacingBetweenSlices": 2,
  "StationName": "MRC35450",
  "TaskName": "cpro",
  "TotalReadoutTime": 0.0710717,
  "TxRefAmp": 385.324,
  "dcmmeta_affine": [
    [-1.9995613098144531, -7.410552171904783e-08, 0.04188484326004982, 102.49028015136719],
    [-0.0005848778528161347, 1.9998050928115845, -0.027918236330151558, -88.16078186035156],
    [0.04188075661659241, 0.02792436257004738, 1.9993665218353271, -86.21315002441406],
    [0.0, 0.0, 0.0, 1.0]
],
  "dcmmeta_reorient_transform": [
    [0.0, -1.0, 0.0, 103.0],
    [1.0, 0.0, 0.0, 0.0],
    [0.0, 0.0, 1.0, 0.0],
    [0.0, 0.0, 0.0, 1.0]
],
  "dcmmeta_shape": [104, 104, 72, 581],
  "dcmmeta_slice_dim": 2,
  "dcmmeta_version": 0.6,
  "global": {
    "const": {
      "AcquisitionMatrix": [104, 0, 0, 104],
      "AngioFlag": "N",
      "BitsAllocated": 16,
      "BitsStored": 12,
      "Columns": 936,
      "EchoNumbers": 1,
      "EchoTime": 34.8,
      "EchoTrainLength": 1,
      "FlipAngle": 55.0,
      "HighBit": 11,
      "ImageOrientationPatient": [0.99978068345824, 0.00029243891402, 0.02094037877551, -3.705276e-08, 0.99990252399678, -0.013962181236],
      "ImagePositionPatient": [-934.30777326185, -949.98134869546, -89.142798951707],
      "ImageType": [
        "ORIGINAL",
        "PRIMARY",
        "M",
        "MB",
        "ND",
        "MOSAIC"
],
      "ImagedNucleus": "1H",
      "ImagingFrequency": 123.234584,
      "InPlanePhaseEncodingDirection": "COL",
      "MRAcquisitionType": "2D",
      "MagneticFieldStrength": 3.0,
      "Manufacturer": "SIEMENS",
      "ManufacturerModelName": "TrioTim",
      "Modality": "MR",
      "NumberOfAverages": 1.0,
      "NumberOfPhaseEncodingSteps": 91,
      "PercentPhaseFieldOfView": 100.0,
      "PercentSampling": 100.0,
      "PerformedProcedureStepStartTime": "144633.343000",
      "PhotometricInterpretation": "MONOCHROME2",
      "PixelBandwidth": 1923.0,
      "PixelRepresentation": 0,
      "PixelSpacing": [2.0, 2.0],
      "ProtocolName": "cmrr_mbep2d_bold_2mm_MB8_Task_8x",
      "RepetitionTime": 785.0,
      "Rows": 936,
      "SAR": 0.16545277246203,
      "SamplesPerPixel": 1,
      "ScanOptions": [
        "PFP",
        "FS"
],
      "ScanningSequence": "EP",
      "SequenceName": "epfid2d1_104",
      "SequenceVariant": [
        "SK",
        "SS"
],
      "SeriesDescription": "cmrr_mbep2d_bold_2mm_MB8_Task_8x",
      "SeriesNumber": 21,
      "SeriesTime": "172945.859000",
      "SliceLocation": -82.808796706389,
      "SliceThickness": 2.0,
      "SmallestImagePixelValue": 0,
      "SoftwareVersions": "syngo MR B19",
      "SpacingBetweenSlices": 2.0000000336909,
      "SpecificCharacterSet": "ISO_IR 100",
      "StudyID": "1",
      "StudyTime": "144633.296000",
      "TransmitCoilName": "Body",
      "VariableFlipAngleFlag": "N",
      "WindowCenterWidthExplanation": "Algo1",
      "dBdt": 0.0},
    "slices": {}
  },
  "time": {
    "samples": {
      "AcquisitionNumber": [1, 2, 3, 4, 5, 6, 7, 8, 9, 10, 11, 12, 13, 14, 15, 16, 17, 18, 19, 20, 21, 22, 23, 24, 25, 26, 27, 28, 29, 30, 31, 32, 33, 34, 35, 36, 37, 38, 39, 40, 41, 42, 43, 44, 45, 46, 47, 48, 49, 50, 51, 52, 53, 54, 55, 56, 57, 58, 59, 60, 61, 62, 63, 64, 65, 66, 67, 68, 69, 70, 71, 72, 73, 74, 75, 76, 77, 78, 79, 80, 81, 82, 83, 84, 85, 86, 87, 88, 89, 90, 91, 92, 93, 94, 95, 96, 97, 98, 99, 100, 101, 102, 103, 104, 105, 106, 107, 108, 109, 110, 111, 112, 113, 114, 115, 116, 117, 118, 119, 120, 121, 122, 123, 124, 125, 126, 127, 128, 129, 130, 131, 132, 133, 134, 135, 136, 137, 138, 139, 140, 141, 142, 143, 144, 145, 146, 147, 148, 149, 150, 151, 152, 153, 154, 155, 156, 157, 158, 159, 160, 161, 162, 163, 164, 165, 166, 167, 168, 169, 170, 171, 172, 173, 174, 175, 176, 177, 178, 179, 180, 181, 182, 183, 184, 185, 186, 187, 188, 189, 190, 191, 192, 193, 194, 195, 196, 197, 198, 199, 200, 201, 202, 203, 204, 205, 206, 207, 208, 209, 210, 211, 212, 213, 214, 215, 216, 217, 218, 219, 220, 221, 222, 223, 224, 225, 226, 227, 228, 229, 230, 231, 232, 233, 234, 235, 236, 237, 238, 239, 240, 241, 242, 243, 244, 245, 246, 247, 248, 249, 250, 251, 252, 253, 254, 255, 256, 257, 258, 259, 260, 261, 262, 263, 264, 265, 266, 267, 268, 269, 270, 271, 272, 273, 274, 275, 276, 277, 278, 279, 280, 281, 282, 283, 284, 285, 286, 287, 288, 289, 290, 291, 292, 293, 294, 295, 296, 297, 298, 299, 300, 301, 302, 303, 304, 305, 306, 307, 308, 309, 310, 311, 312, 313, 314, 315, 316, 317, 318, 319, 320, 321, 322, 323, 324, 325, 326, 327, 328, 329, 330, 331, 332, 333, 334, 335, 336, 337, 338, 339, 340, 341, 342, 343, 344, 345, 346, 347, 348, 349, 350, 351, 352, 353, 354, 355, 356, 357, 358, 359, 360, 361, 362, 363, 364, 365, 366, 367, 368, 369, 370, 371, 372, 373, 374, 375, 376, 377, 378, 379, 380, 381, 382, 383, 384, 385, 386, 387, 388, 389, 390, 391, 392, 393, 394, 395, 396, 397, 398, 399, 400, 401, 402, 403, 404, 405, 406, 407, 408, 409, 410, 411, 412, 413, 414, 415, 416, 417, 418, 419, 420, 421, 422, 423, 424, 425, 426, 427, 428, 429, 430, 431, 432, 433, 434, 435, 436, 437, 438, 439, 440, 441, 442, 443, 444, 445, 446, 447, 448, 449, 450, 451, 452, 453, 454, 455, 456, 457, 458, 459, 460, 461, 462, 463, 464, 465, 466, 467, 468, 469, 470, 471, 472, 473, 474, 475, 476, 477, 478, 479, 480, 481, 482, 483, 484, 485, 486, 487, 488, 489, 490, 491, 492, 493, 494, 495, 496, 497, 498, 499, 500, 501, 502, 503, 504, 505, 506, 507, 508, 509, 510, 511, 512, 513, 514, 515, 516, 517, 518, 519, 520, 521, 522, 523, 524, 525, 526, 527, 528, 529, 530, 531, 532, 533, 534, 535, 536, 537, 538, 539, 540, 541, 542, 543, 544, 545, 546, 547, 548, 549, 550, 551, 552, 553, 554, 555, 556, 557, 558, 559, 560, 561, 562, 563, 564, 565, 566, 567, 568, 569, 570, 571, 572, 573, 574, 575, 576, 577, 578, 579, 580, 581],
      "AcquisitionTime": ["162054.750000", "162055.537500", "162056.325000", "162057.112500", "162057.902500", "162058.690000", "162059.477500", "162100.265000", "162101.055000", "162101.842500", "162102.630000", "162103.417500", "162104.207500", "162104.995000", "162105.782500", "162106.570000", "162107.360000", "162108.147500", "162108.935000", "162109.722500", "162110.512500", "162111.300000", "162112.087500", "162112.877500", "162113.665000", "162114.452500", "162115.240000", "162116.030000", "162116.817500", "162117.605000", "162118.392500", "162119.182500", "162119.970000", "162120.757500", "162121.545000", "162122.335000", "162123.122500", "162123.910000", "162124.697500", "162125.487500", "162126.275000", "162127.062500", "162127.850000", "162128.640000", "162129.427500", "162130.215000", "162131.005000", "162131.792500", "162132.580000", "162133.367500", "162134.157500", "162134.945000", "162135.732500", "162136.520000", "162137.310000", "162138.097500", "162138.885000", "162139.672500", "162140.462500", "162141.250000", "162142.037500", "162142.825000", "162143.615000", "162144.402500", "162145.190000", "162145.977500", "162146.767500", "162147.555000", "162148.342500", "162149.132500", "162149.920000", "162150.707500", "162151.495000", "162152.285000", "162153.072500", "162153.860000", "162154.647500", "162155.437500", "162156.225000", "162157.012500", "162157.800000", "162158.590000", "162159.377500", "162200.165000", "162200.952500", "162201.742500", "162202.530000", "162203.317500", "162204.107500", "162204.895000", "162205.682500", "162206.470000", "162207.260000", "162208.047500", "162208.835000", "162209.622500", "162210.412500", "162211.200000", "162211.987500", "162212.775000", "162213.565000", "162214.352500", "162215.140000", "162215.927500", "162216.717500", "162217.505000", "162218.292500", "162219.080000", "162219.870000", "162220.657500", "162221.445000", "162222.235000", "162223.022500", "162223.810000", "162224.597500", "162225.387500", "162226.175000", "162226.962500", "162227.750000", "162228.540000", "162229.327500", "162230.115000", "162230.902500", "162231.692500", "162232.480000", "162233.267500", "162234.055000", "162234.845000", "162235.632500", "162236.420000", "162237.207500", "162237.997500", "162238.785000", "162239.572500", "162240.362500", "162241.150000", "162241.937500", "162242.725000", "162243.515000", "162244.302500", "162245.090000", "162245.877500", "162246.667500", "162247.455000", "162248.242500", "162249.030000", "162249.820000", "162250.607500", "162251.395000", "162252.182500", "162252.972500", "162253.760000", "162254.547500", "162255.335000", "162256.125000", "162256.912500", "162257.700000", "162258.490000", "162259.277500", "162300.065000", "162300.852500", "162301.642500", "162302.430000", "162303.217500", "162304.005000", "162304.795000", "162305.582500", "162306.370000", "162307.157500", "162307.947500", "162308.735000", "162309.522500", "162310.310000", "162311.100000", "162311.887500", "162312.675000", "162313.462500", "162314.252500", "162315.040000", "162315.827500", "162316.617500", "162317.405000", "162318.192500", "162318.980000", "162319.770000", "162320.557500", "162321.345000", "162322.132500", "162322.922500", "162323.710000", "162324.497500", "162325.285000", "162326.075000", "162326.862500", "162327.650000", "162328.437500", "162329.227500", "162330.015000", "162330.802500", "162331.590000", "162332.380000", "162333.167500", "162333.955000", "162334.745000", "162335.532500", "162336.320000", "162337.107500", "162337.897500", "162338.685000", "162339.472500", "162340.260000", "162341.050000", "162341.837500", "162342.625000", "162343.412500", "162344.202500", "162344.990000", "162345.777500", "162346.565000", "162347.355000", "162348.142500", "162348.930000", "162349.717500", "162350.507500", "162351.295000", "162352.082500", "162352.872500", "162353.660000", "162354.447500", "162355.235000", "162356.025000", "162356.812500", "162357.600000", "162358.387500", "162359.177500", "162359.965000", "162400.752500", "162401.540000", "162402.330000", "162403.117500", "162403.905000", "162404.692500", "162405.482500", "162406.270000", "162407.057500", "162407.845000", "162408.635000", "162409.422500", "162410.210000", "162411.000000", "162411.787500", "162412.575000", "162413.362500", "162414.152500", "162414.940000", "162415.727500", "162416.515000", "162417.305000", "162418.092500", "162418.880000", "162419.667500", "162420.457500", "162421.245000", "162422.032500", "162422.820000", "162423.610000", "162424.397500", "162425.185000", "162425.972500", "162426.762500", "162427.550000", "162428.337500", "162429.127500", "162429.915000", "162430.702500", "162431.490000", "162432.280000", "162433.067500", "162433.855000", "162434.642500", "162435.432500", "162436.220000", "162437.007500", "162437.795000", "162438.585000", "162439.372500", "162440.160000", "162440.947500", "162441.737500", "162442.525000", "162443.312500", "162444.100000", "162444.890000", "162445.677500", "162446.465000", "162447.255000", "162448.042500", "162448.830000", "162449.617500", "162450.407500", "162451.195000", "162451.982500", "162452.770000", "162453.560000", "162454.347500", "162455.135000", "162455.922500", "162456.712500", "162457.500000", "162458.287500", "162459.075000", "162459.865000", "162500.652500", "162501.440000", "162502.227500", "162503.017500", "162503.805000", "162504.592500", "162505.382500", "162506.170000", "162506.957500", "162507.745000", "162508.535000", "162509.322500", "162510.110000", "162510.897500", "162511.687500", "162512.475000", "162513.262500", "162514.050000", "162514.840000", "162515.627500", "162516.415000", "162517.202500", "162517.992500", "162518.780000", "162519.567500", "162520.357500", "162521.145000", "162521.932500", "162522.720000", "162523.510000", "162524.297500", "162525.085000", "162525.872500", "162526.662500", "162527.450000", "162528.237500", "162529.025000", "162529.815000", "162530.602500", "162531.390000", "162532.177500", "162532.967500", "162533.755000", "162534.542500", "162535.330000", "162536.120000", "162536.907500", "162537.695000", "162538.485000", "162539.272500", "162540.060000", "162540.847500", "162541.637500", "162542.425000", "162543.212500", "162544.000000", "162544.790000", "162545.577500", "162546.365000", "162547.152500", "162547.942500", "162548.730000", "162549.517500", "162550.305000", "162551.095000", "162551.882500", "162552.670000", "162553.457500", "162554.247500", "162555.035000", "162555.822500", "162556.612500", "162557.400000", "162558.187500", "162558.975000", "162559.765000", "162600.552500", "162601.340000", "162602.127500", "162602.917500", "162603.705000", "162604.492500", "162605.280000", "162606.070000", "162606.857500", "162607.645000", "162608.432500", "162609.222500", "162610.010000", "162610.797500", "162611.585000", "162612.375000", "162613.162500", "162613.950000", "162614.740000", "162615.527500", "162616.315000", "162617.102500", "162617.892500", "162618.680000", "162619.467500", "162620.255000", "162621.045000", "162621.832500", "162622.620000", "162623.407500", "162624.197500", "162624.985000", "162625.772500", "162626.560000", "162627.350000", "162628.137500", "162628.925000", "162629.712500", "162630.502500", "162631.290000", "162632.077500", "162632.867500", "162633.655000", "162634.442500", "162635.230000", "162636.020000", "162636.807500", "162637.595000", "162638.382500", "162639.172500", "162639.960000", "162640.747500", "162641.535000", "162642.325000", "162643.112500", "162643.900000", "162644.687500", "162645.477500", "162646.265000", "162647.052500", "162647.840000", "162648.630000", "162649.417500", "162650.205000", "162650.995000", "162651.782500", "162652.570000", "162653.357500", "162654.147500", "162654.935000", "162655.722500", "162656.510000", "162657.300000", "162658.087500", "162658.875000", "162659.662500", "162700.452500", "162701.240000", "162702.027500", "162702.815000", "162703.605000", "162704.392500", "162705.180000", "162705.967500", "162706.757500", "162707.545000", "162708.332500", "162709.122500", "162709.910000", "162710.697500", "162711.485000", "162712.275000", "162713.062500", "162713.850000", "162714.637500", "162715.427500", "162716.215000", "162717.002500", "162717.790000", "162718.580000", "162719.367500", "162720.155000", "162720.942500", "162721.732500", "162722.520000", "162723.307500", "162724.095000", "162724.885000", "162725.672500", "162726.460000", "162727.250000", "162728.037500", "162728.825000", "162729.612500", "162730.402500", "162731.190000", "162731.977500", "162732.765000", "162733.555000", "162734.342500", "162735.130000", "162735.917500", "162736.707500", "162737.495000", "162738.282500", "162739.070000", "162739.860000", "162740.647500", "162741.435000", "162742.222500", "162743.012500", "162743.800000", "162744.587500", "162745.377500", "162746.165000", "162746.952500", "162747.740000", "162748.530000", "162749.317500", "162750.105000", "162750.892500", "162751.682500", "162752.470000", "162753.257500", "162754.045000", "162754.835000", "162755.622500", "162756.410000", "162757.197500", "162757.987500", "162758.775000", "162759.562500", "162800.350000", "162801.140000", "162801.927500", "162802.715000", "162803.505000", "162804.292500", "162805.080000", "162805.867500", "162806.657500", "162807.445000", "162808.232500", "162809.020000", "162809.810000", "162810.597500", "162811.385000", "162812.172500", "162812.962500", "162813.750000", "162814.537500", "162815.325000", "162816.115000", "162816.902500", "162817.690000", "162818.477500", "162819.267500", "162820.055000", "162820.842500", "162821.632500", "162822.420000", "162823.207500", "162823.995000", "162824.785000", "162825.572500", "162826.360000", "162827.147500", "162827.937500", "162828.725000", "162829.512500", "162830.300000", "162831.090000", "162831.877500"],
      "ContentTime": ["172945.859000", "173045.828000", "173045.843000", "173045.843000", "173045.843000", "173045.843000", "173045.843000", "173045.843000", "173045.859000", "173045.859000", "173045.859000", "173045.859000", "173045.859000", "173045.859000", "173045.859000", "173045.875000", "173045.875000", "173045.875000", "173045.875000", "173045.875000", "173045.875000", "173045.890000", "173045.890000", "173045.890000", "173045.890000", "173045.890000", "173045.890000", "173045.890000", "173045.906000", "173145.828000", "173145.843000", "173145.843000", "173145.843000", "173145.843000", "173145.843000", "173145.843000", "173145.859000", "173145.859000", "173145.859000", "173145.859000", "173145.859000", "173145.859000", "173145.859000", "173145.859000", "173145.875000", "173145.875000", "173145.875000", "173145.875000", "173145.875000", "173145.890000", "173145.890000", "173145.890000", "173145.890000", "173145.890000", "173145.890000", "173145.890000", "173145.906000", "173145.906000", "173245.828000", "173245.843000", "173245.843000", "173245.843000", "173245.843000", "173245.843000", "173245.843000", "173245.859000", "173245.859000", "173245.859000", "173245.859000", "173245.859000", "173245.859000", "173245.859000", "173245.875000", "173245.875000", "173245.875000", "173245.875000", "173245.875000", "173245.875000", "173245.875000", "173245.890000", "173245.890000", "173245.890000", "173245.890000", "173245.890000", "173245.890000", "173245.890000", "173345.828000", "173345.843000", "173345.843000", "173345.843000", "173345.843000", "173345.843000", "173345.843000", "173345.859000", "173345.859000", "173345.859000", "173345.859000", "173345.859000", "173345.859000", "173345.859000", "173345.875000", "173345.875000", "173345.875000", "173345.875000", "173345.875000", "173345.875000", "173345.875000", "173345.890000", "173345.890000", "173345.890000", "173345.890000", "173345.890000", "173345.890000", "173345.890000", "173445.828000", "173445.843000", "173445.843000", "173445.843000", "173445.843000", "173445.843000", "173445.843000", "173445.843000", "173445.859000", "173445.859000", "173445.859000", "173445.859000", "173445.859000", "173445.859000", "173445.859000", "173445.875000", "173445.875000", "173445.875000", "173445.875000", "173445.875000", "173445.875000", "173445.890000", "173445.890000", "173445.890000", "173445.890000", "173445.890000", "173445.890000", "173445.890000", "173545.828000", "173545.843000", "173545.843000", "173545.843000", "173545.843000", "173545.843000", "173545.843000", "173545.859000", "173545.859000", "173545.859000", "173545.859000", "173545.859000", "173545.859000", "173545.859000", "173545.875000", "173545.875000", "173545.875000", "173545.875000", "173545.875000", "173545.875000", "173545.875000", "173545.890000", "173545.890000", "173545.890000", "173545.890000", "173545.890000", "173545.890000", "173545.890000", "173645.828000", "173645.843000", "173645.843000", "173645.843000", "173645.843000", "173645.843000", "173645.843000", "173645.843000", "173645.859000", "173645.859000", "173645.859000", "173645.859000", "173645.859000", "173645.859000", "173645.859000", "173645.875000", "173645.875000", "173645.875000", "173645.875000", "173645.875000", "173645.875000", "173645.890000", "173645.890000", "173645.890000", "173645.890000", "173645.890000", "173645.890000", "173645.906000", "173645.906000", "173745.828000", "173745.843000", "173745.843000", "173745.843000", "173745.843000", "173745.843000", "173745.843000", "173745.859000", "173745.859000", "173745.859000", "173745.859000", "173745.859000", "173745.859000", "173745.859000", "173745.875000", "173745.875000", "173745.875000", "173745.875000", "173745.875000", "173745.875000", "173745.875000", "173745.890000", "173745.890000", "173745.890000", "173745.890000", "173745.906000", "173745.906000", "173745.906000", "173845.828000", "173845.843000", "173845.843000", "173845.843000", "173845.843000", "173845.843000", "173845.843000", "173845.859000", "173845.859000", "173845.859000", "173845.859000", "173845.859000", "173845.859000", "173845.875000", "173845.875000", "173845.875000", "173845.875000", "173845.875000", "173845.875000", "173845.875000", "173845.890000", "173845.890000", "173845.890000", "173845.890000", "173845.890000", "173845.906000", "173845.906000", "173845.906000", "173945.828000", "173945.843000", "173945.843000", "173945.843000", "173945.843000", "173945.843000", "173945.859000", "173945.859000", "173945.859000", "173945.859000", "173945.859000", "173945.859000", "173945.859000", "173945.875000", "173945.875000", "173945.875000", "173945.875000", "173945.875000", "173945.875000", "173945.875000", "173945.890000", "173945.890000", "173945.890000", "173945.890000", "173945.890000", "173945.890000", "173945.890000", "173945.906000", "174045.828000", "174045.843000", "174045.843000", "174045.843000", "174045.843000", "174045.843000", "174045.843000", "174045.859000", "174045.859000", "174045.859000", "174045.859000", "174045.859000", "174045.859000", "174045.875000", "174045.875000", "174045.875000", "174045.875000", "174045.875000", "174045.875000", "174045.890000", "174045.890000", "174045.890000", "174045.890000", "174045.890000", "174045.890000", "174045.890000", "174045.906000", "174045.906000", "174105.828000", "174105.843000", "174105.843000", "174105.843000", "174105.843000", "174105.843000", "174105.843000", "174105.859000", "174105.859000", "174105.859000", "174205.828000", "174205.843000", "174205.843000", "174205.843000", "174205.843000", "174205.843000", "174205.859000", "174205.859000", "174205.859000", "174205.859000", "174205.859000", "174205.859000", "174205.859000", "174205.875000", "174205.875000", "174205.875000", "174205.875000", "174205.875000", "174205.875000", "174205.890000", "174205.890000", "174205.890000", "174205.890000", "174205.890000", "174205.890000", "174205.906000", "174205.906000", "174205.906000", "174305.828000", "174305.843000", "174305.843000", "174305.843000", "174305.843000", "174305.843000", "174305.843000", "174305.859000", "174305.859000", "174305.859000", "174305.859000", "174305.859000", "174305.859000", "174305.859000", "174305.875000", "174305.875000", "174305.875000", "174305.875000", "174305.875000", "174305.875000", "174305.875000", "174305.890000", "174305.890000", "174305.890000", "174305.890000", "174305.890000", "174305.890000", "174305.890000", "174405.828000", "174405.843000", "174405.843000", "174405.843000", "174405.843000", "174405.843000", "174405.843000", "174405.859000", "174405.859000", "174405.859000", "174405.859000", "174405.859000", "174405.859000", "174405.859000", "174405.875000", "174405.875000", "174405.875000", "174405.875000", "174405.875000", "174405.875000", "174405.875000", "174405.890000", "174405.890000", "174405.890000", "174405.890000", "174405.890000", "174405.890000", "174405.890000", "174405.906000", "174505.828000", "174505.843000", "174505.843000", "174505.843000", "174505.843000", "174505.843000", "174505.843000", "174505.859000", "174505.859000", "174505.859000", "174505.859000", "174505.859000", "174505.859000", "174505.859000", "174505.875000", "174505.875000", "174505.875000", "174505.875000", "174505.875000", "174505.875000", "174505.875000", "174505.890000", "174505.890000", "174505.890000", "174505.890000", "174505.890000", "174505.890000", "174505.890000", "174605.828000", "174605.843000", "174605.843000", "174605.843000", "174605.843000", "174605.843000", "174605.843000", "174605.859000", "174605.859000", "174605.859000", "174605.859000", "174605.859000", "174605.859000", "174605.859000", "174605.875000", "174605.875000", "174605.875000", "174605.875000", "174605.875000", "174605.875000", "174605.875000", "174605.890000", "174605.890000", "174605.890000", "174605.890000", "174605.890000", "174605.890000", "174605.906000", "174705.828000", "174705.843000", "174705.843000", "174705.843000", "174705.843000", "174705.843000", "174705.843000", "174705.859000", "174705.859000", "174705.859000", "174705.859000", "174705.859000", "174705.859000", "174705.859000", "174705.875000", "174705.875000", "174705.875000", "174705.875000", "174705.875000", "174705.875000", "174705.875000", "174705.890000", "174705.890000", "174705.890000", "174705.890000", "174705.890000", "174705.890000", "174705.890000", "174805.828000", "174805.843000", "174805.843000", "174805.843000", "174805.843000", "174805.843000", "174805.843000", "174805.859000", "174805.859000", "174805.859000", "174805.859000", "174805.859000", "174805.859000", "174805.859000", "174805.875000", "174805.875000", "174805.875000", "174805.875000", "174805.875000", "174805.875000", "174805.875000", "174805.890000", "174805.890000", "174805.890000", "174805.890000", "174805.890000", "174805.890000", "174805.890000", "174905.828000", "174905.843000", "174905.843000", "174905.843000", "174905.843000", "174905.843000", "174905.843000", "174905.859000", "174905.859000", "174905.859000", "174905.859000", "174905.859000", "174905.859000", "174905.859000", "174905.875000", "174905.875000", "174905.875000", "174905.875000", "174905.875000", "174905.875000", "174905.875000", "174905.890000", "174905.890000", "174905.890000", "174905.890000", "174905.890000", "174905.890000", "174905.890000", "174905.906000", "175005.828000", "175005.843000", "175005.843000", "175005.843000", "175005.843000", "175005.843000", "175005.843000", "175005.859000", "175005.859000", "175005.859000", "175005.859000", "175005.859000", "175005.859000", "175005.875000", "175005.875000", "175005.875000", "175005.875000", "175005.890000", "175005.890000", "175005.890000", "175005.890000", "175005.890000", "175005.890000", "175005.890000", "175005.906000", "175005.906000", "175005.906000", "175005.906000", "175016.953000", "175016.953000", "175016.953000", "175016.968000", "175016.968000", "175016.968000"],
