{
  "AcquisitionMatrixPE": 104,
  "AcquisitionNumber": 1,
  "AcquisitionTime": "17:17:58.715000",
  "BandwidthPerPixelPhaseEncode": 13.935,
  "BaseResolution": 104,
  "CoilString": "C:HEA;HEP",
  "ConversionSoftware": "dcm2niix",
  "ConversionSoftwareVersion": "v1.0.20210317",
  "DerivedVendorReportedEchoSpacing": 0.000690017,
  "DeviceSerialNumber": "35450",
  "DwellTime": 2.5e-06,
  "EchoTime": 0.0348,
  "EffectiveEchoSpacing": 0.000690017,
  "FlipAngle": 55,
  "ImageComments": "Unaliased MB8/PE3 (remote)",
  "ImageOrientationPatientDICOM": [1, 2.00789e-06, 0.000228425, -1.51369e-08, 0.999962, -0.00872355],
  "ImageType": [
    "ORIGINAL",
    "PRIMARY",
    "M",
    "MB",
    "ND",
    "MOSAIC"
],
  "ImagingFrequency": 123.235,
  "InPlanePhaseEncodingDirectionDICOM": "COL",
  "InstitutionAddress": "Univeristy Ave. 197,Newark,North East,US,07102-1814",
  "InstitutionName": "RUBIC",
  "InstitutionalDepartmentName": "Department",
  "MRAcquisitionType": "2D",
  "MagneticFieldStrength": 3,
  "Manufacturer": "Siemens",
  "ManufacturersModelName": "TrioTim",
  "Modality": "MR",
  "MultibandAccelerationFactor": 8,
  "PartialFourier": 0.875,
  "PatientPosition": "HFS",
  "PercentPhaseFOV": 100,
  "PercentSampling": 100,
  "PhaseEncodingDirection": "j-",
  "PhaseEncodingSteps": 91,
  "PhaseResolution": 1,
  "PixelBandwidth": 1923,
  "ProcedureStepDescription": "Cole^Michael",
  "ProtocolName": "cmrr_mbep2d_bold_2mm_MB8_Task_8x",
  "PulseSequenceDetails": "%CustomerSeq%\\cmrr_mbep2d_bold",
  "ReceiveCoilName": "32Ch_Head",
  "ReconMatrixPE": 104,
  "RepetitionTime": 0.785,
  "SAR": 0.241499,
  "ScanOptions": "PFP\\FS",
  "ScanningSequence": "EP",
  "SequenceName": "epfid2d1_104",
  "SequenceVariant": "SK\\SS",
  "SeriesDescription": "cmrr_mbep2d_bold_2mm_MB8_Task_8x",
  "SeriesNumber": 19,
  "ShimSetting": [2010, -271, -7249, 536, -183, -176, -209, 364],
  "SliceThickness": 2,
  "SliceTiming": [0, 0.4375, 0.0875, 0.525, 0.175, 0.6125, 0.2625, 0.7, 0.35, 0, 0.4375, 0.0875, 0.525, 0.175, 0.6125, 0.2625, 0.7, 0.35, 0, 0.4375, 0.0875, 0.525, 0.175, 0.6125, 0.2625, 0.7, 0.35, 0, 0.4375, 0.0875, 0.525, 0.175, 0.6125, 0.2625, 0.7, 0.35, 0, 0.4375, 0.0875, 0.525, 0.175, 0.6125, 0.2625, 0.7, 0.35, 0, 0.4375, 0.0875, 0.525, 0.175, 0.6125, 0.2625, 0.7, 0.35, 0, 0.4375, 0.0875, 0.525, 0.175, 0.6125, 0.2625, 0.7, 0.35, 0, 0.4375, 0.0875, 0.525, 0.175, 0.6125, 0.2625, 0.7, 0.35],
  "SoftwareVersions": "syngo MR B19",
  "SpacingBetweenSlices": 2,
  "StationName": "MRC35450",
  "TaskName": "cpro",
  "TotalReadoutTime": 0.0710717,
  "TxRefAmp": 460.323,
  "dcmmeta_affine": [
    [-2.0, -3.0273813678149963e-08, 0.00045686843805015087, 103.87020111083984],
    [-4.015785179944942e-06, 1.9999239444732666, -0.0174470916390419, -97.0390396118164],
    [0.00045685077202506363, 0.0174470916390419, 1.999923825263977, -94.84534454345703],
    [0.0, 0.0, 0.0, 1.0]
],
  "dcmmeta_reorient_transform": [
    [0.0, -1.0, 0.0, 103.0],
    [1.0, 0.0, 0.0, 0.0],
    [0.0, 0.0, 1.0, 0.0],
    [0.0, 0.0, 0.0, 1.0]
],
  "dcmmeta_shape": [104, 104, 72, 581],
  "dcmmeta_slice_dim": 2,
  "dcmmeta_version": 0.6,
  "global": {
    "const": {
      "AcquisitionMatrix": [104, 0, 0, 104],
      "AngioFlag": "N",
      "BitsAllocated": 16,
      "BitsStored": 12,
      "Columns": 936,
      "EchoNumbers": 1,
      "EchoTime": 34.8,
      "EchoTrainLength": 1,
      "FlipAngle": 55.0,
      "HighBit": 11,
      "ImageOrientationPatient": [0.99999997390891, 2.007892612e-06, 0.00022842538633, -1.5136906e-08, 0.99996194915097, -0.0087235457355],
      "ImagePositionPatient": [-935.87016125484, -940.92313101081, -85.9803529367],
      "ImageType": [
        "ORIGINAL",
        "PRIMARY",
        "M",
        "MB",
        "ND",
        "MOSAIC"
],
      "ImagedNucleus": "1H",
      "ImagingFrequency": 123.234565,
      "InPlanePhaseEncodingDirection": "COL",
      "MRAcquisitionType": "2D",
      "MagneticFieldStrength": 3.0,
      "Manufacturer": "SIEMENS",
      "ManufacturerModelName": "TrioTim",
      "Modality": "MR",
      "NumberOfAverages": 1.0,
      "NumberOfPhaseEncodingSteps": 91,
      "PercentPhaseFieldOfView": 100.0,
      "PercentSampling": 100.0,
      "PerformedProcedureStepStartTime": "154737.875000",
      "PhotometricInterpretation": "MONOCHROME2",
      "PixelBandwidth": 1923.0,
      "PixelRepresentation": 0,
      "PixelSpacing": [2.0, 2.0],
      "ProtocolName": "cmrr_mbep2d_bold_2mm_MB8_Task_8x",
      "RepetitionTime": 785.0,
      "Rows": 936,
      "SAR": 0.24149931136604,
      "SamplesPerPixel": 1,
      "ScanOptions": [
        "PFP",
        "FS"
],
      "ScanningSequence": "EP",
      "SequenceName": "epfid2d1_104",
      "SequenceVariant": [
        "SK",
        "SS"
],
      "SeriesDescription": "cmrr_mbep2d_bold_2mm_MB8_Task_8x",
      "SeriesNumber": 19,
      "SeriesTime": "171824.062000",
      "SliceLocation": -93.971480056148,
      "SliceThickness": 2.0,
      "SmallestImagePixelValue": 0,
      "SoftwareVersions": "syngo MR B19",
      "SpacingBetweenSlices": 2.0000000210972,
      "SpecificCharacterSet": "ISO_IR 100",
      "StudyID": "1",
      "StudyTime": "154737.828000",
      "TransmitCoilName": "Body",
      "VariableFlipAngleFlag": "N",
      "WindowCenterWidthExplanation": "Algo1",
      "dBdt": 0.0},
    "slices": {}
  },
  "time": {
    "samples": {
      "AcquisitionNumber": [1, 2, 3, 4, 5, 6, 7, 8, 9, 10, 11, 12, 13, 14, 15, 16, 17, 18, 19, 20, 21, 22, 23, 24, 25, 26, 27, 28, 29, 30, 31, 32, 33, 34, 35, 36, 37, 38, 39, 40, 41, 42, 43, 44, 45, 46, 47, 48, 49, 50, 51, 52, 53, 54, 55, 56, 57, 58, 59, 60, 61, 62, 63, 64, 65, 66, 67, 68, 69, 70, 71, 72, 73, 74, 75, 76, 77, 78, 79, 80, 81, 82, 83, 84, 85, 86, 87, 88, 89, 90, 91, 92, 93, 94, 95, 96, 97, 98, 99, 100, 101, 102, 103, 104, 105, 106, 107, 108, 109, 110, 111, 112, 113, 114, 115, 116, 117, 118, 119, 120, 121, 122, 123, 124, 125, 126, 127, 128, 129, 130, 131, 132, 133, 134, 135, 136, 137, 138, 139, 140, 141, 142, 143, 144, 145, 146, 147, 148, 149, 150, 151, 152, 153, 154, 155, 156, 157, 158, 159, 160, 161, 162, 163, 164, 165, 166, 167, 168, 169, 170, 171, 172, 173, 174, 175, 176, 177, 178, 179, 180, 181, 182, 183, 184, 185, 186, 187, 188, 189, 190, 191, 192, 193, 194, 195, 196, 197, 198, 199, 200, 201, 202, 203, 204, 205, 206, 207, 208, 209, 210, 211, 212, 213, 214, 215, 216, 217, 218, 219, 220, 221, 222, 223, 224, 225, 226, 227, 228, 229, 230, 231, 232, 233, 234, 235, 236, 237, 238, 239, 240, 241, 242, 243, 244, 245, 246, 247, 248, 249, 250, 251, 252, 253, 254, 255, 256, 257, 258, 259, 260, 261, 262, 263, 264, 265, 266, 267, 268, 269, 270, 271, 272, 273, 274, 275, 276, 277, 278, 279, 280, 281, 282, 283, 284, 285, 286, 287, 288, 289, 290, 291, 292, 293, 294, 295, 296, 297, 298, 299, 300, 301, 302, 303, 304, 305, 306, 307, 308, 309, 310, 311, 312, 313, 314, 315, 316, 317, 318, 319, 320, 321, 322, 323, 324, 325, 326, 327, 328, 329, 330, 331, 332, 333, 334, 335, 336, 337, 338, 339, 340, 341, 342, 343, 344, 345, 346, 347, 348, 349, 350, 351, 352, 353, 354, 355, 356, 357, 358, 359, 360, 361, 362, 363, 364, 365, 366, 367, 368, 369, 370, 371, 372, 373, 374, 375, 376, 377, 378, 379, 380, 381, 382, 383, 384, 385, 386, 387, 388, 389, 390, 391, 392, 393, 394, 395, 396, 397, 398, 399, 400, 401, 402, 403, 404, 405, 406, 407, 408, 409, 410, 411, 412, 413, 414, 415, 416, 417, 418, 419, 420, 421, 422, 423, 424, 425, 426, 427, 428, 429, 430, 431, 432, 433, 434, 435, 436, 437, 438, 439, 440, 441, 442, 443, 444, 445, 446, 447, 448, 449, 450, 451, 452, 453, 454, 455, 456, 457, 458, 459, 460, 461, 462, 463, 464, 465, 466, 467, 468, 469, 470, 471, 472, 473, 474, 475, 476, 477, 478, 479, 480, 481, 482, 483, 484, 485, 486, 487, 488, 489, 490, 491, 492, 493, 494, 495, 496, 497, 498, 499, 500, 501, 502, 503, 504, 505, 506, 507, 508, 509, 510, 511, 512, 513, 514, 515, 516, 517, 518, 519, 520, 521, 522, 523, 524, 525, 526, 527, 528, 529, 530, 531, 532, 533, 534, 535, 536, 537, 538, 539, 540, 541, 542, 543, 544, 545, 546, 547, 548, 549, 550, 551, 552, 553, 554, 555, 556, 557, 558, 559, 560, 561, 562, 563, 564, 565, 566, 567, 568, 569, 570, 571, 572, 573, 574, 575, 576, 577, 578, 579, 580, 581],
      "AcquisitionTime": ["171758.715000", "171759.505000", "171800.292500", "171801.080000", "171801.867500", "171802.657500", "171803.445000", "171804.232500", "171805.020000", "171805.810000", "171806.597500", "171807.385000", "171808.172500", "171808.962500", "171809.750000", "171810.537500", "171811.325000", "171812.115000", "171812.902500", "171813.690000", "171814.480000", "171815.267500", "171816.055000", "171816.842500", "171817.632500", "171818.420000", "171819.207500", "171819.995000", "171820.785000", "171821.572500", "171822.360000", "171823.147500", "171823.937500", "171824.725000", "171825.512500", "171826.300000", "171827.090000", "171827.877500", "171828.665000", "171829.452500", "171830.242500", "171831.030000", "171831.817500", "171832.607500", "171833.395000", "171834.182500", "171834.970000", "171835.760000", "171836.547500", "171837.335000", "171838.122500", "171838.912500", "171839.700000", "171840.487500", "171841.275000", "171842.065000", "171842.852500", "171843.640000", "171844.427500", "171845.217500", "171846.005000", "171846.792500", "171847.580000", "171848.370000", "171849.157500", "171849.945000", "171850.735000", "171851.522500", "171852.310000", "171853.097500", "171853.887500", "171854.675000", "171855.462500", "171856.250000", "171857.040000", "171857.827500", "171858.615000", "171859.402500", "171900.192500", "171900.980000", "171901.767500", "171902.555000", "171903.345000", "171904.132500", "171904.920000", "171905.707500", "171906.497500", "171907.285000", "171908.072500", "171908.862500", "171909.650000", "171910.437500", "171911.225000", "171912.015000", "171912.802500", "171913.590000", "171914.377500", "171915.167500", "171915.955000", "171916.742500", "171917.530000", "171918.320000", "171919.107500", "171919.895000", "171920.682500", "171921.472500", "171922.260000", "171923.047500", "171923.835000", "171924.625000", "171925.412500", "171926.200000", "171926.990000", "171927.777500", "171928.565000", "171929.352500", "171930.142500", "171930.930000", "171931.717500", "171932.505000", "171933.295000", "171934.082500", "171934.870000", "171935.657500", "171936.447500", "171937.235000", "171938.022500", "171938.810000", "171939.600000", "171940.387500", "171941.175000", "171941.962500", "171942.752500", "171943.540000", "171944.327500", "171945.117500", "171945.905000", "171946.692500", "171947.480000", "171948.270000", "171949.057500", "171949.845000", "171950.632500", "171951.422500", "171952.210000", "171952.997500", "171953.785000", "171954.575000", "171955.362500", "171956.150000", "171956.937500", "171957.727500", "171958.515000", "171959.302500", "172000.090000", "172000.880000", "172001.667500", "172002.455000", "172003.245000", "172004.032500", "172004.820000", "172005.607500", "172006.397500", "172007.185000", "172007.972500", "172008.760000", "172009.550000", "172010.337500", "172011.125000", "172011.912500", "172012.702500", "172013.490000", "172014.277500", "172015.065000", "172015.855000", "172016.642500", "172017.430000", "172018.217500", "172019.007500", "172019.795000", "172020.582500", "172021.372500", "172022.160000", "172022.947500", "172023.735000", "172024.525000", "172025.312500", "172026.100000", "172026.887500", "172027.677500", "172028.465000", "172029.252500", "172030.040000", "172030.830000", "172031.617500", "172032.405000", "172033.192500", "172033.982500", "172034.770000", "172035.557500", "172036.345000", "172037.135000", "172037.922500", "172038.710000", "172039.500000", "172040.287500", "172041.075000", "172041.862500", "172042.652500", "172043.440000", "172044.227500", "172045.015000", "172045.805000", "172046.592500", "172047.380000", "172048.167500", "172048.957500", "172049.745000", "172050.532500", "172051.320000", "172052.110000", "172052.897500", "172053.685000", "172054.472500", "172055.262500", "172056.050000", "172056.837500", "172057.627500", "172058.415000", "172059.202500", "172059.990000", "172100.780000", "172101.567500", "172102.355000", "172103.142500", "172103.932500", "172104.720000", "172105.507500", "172106.295000", "172107.085000", "172107.872500", "172108.660000", "172109.447500", "172110.237500", "172111.025000", "172111.812500", "172112.600000", "172113.390000", "172114.177500", "172114.965000", "172115.755000", "172116.542500", "172117.330000", "172118.117500", "172118.907500", "172119.695000", "172120.482500", "172121.270000", "172122.060000", "172122.847500", "172123.635000", "172124.422500", "172125.212500", "172126.000000", "172126.787500", "172127.575000", "172128.365000", "172129.152500", "172129.940000", "172130.730000", "172131.517500", "172132.305000", "172133.092500", "172133.882500", "172134.670000", "172135.457500", "172136.245000", "172137.035000", "172137.822500", "172138.610000", "172139.397500", "172140.187500", "172140.975000", "172141.762500", "172142.550000", "172143.340000", "172144.127500", "172144.915000", "172145.702500", "172146.492500", "172147.280000", "172148.067500", "172148.857500", "172149.645000", "172150.432500", "172151.220000", "172152.010000", "172152.797500", "172153.585000", "172154.372500", "172155.162500", "172155.950000", "172156.737500", "172157.525000", "172158.315000", "172159.102500", "172159.890000", "172200.677500", "172201.467500", "172202.255000", "172203.042500", "172203.830000", "172204.620000", "172205.407500", "172206.195000", "172206.985000", "172207.772500", "172208.560000", "172209.347500", "172210.137500", "172210.925000", "172211.712500", "172212.500000", "172213.290000", "172214.077500", "172214.865000", "172215.652500", "172216.442500", "172217.230000", "172218.017500", "172218.805000", "172219.595000", "172220.382500", "172221.170000", "172221.957500", "172222.747500", "172223.535000", "172224.322500", "172225.112500", "172225.900000", "172226.687500", "172227.475000", "172228.265000", "172229.052500", "172229.840000", "172230.627500", "172231.417500", "172232.205000", "172232.992500", "172233.780000", "172234.570000", "172235.357500", "172236.145000", "172236.932500", "172237.722500", "172238.510000", "172239.297500", "172240.085000", "172240.875000", "172241.662500", "172242.450000", "172243.240000", "172244.027500", "172244.815000", "172245.602500", "172246.392500", "172247.180000", "172247.967500", "172248.755000", "172249.545000", "172250.332500", "172251.120000", "172251.907500", "172252.697500", "172253.485000", "172254.272500", "172255.060000", "172255.850000", "172256.637500", "172257.425000", "172258.212500", "172259.002500", "172259.790000", "172300.577500", "172301.367500", "172302.155000", "172302.942500", "172303.730000", "172304.520000", "172305.307500", "172306.095000", "172306.882500", "172307.672500", "172308.460000", "172309.247500", "172310.035000", "172310.825000", "172311.612500", "172312.400000", "172313.187500", "172313.977500", "172314.765000", "172315.552500", "172316.340000", "172317.130000", "172317.917500", "172318.705000", "172319.495000", "172320.282500", "172321.070000", "172321.857500", "172322.647500", "172323.435000", "172324.222500", "172325.010000", "172325.800000", "172326.587500", "172327.375000", "172328.162500", "172328.952500", "172329.740000", "172330.527500", "172331.315000", "172332.105000", "172332.892500", "172333.680000", "172334.467500", "172335.257500", "172336.045000", "172336.832500", "172337.622500", "172338.410000", "172339.197500", "172339.985000", "172340.775000", "172341.562500", "172342.350000", "172343.137500", "172343.927500", "172344.715000", "172345.502500", "172346.290000", "172347.080000", "172347.867500", "172348.655000", "172349.442500", "172350.232500", "172351.020000", "172351.807500", "172352.595000", "172353.385000", "172354.172500", "172354.960000", "172355.750000", "172356.537500", "172357.325000", "172358.112500", "172358.902500", "172359.690000", "172400.477500", "172401.265000", "172402.055000", "172402.842500", "172403.630000", "172404.417500", "172405.207500", "172405.995000", "172406.782500", "172407.570000", "172408.360000", "172409.147500", "172409.935000", "172410.722500", "172411.512500", "172412.300000", "172413.087500", "172413.877500", "172414.665000", "172415.452500", "172416.240000", "172417.030000", "172417.817500", "172418.605000", "172419.392500", "172420.182500", "172420.970000", "172421.757500", "172422.545000", "172423.335000", "172424.122500", "172424.910000", "172425.697500", "172426.487500", "172427.275000", "172428.062500", "172428.850000", "172429.640000", "172430.427500", "172431.215000", "172432.005000", "172432.792500", "172433.580000", "172434.367500", "172435.157500", "172435.945000", "172436.732500", "172437.520000", "172438.310000", "172439.097500", "172439.885000", "172440.672500", "172441.462500", "172442.250000", "172443.037500", "172443.825000", "172444.615000", "172445.402500", "172446.190000", "172446.980000", "172447.767500", "172448.555000", "172449.342500", "172450.132500", "172450.920000", "172451.707500", "172452.495000", "172453.285000", "172454.072500", "172454.860000", "172455.647500", "172456.437500", "172457.225000", "172458.012500", "172458.800000", "172459.590000", "172500.377500", "172501.165000", "172501.952500", "172502.742500", "172503.530000", "172504.317500", "172505.107500", "172505.895000", "172506.682500", "172507.470000", "172508.260000", "172509.047500", "172509.835000", "172510.622500", "172511.412500", "172512.200000", "172512.987500", "172513.775000", "172514.565000", "172515.352500", "172516.140000", "172516.927500", "172517.717500", "172518.505000", "172519.292500", "172520.080000", "172520.870000", "172521.657500", "172522.445000", "172523.235000", "172524.022500", "172524.810000", "172525.597500", "172526.387500", "172527.175000", "172527.962500", "172528.750000", "172529.540000", "172530.327500", "172531.115000", "172531.902500", "172532.692500", "172533.480000", "172534.267500", "172535.055000", "172535.845000"],
      "ContentTime": ["171824.062000", "171824.062000", "171824.062000", "171824.078000", "171824.078000", "171824.078000", "171824.078000", "171824.078000", "171824.093000", "171824.093000", "171824.093000", "171824.093000", "171824.093000", "171824.093000", "171824.093000", "171824.109000", "171824.109000", "171824.109000", "171824.109000", "171824.125000", "171824.125000", "171824.125000", "171824.125000", "171824.125000", "171824.140000", "171824.140000", "171824.140000", "171824.140000", "171824.140000", "171844.046000", "171844.046000", "171844.046000", "171844.062000", "171844.062000", "171844.062000", "171844.062000", "171844.062000", "171844.078000", "171844.078000", "171844.078000", "171844.078000", "171844.078000", "171844.078000", "171844.078000", "171844.093000", "171844.093000", "171844.109000", "171844.109000", "171844.109000", "171844.109000", "171844.109000", "171844.109000", "171844.125000", "171844.125000", "171844.125000", "171904.046000", "171904.046000", "171904.046000", "171904.046000", "171904.046000", "171904.062000", "171904.062000", "171904.078000", "171904.078000", "171904.078000", "171904.078000", "171904.078000", "171904.078000", "171904.078000", "171904.093000", "171904.093000", "171904.093000", "171904.093000", "171904.093000", "171904.109000", "171904.109000", "171904.125000", "171904.125000", "171904.125000", "171904.125000", "171924.046000", "171924.046000", "171924.046000", "171924.046000", "171924.046000", "171924.046000", "171924.046000", "171924.062000", "171924.062000", "171924.062000", "171924.062000", "171924.078000", "171924.078000", "171924.078000", "171924.078000", "171924.078000", "171924.078000", "171924.078000", "171924.093000", "171924.093000", "171924.093000", "171924.093000", "171924.093000", "171924.093000", "171924.109000", "171924.109000", "171944.046000", "171944.046000", "171944.046000", "171944.046000", "171944.046000", "171944.046000", "171944.046000", "171944.062000", "171944.062000", "171944.062000", "171944.062000", "171944.062000", "171944.078000", "171944.078000", "171944.078000", "171944.078000", "171944.078000", "171944.078000", "171944.078000", "171944.093000", "171944.093000", "171944.093000", "171944.093000", "171944.109000", "171944.109000", "172004.046000", "172004.046000", "172004.046000", "172004.046000", "172004.046000", "172004.046000", "172004.046000", "172004.062000", "172004.062000", "172004.062000", "172004.062000", "172004.062000", "172004.062000", "172004.062000", "172004.078000", "172004.078000", "172004.093000", "172004.093000", "172004.093000", "172004.093000", "172004.093000", "172004.109000", "172004.109000", "172004.109000", "172004.109000", "172004.109000", "172024.046000", "172024.046000", "172024.046000", "172024.046000", "172024.046000", "172024.046000", "172024.062000", "172024.062000", "172024.062000", "172024.062000", "172024.062000", "172024.062000", "172024.062000", "172024.078000", "172024.078000", "172024.078000", "172024.078000", "172024.078000", "172024.078000", "172024.093000", "172024.093000", "172024.093000", "172024.093000", "172024.093000", "172024.109000", "172044.046000", "172044.046000", "172044.046000", "172044.046000", "172044.046000", "172044.046000", "172044.062000", "172044.062000", "172044.062000", "172044.062000", "172044.078000", "172044.078000", "172044.078000", "172044.078000", "172044.078000", "172044.078000", "172044.078000", "172044.093000", "172044.093000", "172044.093000", "172044.093000", "172044.093000", "172044.109000", "172044.109000", "172044.109000", "172044.109000", "172104.046000", "172104.046000", "172104.046000", "172104.046000", "172104.046000", "172104.046000", "172104.046000", "172104.062000", "172104.062000", "172104.062000", "172104.062000", "172104.078000", "172104.078000", "172104.078000", "172104.078000", "172104.078000", "172104.078000", "172104.078000", "172104.093000", "172104.093000", "172104.093000", "172104.093000", "172104.093000", "172104.093000", "172104.093000", "172124.046000", "172124.046000", "172124.046000", "172124.046000", "172124.046000", "172124.046000", "172124.046000", "172124.062000", "172124.062000", "172124.062000", "172124.062000", "172124.062000", "172124.062000", "172124.078000", "172124.078000", "172124.078000", "172124.078000", "172124.078000", "172124.093000", "172124.093000", "172124.093000", "172124.093000", "172124.093000", "172124.093000", "172124.093000", "172124.109000", "172144.046000", "172144.046000", "172144.046000", "172144.046000", "172144.046000", "172144.062000", "172144.062000", "172144.062000", "172144.062000", "172144.062000", "172144.062000", "172144.062000", "172144.062000", "172144.078000", "172144.078000", "172144.078000", "172144.078000", "172144.093000", "172144.093000", "172144.093000", "172144.093000", "172144.093000", "172144.093000", "172144.109000", "172144.109000", "172204.046000", "172204.046000", "172204.046000", "172204.046000", "172204.062000", "172204.078000", "172204.078000", "172204.078000", "172204.078000", "172204.078000", "172204.093000", "172204.093000", "172204.093000", "172204.093000", "172204.093000", "172204.093000", "172204.093000", "172204.109000", "172204.109000", "172204.109000", "172204.125000", "172204.125000", "172204.125000", "172204.125000", "172204.125000", "172204.125000", "172224.046000", "172224.046000", "172224.046000", "172224.046000", "172224.046000", "172224.046000", "172224.046000", "172224.062000", "172224.062000", "172224.062000", "172224.062000", "172224.078000", "172224.078000", "172224.078000", "172224.078000", "172224.078000", "172224.093000", "172224.093000", "172224.093000", "172224.093000", "172224.093000", "172224.109000", "172224.109000", "172224.109000", "172224.125000", "172244.046000", "172244.046000", "172244.046000", "172244.046000", "172244.046000", "172244.062000", "172244.062000", "172244.062000", "172244.062000", "172244.062000", "172244.062000", "172244.078000", "172244.078000", "172244.078000", "172244.078000", "172244.093000", "172244.093000", "172244.093000", "172244.093000", "172244.093000", "172244.093000", "172244.093000", "172244.109000", "172244.109000", "172244.109000", "172304.046000", "172304.046000", "172304.046000", "172304.046000", "172304.046000", "172304.046000", "172304.046000", "172304.062000", "172304.062000", "172304.062000", "172304.062000", "172304.062000", "172304.062000", "172304.062000", "172304.078000", "172304.078000", "172304.078000", "172304.078000", "172304.078000", "172304.078000", "172304.093000", "172304.093000", "172304.093000", "172304.093000", "172304.093000", "172304.093000", "172324.046000", "172324.046000", "172324.046000", "172324.046000", "172324.062000", "172324.062000", "172324.062000", "172324.062000", "172324.062000", "172324.062000", "172324.078000", "172324.078000", "172324.078000", "172324.078000", "172324.078000", "172324.093000", "172324.093000", "172324.093000", "172324.109000", "172324.109000", "172324.109000", "172324.109000", "172324.125000", "172324.125000", "172324.125000", "172344.046000", "172344.046000", "172344.046000", "172344.046000", "172344.046000", "172344.046000", "172344.046000", "172344.062000", "172344.062000", "172344.062000", "172344.062000", "172344.078000", "172344.078000", "172344.078000", "172344.078000", "172344.093000", "172344.093000", "172344.093000", "172344.093000", "172344.109000", "172344.109000", "172344.125000", "172344.125000", "172344.125000", "172344.125000", "172344.125000", "172404.046000", "172404.046000", "172404.046000", "172404.046000", "172404.046000", "172404.046000", "172404.046000", "172404.062000", "172404.062000", "172404.062000", "172404.062000", "172404.078000", "172404.078000", "172404.078000", "172404.078000", "172404.078000", "172404.078000", "172404.093000", "172404.093000", "172404.109000", "172404.109000", "172404.109000", "172404.125000", "172404.125000", "172404.125000", "172424.046000", "172424.046000", "172424.046000", "172424.046000", "172424.046000", "172424.046000", "172424.046000", "172424.062000", "172424.062000", "172424.062000", "172424.062000", "172424.062000", "172424.062000", "172424.062000", "172424.078000", "172424.078000", "172424.078000", "172424.078000", "172424.078000", "172424.093000", "172424.093000", "172424.093000", "172424.093000", "172424.093000", "172424.109000", "172424.109000", "172444.046000", "172444.046000", "172444.046000", "172444.046000", "172444.062000", "172444.062000", "172444.062000", "172444.062000", "172444.062000", "172444.062000", "172444.062000", "172444.078000", "172444.078000", "172444.078000", "172444.078000", "172444.078000", "172444.078000", "172444.078000", "172444.093000", "172444.109000", "172444.109000", "172444.109000", "172444.109000", "172444.109000", "172444.109000", "172504.046000", "172504.046000", "172504.046000", "172504.046000", "172504.046000", "172504.062000", "172504.062000", "172504.062000", "172504.062000", "172504.062000", "172504.062000", "172504.078000", "172504.078000", "172504.078000", "172504.078000", "172504.078000", "172504.093000", "172504.093000", "172504.093000", "172504.109000", "172504.109000", "172504.109000", "172504.109000", "172504.109000", "172504.125000", "172504.125000", "172524.046000", "172524.046000", "172524.046000", "172524.046000", "172524.046000", "172524.046000", "172524.046000", "172524.062000", "172524.062000", "172524.062000", "172524.062000", "172524.062000", "172524.078000", "172524.078000", "172524.078000", "172524.078000", "172524.078000", "172524.093000", "172524.093000", "172524.093000", "172524.093000", "172524.093000", "172524.093000", "172524.109000", "172524.109000", "172536.859000", "172536.859000", "172536.859000", "172536.859000", "172536.875000", "172536.875000", "172536.875000", "172536.875000", "172536.875000", "172536.875000", "172536.890000", "172536.890000", "172536.890000", "172536.890000", "172536.890000", "172536.906000", "172536.906000"],
      "DataSetTrailingPadding": [
        "\u0000\u0000\u0000\u0000\u0000\u0000\u0000\u0000\u0000\u0000\u0000\u0000\u0000\u0000\u0000\u0000\u0000\u0000\u0000\u0000\u0000\u0000\u0000\u0000\u0000\u0000\u0000\u0000\u0000\u0000\u0000\u0000\u0000\u0000\u0000\u0000\u0000\u0000\u0000\u0000\u0000\u0000\u0000\u0000\u0000\u0000\u0000\u0000\u0000\u0000\u0000\u0000\u0000\u0000\u0000\u0000\u0000\u0000\u0000\u0000\u0000\u0000\u0000\u0000\u0000\u0000\u0000\u0000\u0000\u0000\u0000\u0000\u0000\u0000\u0000\u0000\u0000\u0000\u0000\u0000\u0000\u0000\u0000\u0000\u0000\u0000\u0000\u0000\u0000\u0000\u0000\u0000\u0000\u0000\u0000\u0000\u0000\u0000\u0000\u0000\u0000\u0000\u0000\u0000\u0000\u0000\u0000\u0000\u0000\u0000\u0000\u0000\u0000\u0000\u0000\u0000\u0000\u0000\u0000\u0000\u0000\u0000\u0000\u0000\u0000\u0000\u0000\u0000\u0000\u0000\u0000\u0000\u0000\u0000\u0000\u0000\u0000\u0000\u0000\u0000\u0000\u0000\u0000\u0000\u0000\u0000\u0000\u0000\u0000\u0000\u0000\u0000\u0000\u0000\u0000\u0000\u0000\u0000\u0000\u0000\u0000\u0000\u0000\u0000\u0000\u0000\u0000\u0000\u0000\u0000\u0000\u0000\u0000\u0000\u0000\u0000\u0000\u0000\u0000\u0000\u0000\u0000\u0000\u0000\u0000\u0000\u0000\u0000\u0000\u0000\u0000\u0000\u0000\u0000\u0000\u0000\u0000\u0000\u0000\u0000\u0000\u0000\u0000\u0000\u0000\u0000\u0000\u0000\u0000\u0000\u0000\u0000\u0000\u0000\u0000\u0000\u0000\u0000\u0000\u0000\u0000\u0000\u0000\u0000\u0000\u0000\u0000\u0000\u0000\u0000\u0000\u0000\u0000\u0000\u0000\u0000\u0000\u0000\u0000\u0000\u0000\u0000\u0000\u0000\u0000\u0000\u0000\u0000\u0000\u0000\u0000\u0000\u0000\u0000\u0000\u0000\u0000\u0000\u0000\u0000\u0000\u0000\u0000\u0000\u0000\u0000\u0000\u0000\u0000\u0000\u0000\u0000\u0000\u0000\u0000\u0000\u0000\u0000\u0000\u0000\u0000\u0000\u0000\u0000\u0000\u0000\u0000\u0000\u0000\u0000\u0000\u0000\u0000\u0000\u0000\u0000\u0000\u0000\u0000\u0000",
