{
  "AcquisitionMatrixPE": 104,
  "AcquisitionNumber": 1,
  "AcquisitionTime": "16:30:13.475000",
  "BandwidthPerPixelPhaseEncode": 13.935,
  "BaseResolution": 104,
  "CoilString": "C:HEA;HEP",
  "ConversionSoftware": "dcm2niix",
  "ConversionSoftwareVersion": "v1.0.20210317",
  "DerivedVendorReportedEchoSpacing": 0.000690017,
  "DeviceSerialNumber": "35450",
  "DwellTime": 2.5e-06,
  "EchoTime": 0.0348,
  "EffectiveEchoSpacing": 0.000690017,
  "FlipAngle": 55,
  "ImageComments": "Unaliased MB8/PE3 (remote)",
  "ImageOrientationPatientDICOM": [1, 2.00789e-06, 0.000228425, -1.51369e-08, 0.999962, -0.00872355],
  "ImageType": [
    "ORIGINAL",
    "PRIMARY",
    "M",
    "MB",
    "ND",
    "MOSAIC"
],
  "ImagingFrequency": 123.235,
  "InPlanePhaseEncodingDirectionDICOM": "COL",
  "InstitutionAddress": "Univeristy Ave. 197,Newark,North East,US,07102-1814",
  "InstitutionName": "RUBIC",
  "InstitutionalDepartmentName": "Department",
  "MRAcquisitionType": "2D",
  "MagneticFieldStrength": 3,
  "Manufacturer": "Siemens",
  "ManufacturersModelName": "TrioTim",
  "Modality": "MR",
  "MultibandAccelerationFactor": 8,
  "PartialFourier": 0.875,
  "PatientPosition": "HFS",
  "PercentPhaseFOV": 100,
  "PercentSampling": 100,
  "PhaseEncodingDirection": "j-",
  "PhaseEncodingSteps": 91,
  "PhaseResolution": 1,
  "PixelBandwidth": 1923,
  "ProcedureStepDescription": "Cole^Michael",
  "ProtocolName": "cmrr_mbep2d_bold_2mm_MB8_Rest",
  "PulseSequenceDetails": "%CustomerSeq%\\cmrr_mbep2d_bold",
  "ReceiveCoilName": "32Ch_Head",
  "ReconMatrixPE": 104,
  "RepetitionTime": 0.785,
  "SAR": 0.257116,
  "ScanOptions": "PFP\\FS",
  "ScanningSequence": "EP",
  "SequenceName": "epfid2d1_104",
  "SequenceVariant": "SK\\SS",
  "SeriesDescription": "cmrr_mbep2d_bold_2mm_MB8_Rest",
  "SeriesNumber": 9,
  "ShimSetting": [2010, -271, -7249, 536, -183, -176, -209, 364],
  "SliceThickness": 2,
  "SliceTiming": [0, 0.4375, 0.0875, 0.525, 0.175, 0.6125, 0.2625, 0.7, 0.35, 0, 0.4375, 0.0875, 0.525, 0.175, 0.6125, 0.2625, 0.7, 0.35, 0, 0.4375, 0.0875, 0.525, 0.175, 0.6125, 0.2625, 0.7, 0.35, 0, 0.4375, 0.0875, 0.525, 0.175, 0.6125, 0.2625, 0.7, 0.35, 0, 0.4375, 0.0875, 0.525, 0.175, 0.6125, 0.2625, 0.7, 0.35, 0, 0.4375, 0.0875, 0.525, 0.175, 0.6125, 0.2625, 0.7, 0.35, 0, 0.4375, 0.0875, 0.525, 0.175, 0.6125, 0.2625, 0.7, 0.35, 0, 0.4375, 0.0875, 0.525, 0.175, 0.6125, 0.2625, 0.7, 0.35],
  "SoftwareVersions": "syngo MR B19",
  "SpacingBetweenSlices": 2,
  "StationName": "MRC35450",
  "TaskName": "rest",
  "TotalReadoutTime": 0.0710717,
  "TxRefAmp": 460.323,
  "dcmmeta_affine": [
    [-2.0, -3.0273813678149963e-08, 0.00045686843805015087, 103.87020111083984],
    [-4.015785179944942e-06, 1.9999239444732666, -0.0174470916390419, -97.0390396118164],
    [0.00045685077202506363, 0.0174470916390419, 1.999923825263977, -94.84534454345703],
    [0.0, 0.0, 0.0, 1.0]
],
  "dcmmeta_reorient_transform": [
    [0.0, -1.0, 0.0, 103.0],
    [1.0, 0.0, 0.0, 0.0],
    [0.0, 0.0, 1.0, 0.0],
    [0.0, 0.0, 0.0, 1.0]
],
  "dcmmeta_shape": [104, 104, 72, 1070],
  "dcmmeta_slice_dim": 2,
  "dcmmeta_version": 0.6,
  "global": {
    "const": {
      "AcquisitionMatrix": [104, 0, 0, 104],
      "AngioFlag": "N",
      "BitsAllocated": 16,
      "BitsStored": 12,
      "Columns": 936,
      "EchoNumbers": 1,
      "EchoTime": 34.8,
      "EchoTrainLength": 1,
      "FlipAngle": 55.0,
      "HighBit": 11,
      "ImageOrientationPatient": [0.99999997390891, 2.007892612e-06, 0.00022842538633, -1.5136906e-08, 0.99996194915097, -0.0087235457355],
      "ImagePositionPatient": [-935.87016125484, -940.92313101081, -85.9803529367],
      "ImageType": [
        "ORIGINAL",
        "PRIMARY",
        "M",
        "MB",
        "ND",
        "MOSAIC"
],
      "ImagedNucleus": "1H",
      "ImagingFrequency": 123.234504,
      "InPlanePhaseEncodingDirection": "COL",
      "MRAcquisitionType": "2D",
      "MagneticFieldStrength": 3.0,
      "Manufacturer": "SIEMENS",
      "ManufacturerModelName": "TrioTim",
      "Modality": "MR",
      "NumberOfAverages": 1.0,
      "NumberOfPhaseEncodingSteps": 91,
      "PercentPhaseFieldOfView": 100.0,
      "PercentSampling": 100.0,
      "PerformedProcedureStepStartTime": "154737.875000",
      "PhotometricInterpretation": "MONOCHROME2",
      "PixelBandwidth": 1923.0,
      "PixelRepresentation": 0,
      "PixelSpacing": [2.0, 2.0],
      "ProtocolName": "cmrr_mbep2d_bold_2mm_MB8_Rest",
      "RepetitionTime": 785.0,
      "Rows": 936,
      "SAR": 0.25711634798349,
      "SamplesPerPixel": 1,
      "ScanOptions": [
        "PFP",
        "FS"
],
      "ScanningSequence": "EP",
      "SequenceName": "epfid2d1_104",
      "SequenceVariant": [
        "SK",
        "SS"
],
      "SeriesDescription": "cmrr_mbep2d_bold_2mm_MB8_Rest",
      "SeriesNumber": 9,
      "SeriesTime": "163032.265000",
      "SliceLocation": -93.971480056148,
      "SliceThickness": 2.0,
      "SmallestImagePixelValue": 0,
      "SoftwareVersions": "syngo MR B19",
      "SpacingBetweenSlices": 2.0000000210972,
      "SpecificCharacterSet": "ISO_IR 100",
      "StudyID": "1",
      "StudyTime": "154737.828000",
      "TransmitCoilName": "Body",
      "VariableFlipAngleFlag": "N",
      "WindowCenterWidthExplanation": "Algo1",
      "dBdt": 0.0},
    "slices": {}
  },
  "time": {
    "samples": {
      "AcquisitionNumber": [1, 2, 3, 4, 5, 6, 7, 8, 9, 10, 11, 12, 13, 14, 15, 16, 17, 18, 19, 20, 21, 22, 23, 24, 25, 26, 27, 28, 29, 30, 31, 32, 33, 34, 35, 36, 37, 38, 39, 40, 41, 42, 43, 44, 45, 46, 47, 48, 49, 50, 51, 52, 53, 54, 55, 56, 57, 58, 59, 60, 61, 62, 63, 64, 65, 66, 67, 68, 69, 70, 71, 72, 73, 74, 75, 76, 77, 78, 79, 80, 81, 82, 83, 84, 85, 86, 87, 88, 89, 90, 91, 92, 93, 94, 95, 96, 97, 98, 99, 100, 101, 102, 103, 104, 105, 106, 107, 108, 109, 110, 111, 112, 113, 114, 115, 116, 117, 118, 119, 120, 121, 122, 123, 124, 125, 126, 127, 128, 129, 130, 131, 132, 133, 134, 135, 136, 137, 138, 139, 140, 141, 142, 143, 144, 145, 146, 147, 148, 149, 150, 151, 152, 153, 154, 155, 156, 157, 158, 159, 160, 161, 162, 163, 164, 165, 166, 167, 168, 169, 170, 171, 172, 173, 174, 175, 176, 177, 178, 179, 180, 181, 182, 183, 184, 185, 186, 187, 188, 189, 190, 191, 192, 193, 194, 195, 196, 197, 198, 199, 200, 201, 202, 203, 204, 205, 206, 207, 208, 209, 210, 211, 212, 213, 214, 215, 216, 217, 218, 219, 220, 221, 222, 223, 224, 225, 226, 227, 228, 229, 230, 231, 232, 233, 234, 235, 236, 237, 238, 239, 240, 241, 242, 243, 244, 245, 246, 247, 248, 249, 250, 251, 252, 253, 254, 255, 256, 257, 258, 259, 260, 261, 262, 263, 264, 265, 266, 267, 268, 269, 270, 271, 272, 273, 274, 275, 276, 277, 278, 279, 280, 281, 282, 283, 284, 285, 286, 287, 288, 289, 290, 291, 292, 293, 294, 295, 296, 297, 298, 299, 300, 301, 302, 303, 304, 305, 306, 307, 308, 309, 310, 311, 312, 313, 314, 315, 316, 317, 318, 319, 320, 321, 322, 323, 324, 325, 326, 327, 328, 329, 330, 331, 332, 333, 334, 335, 336, 337, 338, 339, 340, 341, 342, 343, 344, 345, 346, 347, 348, 349, 350, 351, 352, 353, 354, 355, 356, 357, 358, 359, 360, 361, 362, 363, 364, 365, 366, 367, 368, 369, 370, 371, 372, 373, 374, 375, 376, 377, 378, 379, 380, 381, 382, 383, 384, 385, 386, 387, 388, 389, 390, 391, 392, 393, 394, 395, 396, 397, 398, 399, 400, 401, 402, 403, 404, 405, 406, 407, 408, 409, 410, 411, 412, 413, 414, 415, 416, 417, 418, 419, 420, 421, 422, 423, 424, 425, 426, 427, 428, 429, 430, 431, 432, 433, 434, 435, 436, 437, 438, 439, 440, 441, 442, 443, 444, 445, 446, 447, 448, 449, 450, 451, 452, 453, 454, 455, 456, 457, 458, 459, 460, 461, 462, 463, 464, 465, 466, 467, 468, 469, 470, 471, 472, 473, 474, 475, 476, 477, 478, 479, 480, 481, 482, 483, 484, 485, 486, 487, 488, 489, 490, 491, 492, 493, 494, 495, 496, 497, 498, 499, 500, 501, 502, 503, 504, 505, 506, 507, 508, 509, 510, 511, 512, 513, 514, 515, 516, 517, 518, 519, 520, 521, 522, 523, 524, 525, 526, 527, 528, 529, 530, 531, 532, 533, 534, 535, 536, 537, 538, 539, 540, 541, 542, 543, 544, 545, 546, 547, 548, 549, 550, 551, 552, 553, 554, 555, 556, 557, 558, 559, 560, 561, 562, 563, 564, 565, 566, 567, 568, 569, 570, 571, 572, 573, 574, 575, 576, 577, 578, 579, 580, 581, 582, 583, 584, 585, 586, 587, 588, 589, 590, 591, 592, 593, 594, 595, 596, 597, 598, 599, 600, 601, 602, 603, 604, 605, 606, 607, 608, 609, 610, 611, 612, 613, 614, 615, 616, 617, 618, 619, 620, 621, 622, 623, 624, 625, 626, 627, 628, 629, 630, 631, 632, 633, 634, 635, 636, 637, 638, 639, 640, 641, 642, 643, 644, 645, 646, 647, 648, 649, 650, 651, 652, 653, 654, 655, 656, 657, 658, 659, 660, 661, 662, 663, 664, 665, 666, 667, 668, 669, 670, 671, 672, 673, 674, 675, 676, 677, 678, 679, 680, 681, 682, 683, 684, 685, 686, 687, 688, 689, 690, 691, 692, 693, 694, 695, 696, 697, 698, 699, 700, 701, 702, 703, 704, 705, 706, 707, 708, 709, 710, 711, 712, 713, 714, 715, 716, 717, 718, 719, 720, 721, 722, 723, 724, 725, 726, 727, 728, 729, 730, 731, 732, 733, 734, 735, 736, 737, 738, 739, 740, 741, 742, 743, 744, 745, 746, 747, 748, 749, 750, 751, 752, 753, 754, 755, 756, 757, 758, 759, 760, 761, 762, 763, 764, 765, 766, 767, 768, 769, 770, 771, 772, 773, 774, 775, 776, 777, 778, 779, 780, 781, 782, 783, 784, 785, 786, 787, 788, 789, 790, 791, 792, 793, 794, 795, 796, 797, 798, 799, 800, 801, 802, 803, 804, 805, 806, 807, 808, 809, 810, 811, 812, 813, 814, 815, 816, 817, 818, 819, 820, 821, 822, 823, 824, 825, 826, 827, 828, 829, 830, 831, 832, 833, 834, 835, 836, 837, 838, 839, 840, 841, 842, 843, 844, 845, 846, 847, 848, 849, 850, 851, 852, 853, 854, 855, 856, 857, 858, 859, 860, 861, 862, 863, 864, 865, 866, 867, 868, 869, 870, 871, 872, 873, 874, 875, 876, 877, 878, 879, 880, 881, 882, 883, 884, 885, 886, 887, 888, 889, 890, 891, 892, 893, 894, 895, 896, 897, 898, 899, 900, 901, 902, 903, 904, 905, 906, 907, 908, 909, 910, 911, 912, 913, 914, 915, 916, 917, 918, 919, 920, 921, 922, 923, 924, 925, 926, 927, 928, 929, 930, 931, 932, 933, 934, 935, 936, 937, 938, 939, 940, 941, 942, 943, 944, 945, 946, 947, 948, 949, 950, 951, 952, 953, 954, 955, 956, 957, 958, 959, 960, 961, 962, 963, 964, 965, 966, 967, 968, 969, 970, 971, 972, 973, 974, 975, 976, 977, 978, 979, 980, 981, 982, 983, 984, 985, 986, 987, 988, 989, 990, 991, 992, 993, 994, 995, 996, 997, 998, 999, 1000, 1001, 1002, 1003, 1004, 1005, 1006, 1007, 1008, 1009, 1010, 1011, 1012, 1013, 1014, 1015, 1016, 1017, 1018, 1019, 1020, 1021, 1022, 1023, 1024, 1025, 1026, 1027, 1028, 1029, 1030, 1031, 1032, 1033, 1034, 1035, 1036, 1037, 1038, 1039, 1040, 1041, 1042, 1043, 1044, 1045, 1046, 1047, 1048, 1049, 1050, 1051, 1052, 1053, 1054, 1055, 1056, 1057, 1058, 1059, 1060, 1061, 1062, 1063, 1064, 1065, 1066, 1067, 1068, 1069, 1070],
      "AcquisitionTime": ["163013.475000", "163014.262500", "163015.050000", "163015.840000", "163016.627500", "163017.415000", "163018.202500", "163018.992500", "163019.780000", "163020.567500", "163021.357500", "163022.145000", "163022.932500", "163023.720000", "163024.510000", "163025.297500", "163026.085000", "163026.872500", "163027.662500", "163028.450000", "163029.237500", "163030.025000", "163030.815000", "163031.602500", "163032.390000", "163033.177500", "163033.967500", "163034.755000", "163035.542500", "163036.332500", "163037.120000", "163037.907500", "163038.695000", "163039.485000", "163040.272500", "163041.060000", "163041.847500", "163042.637500", "163043.425000", "163044.212500", "163045.000000", "163045.790000", "163046.577500", "163047.365000", "163048.152500", "163048.942500", "163049.730000", "163050.517500", "163051.305000", "163052.095000", "163052.882500", "163053.670000", "163054.460000", "163055.247500", "163056.035000", "163056.822500", "163057.612500", "163058.400000", "163059.187500", "163059.975000", "163100.765000", "163101.552500", "163102.340000", "163103.127500", "163103.917500", "163104.705000", "163105.492500", "163106.280000", "163107.070000", "163107.857500", "163108.645000", "163109.432500", "163110.222500", "163111.010000", "163111.797500", "163112.587500", "163113.375000", "163114.162500", "163114.950000", "163115.740000", "163116.527500", "163117.315000", "163118.102500", "163118.892500", "163119.680000", "163120.467500", "163121.255000", "163122.045000", "163122.832500", "163123.620000", "163124.407500", "163125.197500", "163125.985000", "163126.772500", "163127.560000", "163128.350000", "163129.137500", "163129.925000", "163130.715000", "163131.502500", "163132.290000", "163133.077500", "163133.867500", "163134.655000", "163135.442500", "163136.230000", "163137.020000", "163137.807500", "163138.595000", "163139.382500", "163140.172500", "163140.960000", "163141.747500", "163142.535000", "163143.325000", "163144.112500", "163144.900000", "163145.687500", "163146.477500", "163147.265000", "163148.052500", "163148.842500", "163149.630000", "163150.417500", "163151.205000", "163151.995000", "163152.782500", "163153.570000", "163154.357500", "163155.147500", "163155.935000", "163156.722500", "163157.510000", "163158.300000", "163159.087500", "163159.875000", "163200.662500", "163201.452500", "163202.240000", "163203.027500", "163203.815000", "163204.605000", "163205.392500", "163206.180000", "163206.970000", "163207.757500", "163208.545000", "163209.332500", "163210.122500", "163210.910000", "163211.697500", "163212.485000", "163213.275000", "163214.062500", "163214.850000", "163215.637500", "163216.427500", "163217.215000", "163218.002500", "163218.790000", "163219.580000", "163220.367500", "163221.155000", "163221.942500", "163222.732500", "163223.520000", "163224.307500", "163225.097500", "163225.885000", "163226.672500", "163227.460000", "163228.250000", "163229.037500", "163229.825000", "163230.612500", "163231.402500", "163232.190000", "163232.977500", "163233.765000", "163234.555000", "163235.342500", "163236.130000", "163236.917500", "163237.707500", "163238.495000", "163239.282500", "163240.070000", "163240.860000", "163241.647500", "163242.435000", "163243.225000", "163244.012500", "163244.800000", "163245.587500", "163246.377500", "163247.165000", "163247.952500", "163248.740000", "163249.530000", "163250.317500", "163251.105000", "163251.892500", "163252.682500", "163253.470000", "163254.257500", "163255.045000", "163255.835000", "163256.622500", "163257.410000", "163258.197500", "163258.987500", "163259.775000", "163300.562500", "163301.352500", "163302.140000", "163302.927500", "163303.715000", "163304.505000", "163305.292500", "163306.080000", "163306.867500", "163307.657500", "163308.445000", "163309.232500", "163310.020000", "163310.810000", "163311.597500", "163312.385000", "163313.172500", "163313.962500", "163314.750000", "163315.537500", "163316.325000", "163317.115000", "163317.902500", "163318.690000", "163319.480000", "163320.267500", "163321.055000", "163321.842500", "163322.632500", "163323.420000", "163324.207500", "163324.995000", "163325.785000", "163326.572500", "163327.360000", "163328.147500", "163328.937500", "163329.725000", "163330.512500", "163331.300000", "163332.090000", "163332.877500", "163333.665000", "163334.452500", "163335.242500", "163336.030000", "163336.817500", "163337.607500", "163338.395000", "163339.182500", "163339.970000", "163340.760000", "163341.547500", "163342.335000", "163343.122500", "163343.912500", "163344.700000", "163345.487500", "163346.275000", "163347.065000", "163347.852500", "163348.640000", "163349.427500", "163350.217500", "163351.005000", "163351.792500", "163352.582500", "163353.370000", "163354.157500", "163354.945000", "163355.735000", "163356.522500", "163357.310000", "163358.097500", "163358.887500", "163359.675000", "163400.462500", "163401.250000", "163402.040000", "163402.827500", "163403.615000", "163404.402500", "163405.192500", "163405.980000", "163406.767500", "163407.555000", "163408.345000", "163409.132500", "163409.920000", "163410.710000", "163411.497500", "163412.285000", "163413.072500", "163413.862500", "163414.650000", "163415.437500", "163416.225000", "163417.015000", "163417.802500", "163418.590000", "163419.377500", "163420.167500", "163420.955000", "163421.742500", "163422.530000", "163423.320000", "163424.107500", "163424.895000", "163425.682500", "163426.472500", "163427.260000", "163428.047500", "163428.837500", "163429.625000", "163430.412500", "163431.200000", "163431.990000", "163432.777500", "163433.565000", "163434.352500", "163435.142500", "163435.930000", "163436.717500", "163437.505000", "163438.295000", "163439.082500", "163439.870000", "163440.657500", "163441.447500", "163442.235000", "163443.022500", "163443.810000", "163444.600000", "163445.387500", "163446.175000", "163446.965000", "163447.752500", "163448.540000", "163449.327500", "163450.117500", "163450.905000", "163451.692500", "163452.480000", "163453.270000", "163454.057500", "163454.845000", "163455.632500", "163456.422500", "163457.210000", "163457.997500", "163458.785000", "163459.575000", "163500.362500", "163501.150000", "163501.937500", "163502.727500", "163503.515000", "163504.302500", "163505.092500", "163505.880000", "163506.667500", "163507.455000", "163508.245000", "163509.032500", "163509.820000", "163510.607500", "163511.397500", "163512.185000", "163512.972500", "163513.760000", "163514.550000", "163515.337500", "163516.125000", "163516.912500", "163517.702500", "163518.490000", "163519.277500", "163520.065000", "163520.855000", "163521.642500", "163522.430000", "163523.220000", "163524.007500", "163524.795000", "163525.582500", "163526.372500", "163527.160000", "163527.947500", "163528.735000", "163529.525000", "163530.312500", "163531.100000", "163531.887500", "163532.677500", "163533.465000", "163534.252500", "163535.040000", "163535.830000", "163536.617500", "163537.405000", "163538.192500", "163538.982500", "163539.770000", "163540.557500", "163541.347500", "163542.135000", "163542.922500", "163543.710000", "163544.500000", "163545.287500", "163546.075000", "163546.862500", "163547.652500", "163548.440000", "163549.227500", "163550.015000", "163550.805000", "163551.592500", "163552.380000", "163553.167500", "163553.957500", "163554.745000", "163555.532500", "163556.320000", "163557.110000", "163557.897500", "163558.685000", "163559.475000", "163600.262500", "163601.050000", "163601.837500", "163602.627500", "163603.415000", "163604.202500", "163604.990000", "163605.780000", "163606.567500", "163607.355000", "163608.142500", "163608.932500", "163609.720000", "163610.507500", "163611.295000", "163612.085000", "163612.872500", "163613.660000", "163614.447500", "163615.237500", "163616.025000", "163616.812500", "163617.602500", "163618.390000", "163619.177500", "163619.965000", "163620.755000", "163621.542500", "163622.330000", "163623.117500", "163623.907500", "163624.695000", "163625.482500", "163626.270000", "163627.060000", "163627.847500", "163628.635000", "163629.422500", "163630.212500", "163631.000000", "163631.787500", "163632.575000", "163633.365000", "163634.152500", "163634.940000", "163635.730000", "163636.517500", "163637.305000", "163638.092500", "163638.882500", "163639.670000", "163640.457500", "163641.245000", "163642.035000", "163642.822500", "163643.610000", "163644.397500", "163645.187500", "163645.975000", "163646.762500", "163647.550000", "163648.340000", "163649.127500", "163649.915000", "163650.702500", "163651.492500", "163652.280000", "163653.067500", "163653.857500", "163654.645000", "163655.432500", "163656.220000", "163657.010000", "163657.797500", "163658.585000", "163659.372500", "163700.162500", "163700.950000", "163701.737500", "163702.525000", "163703.315000", "163704.102500", "163704.890000", "163705.677500", "163706.467500", "163707.255000", "163708.042500", "163708.832500", "163709.620000", "163710.407500", "163711.195000", "163711.985000", "163712.772500", "163713.560000", "163714.347500", "163715.137500", "163715.925000", "163716.712500", "163717.500000", "163718.290000", "163719.077500", "163719.865000", "163720.652500", "163721.442500", "163722.230000", "163723.017500", "163723.805000", "163724.595000", "163725.382500", "163726.170000", "163726.960000", "163727.747500", "163728.535000", "163729.322500", "163730.112500", "163730.900000", "163731.687500", "163732.475000", "163733.265000", "163734.052500", "163734.840000", "163735.627500", "163736.417500", "163737.205000", "163737.992500", "163738.780000", "163739.570000", "163740.357500", "163741.145000", "163741.932500", "163742.722500", "163743.510000", "163744.297500", "163745.087500", "163745.875000", "163746.662500", "163747.450000", "163748.240000", "163749.027500", "163749.815000", "163750.602500", "163751.392500", "163752.180000", "163752.967500", "163753.755000", "163754.545000", "163755.332500", "163756.120000", "163756.907500", "163757.697500", "163758.485000", "163759.272500", "163800.060000", "163800.850000", "163801.637500", "163802.425000", "163803.215000", "163804.002500", "163804.790000", "163805.577500", "163806.367500", "163807.155000", "163807.942500", "163808.730000", "163809.520000", "163810.307500", "163811.095000", "163811.882500", "163812.672500", "163813.460000", "163814.247500", "163815.035000", "163815.825000", "163816.612500", "163817.400000", "163818.187500", "163818.977500", "163819.765000", "163820.552500", "163821.342500", "163822.130000", "163822.917500", "163823.705000", "163824.495000", "163825.282500", "163826.070000", "163826.857500", "163827.647500", "163828.435000", "163829.222500", "163830.010000", "163830.800000", "163831.587500", "163832.375000", "163833.162500", "163833.952500", "163834.740000", "163835.527500", "163836.315000", "163837.105000", "163837.892500", "163838.680000", "163839.470000", "163840.257500", "163841.045000", "163841.832500", "163842.622500", "163843.410000", "163844.197500", "163844.985000", "163845.775000", "163846.562500", "163847.350000", "163848.137500", "163848.927500", "163849.715000", "163850.502500", "163851.290000", "163852.080000", "163852.867500", "163853.655000", "163854.442500", "163855.232500", "163856.020000", "163856.807500", "163857.597500", "163858.385000", "163859.172500", "163859.960000", "163900.750000", "163901.537500", "163902.325000", "163903.112500", "163903.902500", "163904.690000", "163905.477500", "163906.265000", "163907.055000", "163907.842500", "163908.630000", "163909.417500", "163910.207500", "163910.995000", "163911.782500", "163912.570000", "163913.360000", "163914.147500", "163914.935000", "163915.725000", "163916.512500", "163917.300000", "163918.087500", "163918.877500", "163919.665000", "163920.452500", "163921.240000", "163922.030000", "163922.817500", "163923.605000", "163924.392500", "163925.182500", "163925.970000", "163926.757500", "163927.545000", "163928.335000", "163929.122500", "163929.910000", "163930.697500", "163931.487500", "163932.275000", "163933.062500", "163933.852500", "163934.640000", "163935.427500", "163936.215000", "163937.005000", "163937.792500", "163938.580000", "163939.367500", "163940.157500", "163940.945000", "163941.732500", "163942.520000", "163943.310000", "163944.097500", "163944.885000", "163945.672500", "163946.462500", "163947.250000", "163948.037500", "163948.825000", "163949.615000", "163950.402500", "163951.190000", "163951.980000", "163952.767500", "163953.555000", "163954.342500", "163955.132500", "163955.920000", "163956.707500", "163957.495000", "163958.285000", "163959.072500", "163959.860000", "164000.647500", "164001.437500", "164002.225000", "164003.012500", "164003.800000", "164004.590000", "164005.377500", "164006.165000", "164006.952500", "164007.742500", "164008.530000", "164009.317500", "164010.107500", "164010.895000", "164011.682500", "164012.470000", "164013.260000", "164014.047500", "164014.835000", "164015.622500", "164016.412500", "164017.200000", "164017.987500", "164018.775000", "164019.565000", "164020.352500", "164021.140000", "164021.927500", "164022.717500", "164023.505000", "164024.292500", "164025.082500", "164025.870000", "164026.657500", "164027.445000", "164028.235000", "164029.022500", "164029.810000", "164030.597500", "164031.387500", "164032.175000", "164032.962500", "164033.750000", "164034.540000", "164035.327500", "164036.115000", "164036.902500", "164037.692500", "164038.480000", "164039.267500", "164040.055000", "164040.845000", "164041.632500", "164042.420000", "164043.210000", "164043.997500", "164044.785000", "164045.572500", "164046.362500", "164047.150000", "164047.937500", "164048.725000", "164049.515000", "164050.302500", "164051.090000", "164051.877500", "164052.667500", "164053.455000", "164054.242500", "164055.030000", "164055.820000", "164056.607500", "164057.395000", "164058.182500", "164058.972500", "164059.760000", "164100.547500", "164101.337500", "164102.125000", "164102.912500", "164103.700000", "164104.490000", "164105.277500", "164106.065000", "164106.852500", "164107.642500", "164108.430000", "164109.217500", "164110.005000", "164110.795000", "164111.582500", "164112.370000", "164113.157500", "164113.947500", "164114.735000", "164115.522500", "164116.310000", "164117.100000", "164117.887500", "164118.675000", "164119.465000", "164120.252500", "164121.040000", "164121.827500", "164122.617500", "164123.405000", "164124.192500", "164124.980000", "164125.770000", "164126.557500", "164127.345000", "164128.132500", "164128.922500", "164129.710000", "164130.497500", "164131.285000", "164132.075000", "164132.862500", "164133.650000", "164134.437500", "164135.227500", "164136.015000", "164136.802500", "164137.592500", "164138.380000", "164139.167500", "164139.955000", "164140.745000", "164141.532500", "164142.320000", "164143.107500", "164143.897500", "164144.685000", "164145.472500", "164146.260000", "164147.050000", "164147.837500", "164148.625000", "164149.412500", "164150.202500", "164150.990000", "164151.777500", "164152.565000", "164153.355000", "164154.142500", "164154.930000", "164155.720000", "164156.507500", "164157.295000", "164158.082500", "164158.872500", "164159.660000", "164200.447500", "164201.235000", "164202.025000", "164202.812500", "164203.600000", "164204.387500", "164205.177500", "164205.965000", "164206.752500", "164207.540000", "164208.330000", "164209.117500", "164209.905000", "164210.692500", "164211.482500", "164212.270000", "164213.057500", "164213.847500", "164214.635000", "164215.422500", "164216.210000", "164217.000000", "164217.787500", "164218.575000", "164219.362500", "164220.152500", "164220.940000", "164221.727500", "164222.515000", "164223.305000", "164224.092500", "164224.880000", "164225.667500", "164226.457500", "164227.245000", "164228.032500", "164228.820000", "164229.610000", "164230.397500", "164231.185000", "164231.975000", "164232.762500", "164233.550000", "164234.337500", "164235.127500", "164235.915000", "164236.702500", "164237.490000", "164238.280000", "164239.067500", "164239.855000", "164240.642500", "164241.432500", "164242.220000", "164243.007500", "164243.795000", "164244.585000", "164245.372500", "164246.160000", "164246.947500", "164247.737500", "164248.525000", "164249.312500", "164250.102500", "164250.890000", "164251.677500", "164252.465000", "164253.255000", "164254.042500", "164254.830000", "164255.617500", "164256.407500", "164257.195000", "164257.982500", "164258.770000", "164259.560000", "164300.347500", "164301.135000", "164301.922500", "164302.712500", "164303.500000", "164304.287500", "164305.075000", "164305.865000", "164306.652500", "164307.440000", "164308.230000", "164309.017500", "164309.805000", "164310.592500", "164311.382500", "164312.170000", "164312.957500", "164313.745000", "164314.535000", "164315.322500", "164316.110000", "164316.897500", "164317.687500", "164318.475000", "164319.262500", "164320.050000", "164320.840000", "164321.627500", "164322.415000", "164323.202500", "164323.992500", "164324.780000", "164325.567500", "164326.357500", "164327.145000", "164327.932500", "164328.720000", "164329.510000", "164330.297500", "164331.085000", "164331.872500", "164332.662500", "164333.450000", "164334.237500", "164335.025000", "164335.815000", "164336.602500", "164337.390000", "164338.177500", "164338.967500", "164339.755000", "164340.542500", "164341.332500", "164342.120000", "164342.907500", "164343.695000", "164344.485000", "164345.272500", "164346.060000", "164346.847500", "164347.637500", "164348.425000", "164349.212500", "164350.000000", "164350.790000", "164351.577500", "164352.365000", "164353.152500", "164353.942500", "164354.730000", "164355.517500", "164356.305000", "164357.095000", "164357.882500", "164358.670000", "164359.460000", "164400.247500", "164401.035000", "164401.822500", "164402.612500", "164403.400000", "164404.187500", "164404.975000", "164405.765000", "164406.552500", "164407.340000", "164408.127500", "164408.917500", "164409.705000", "164410.492500", "164411.280000", "164412.070000", "164412.857500", "164413.645000", "164414.432500", "164415.222500", "164416.010000"],
