{
  "AcquisitionMatrixPE": 104,
  "AcquisitionNumber": 1,
  "AcquisitionTime": "17:26:17.750000",
  "BandwidthPerPixelPhaseEncode": 13.935,
  "BaseResolution": 104,
  "CoilString": "C:HEA;HEP",
  "ConversionSoftware": "dcm2niix",
  "ConversionSoftwareVersion": "v1.0.20210317",
  "DerivedVendorReportedEchoSpacing": 0.000690017,
  "DeviceSerialNumber": "35450",
  "DwellTime": 2.5e-06,
  "EchoTime": 0.0348,
  "EffectiveEchoSpacing": 0.000690017,
  "FlipAngle": 55,
  "ImageComments": "Unaliased MB8/PE3 (remote)",
  "ImageOrientationPatientDICOM": [1, 2.00789e-06, 0.000228425, -1.51369e-08, 0.999962, -0.00872355],
  "ImageType": [
    "ORIGINAL",
    "PRIMARY",
    "M",
    "MB",
    "ND",
    "MOSAIC"
],
  "ImagingFrequency": 123.235,
  "InPlanePhaseEncodingDirectionDICOM": "COL",
  "InstitutionAddress": "Univeristy Ave. 197,Newark,North East,US,07102-1814",
  "InstitutionName": "RUBIC",
  "InstitutionalDepartmentName": "Department",
  "MRAcquisitionType": "2D",
  "MagneticFieldStrength": 3,
  "Manufacturer": "Siemens",
  "ManufacturersModelName": "TrioTim",
  "Modality": "MR",
  "MultibandAccelerationFactor": 8,
  "PartialFourier": 0.875,
  "PatientPosition": "HFS",
  "PercentPhaseFOV": 100,
  "PercentSampling": 100,
  "PhaseEncodingDirection": "j-",
  "PhaseEncodingSteps": 91,
  "PhaseResolution": 1,
  "PixelBandwidth": 1923,
  "ProcedureStepDescription": "Cole^Michael",
  "ProtocolName": "cmrr_mbep2d_bold_2mm_MB8_Task_8x",
  "PulseSequenceDetails": "%CustomerSeq%\\cmrr_mbep2d_bold",
  "ReceiveCoilName": "32Ch_Head",
  "ReconMatrixPE": 104,
  "RepetitionTime": 0.785,
  "SAR": 0.241499,
  "ScanOptions": "PFP\\FS",
  "ScanningSequence": "EP",
  "SequenceName": "epfid2d1_104",
  "SequenceVariant": "SK\\SS",
  "SeriesDescription": "cmrr_mbep2d_bold_2mm_MB8_Task_8x",
  "SeriesNumber": 21,
  "ShimSetting": [2010, -271, -7249, 536, -183, -176, -209, 364],
  "SliceThickness": 2,
  "SliceTiming": [0, 0.4375, 0.0875, 0.525, 0.175, 0.6125, 0.2625, 0.7, 0.35, 0, 0.4375, 0.0875, 0.525, 0.175, 0.6125, 0.2625, 0.7, 0.35, 0, 0.4375, 0.0875, 0.525, 0.175, 0.6125, 0.2625, 0.7, 0.35, 0, 0.4375, 0.0875, 0.525, 0.175, 0.6125, 0.2625, 0.7, 0.35, 0, 0.4375, 0.0875, 0.525, 0.175, 0.6125, 0.2625, 0.7, 0.35, 0, 0.4375, 0.0875, 0.525, 0.175, 0.6125, 0.2625, 0.7, 0.35, 0, 0.4375, 0.0875, 0.525, 0.175, 0.6125, 0.2625, 0.7, 0.35, 0, 0.4375, 0.0875, 0.525, 0.175, 0.6125, 0.2625, 0.7, 0.35],
  "SoftwareVersions": "syngo MR B19",
  "SpacingBetweenSlices": 2,
  "StationName": "MRC35450",
  "TaskName": "cpro",
  "TotalReadoutTime": 0.0710717,
  "TxRefAmp": 460.323,
  "dcmmeta_affine": [
    [-2.0, -3.0273813678149963e-08, 0.00045686843805015087, 103.87020111083984],
    [-4.015785179944942e-06, 1.9999239444732666, -0.0174470916390419, -97.0390396118164],
    [0.00045685077202506363, 0.0174470916390419, 1.999923825263977, -94.84534454345703],
    [0.0, 0.0, 0.0, 1.0]
],
  "dcmmeta_reorient_transform": [
    [0.0, -1.0, 0.0, 103.0],
    [1.0, 0.0, 0.0, 0.0],
    [0.0, 0.0, 1.0, 0.0],
    [0.0, 0.0, 0.0, 1.0]
],
  "dcmmeta_shape": [104, 104, 72, 581],
  "dcmmeta_slice_dim": 2,
  "dcmmeta_version": 0.6,
  "global": {
    "const": {
      "AcquisitionMatrix": [104, 0, 0, 104],
      "AngioFlag": "N",
      "BitsAllocated": 16,
      "BitsStored": 12,
      "Columns": 936,
      "EchoNumbers": 1,
      "EchoTime": 34.8,
      "EchoTrainLength": 1,
      "FlipAngle": 55.0,
      "HighBit": 11,
      "ImageOrientationPatient": [0.99999997390891, 2.007892612e-06, 0.00022842538633, -1.5136906e-08, 0.99996194915097, -0.0087235457355],
      "ImagePositionPatient": [-935.87016125484, -940.92313101081, -85.9803529367],
      "ImageType": [
        "ORIGINAL",
        "PRIMARY",
        "M",
        "MB",
        "ND",
        "MOSAIC"
],
      "ImagedNucleus": "1H",
      "ImagingFrequency": 123.234565,
      "InPlanePhaseEncodingDirection": "COL",
      "MRAcquisitionType": "2D",
      "MagneticFieldStrength": 3.0,
      "Manufacturer": "SIEMENS",
      "ManufacturerModelName": "TrioTim",
      "Modality": "MR",
      "NumberOfAverages": 1.0,
      "NumberOfPhaseEncodingSteps": 91,
      "PercentPhaseFieldOfView": 100.0,
      "PercentSampling": 100.0,
      "PerformedProcedureStepStartTime": "154737.875000",
      "PhotometricInterpretation": "MONOCHROME2",
      "PixelBandwidth": 1923.0,
      "PixelRepresentation": 0,
      "PixelSpacing": [2.0, 2.0],
      "ProtocolName": "cmrr_mbep2d_bold_2mm_MB8_Task_8x",
      "RepetitionTime": 785.0,
      "Rows": 936,
      "SAR": 0.24149931136604,
      "SamplesPerPixel": 1,
      "ScanOptions": [
        "PFP",
        "FS"
],
      "ScanningSequence": "EP",
      "SequenceName": "epfid2d1_104",
      "SequenceVariant": [
        "SK",
        "SS"
],
      "SeriesDescription": "cmrr_mbep2d_bold_2mm_MB8_Task_8x",
      "SeriesNumber": 21,
      "SeriesTime": "172652.265000",
      "SliceLocation": -93.971480056148,
      "SliceThickness": 2.0,
      "SmallestImagePixelValue": 0,
      "SoftwareVersions": "syngo MR B19",
      "SpacingBetweenSlices": 2.0000000210972,
      "SpecificCharacterSet": "ISO_IR 100",
      "StudyID": "1",
      "StudyTime": "154737.828000",
      "TransmitCoilName": "Body",
      "VariableFlipAngleFlag": "N",
      "WindowCenterWidthExplanation": "Algo1",
      "dBdt": 0.0},
    "slices": {}
  },
  "time": {
    "samples": {
      "AcquisitionNumber": [1, 2, 3, 4, 5, 6, 7, 8, 9, 10, 11, 12, 13, 14, 15, 16, 17, 18, 19, 20, 21, 22, 23, 24, 25, 26, 27, 28, 29, 30, 31, 32, 33, 34, 35, 36, 37, 38, 39, 40, 41, 42, 43, 44, 45, 46, 47, 48, 49, 50, 51, 52, 53, 54, 55, 56, 57, 58, 59, 60, 61, 62, 63, 64, 65, 66, 67, 68, 69, 70, 71, 72, 73, 74, 75, 76, 77, 78, 79, 80, 81, 82, 83, 84, 85, 86, 87, 88, 89, 90, 91, 92, 93, 94, 95, 96, 97, 98, 99, 100, 101, 102, 103, 104, 105, 106, 107, 108, 109, 110, 111, 112, 113, 114, 115, 116, 117, 118, 119, 120, 121, 122, 123, 124, 125, 126, 127, 128, 129, 130, 131, 132, 133, 134, 135, 136, 137, 138, 139, 140, 141, 142, 143, 144, 145, 146, 147, 148, 149, 150, 151, 152, 153, 154, 155, 156, 157, 158, 159, 160, 161, 162, 163, 164, 165, 166, 167, 168, 169, 170, 171, 172, 173, 174, 175, 176, 177, 178, 179, 180, 181, 182, 183, 184, 185, 186, 187, 188, 189, 190, 191, 192, 193, 194, 195, 196, 197, 198, 199, 200, 201, 202, 203, 204, 205, 206, 207, 208, 209, 210, 211, 212, 213, 214, 215, 216, 217, 218, 219, 220, 221, 222, 223, 224, 225, 226, 227, 228, 229, 230, 231, 232, 233, 234, 235, 236, 237, 238, 239, 240, 241, 242, 243, 244, 245, 246, 247, 248, 249, 250, 251, 252, 253, 254, 255, 256, 257, 258, 259, 260, 261, 262, 263, 264, 265, 266, 267, 268, 269, 270, 271, 272, 273, 274, 275, 276, 277, 278, 279, 280, 281, 282, 283, 284, 285, 286, 287, 288, 289, 290, 291, 292, 293, 294, 295, 296, 297, 298, 299, 300, 301, 302, 303, 304, 305, 306, 307, 308, 309, 310, 311, 312, 313, 314, 315, 316, 317, 318, 319, 320, 321, 322, 323, 324, 325, 326, 327, 328, 329, 330, 331, 332, 333, 334, 335, 336, 337, 338, 339, 340, 341, 342, 343, 344, 345, 346, 347, 348, 349, 350, 351, 352, 353, 354, 355, 356, 357, 358, 359, 360, 361, 362, 363, 364, 365, 366, 367, 368, 369, 370, 371, 372, 373, 374, 375, 376, 377, 378, 379, 380, 381, 382, 383, 384, 385, 386, 387, 388, 389, 390, 391, 392, 393, 394, 395, 396, 397, 398, 399, 400, 401, 402, 403, 404, 405, 406, 407, 408, 409, 410, 411, 412, 413, 414, 415, 416, 417, 418, 419, 420, 421, 422, 423, 424, 425, 426, 427, 428, 429, 430, 431, 432, 433, 434, 435, 436, 437, 438, 439, 440, 441, 442, 443, 444, 445, 446, 447, 448, 449, 450, 451, 452, 453, 454, 455, 456, 457, 458, 459, 460, 461, 462, 463, 464, 465, 466, 467, 468, 469, 470, 471, 472, 473, 474, 475, 476, 477, 478, 479, 480, 481, 482, 483, 484, 485, 486, 487, 488, 489, 490, 491, 492, 493, 494, 495, 496, 497, 498, 499, 500, 501, 502, 503, 504, 505, 506, 507, 508, 509, 510, 511, 512, 513, 514, 515, 516, 517, 518, 519, 520, 521, 522, 523, 524, 525, 526, 527, 528, 529, 530, 531, 532, 533, 534, 535, 536, 537, 538, 539, 540, 541, 542, 543, 544, 545, 546, 547, 548, 549, 550, 551, 552, 553, 554, 555, 556, 557, 558, 559, 560, 561, 562, 563, 564, 565, 566, 567, 568, 569, 570, 571, 572, 573, 574, 575, 576, 577, 578, 579, 580, 581],
      "AcquisitionTime": ["172617.750000", "172618.537500", "172619.325000", "172620.115000", "172620.902500", "172621.690000", "172622.477500", "172623.267500", "172624.055000", "172624.842500", "172625.632500", "172626.420000", "172627.207500", "172627.995000", "172628.785000", "172629.572500", "172630.360000", "172631.147500", "172631.937500", "172632.725000", "172633.512500", "172634.300000", "172635.090000", "172635.877500", "172636.665000", "172637.452500", "172638.242500", "172639.030000", "172639.817500", "172640.605000", "172641.395000", "172642.182500", "172642.970000", "172643.760000", "172644.547500", "172645.335000", "172646.122500", "172646.912500", "172647.700000", "172648.487500", "172649.275000", "172650.065000", "172650.852500", "172651.640000", "172652.427500", "172653.217500", "172654.005000", "172654.792500", "172655.580000", "172656.370000", "172657.157500", "172657.945000", "172658.732500", "172659.522500", "172700.310000", "172701.097500", "172701.887500", "172702.675000", "172703.462500", "172704.250000", "172705.040000", "172705.827500", "172706.615000", "172707.402500", "172708.192500", "172708.980000", "172709.767500", "172710.555000", "172711.345000", "172712.132500", "172712.920000", "172713.707500", "172714.497500", "172715.285000", "172716.072500", "172716.862500", "172717.650000", "172718.437500", "172719.225000", "172720.015000", "172720.802500", "172721.590000", "172722.377500", "172723.167500", "172723.955000", "172724.742500", "172725.530000", "172726.320000", "172727.107500", "172727.895000", "172728.682500", "172729.472500", "172730.260000", "172731.047500", "172731.835000", "172732.625000", "172733.412500", "172734.200000", "172734.990000", "172735.777500", "172736.565000", "172737.352500", "172738.142500", "172738.930000", "172739.717500", "172740.505000", "172741.295000", "172742.082500", "172742.870000", "172743.657500", "172744.447500", "172745.235000", "172746.022500", "172746.810000", "172747.600000", "172748.387500", "172749.175000", "172749.962500", "172750.752500", "172751.540000", "172752.327500", "172753.117500", "172753.905000", "172754.692500", "172755.480000", "172756.270000", "172757.057500", "172757.845000", "172758.632500", "172759.422500", "172800.210000", "172800.997500", "172801.785000", "172802.575000", "172803.362500", "172804.150000", "172804.937500", "172805.727500", "172806.515000", "172807.302500", "172808.090000", "172808.880000", "172809.667500", "172810.455000", "172811.245000", "172812.032500", "172812.820000", "172813.607500", "172814.397500", "172815.185000", "172815.972500", "172816.760000", "172817.550000", "172818.337500", "172819.125000", "172819.912500", "172820.702500", "172821.490000", "172822.277500", "172823.065000", "172823.855000", "172824.642500", "172825.430000", "172826.217500", "172827.007500", "172827.795000", "172828.582500", "172829.372500", "172830.160000", "172830.947500", "172831.735000", "172832.525000", "172833.312500", "172834.100000", "172834.887500", "172835.677500", "172836.465000", "172837.252500", "172838.040000", "172838.830000", "172839.617500", "172840.405000", "172841.192500", "172841.982500", "172842.770000", "172843.557500", "172844.345000", "172845.135000", "172845.922500", "172846.710000", "172847.500000", "172848.287500", "172849.075000", "172849.862500", "172850.652500", "172851.440000", "172852.227500", "172853.015000", "172853.805000", "172854.592500", "172855.380000", "172856.167500", "172856.957500", "172857.745000", "172858.532500", "172859.320000", "172900.110000", "172900.897500", "172901.685000", "172902.472500", "172903.262500", "172904.050000", "172904.837500", "172905.627500", "172906.415000", "172907.202500", "172907.990000", "172908.780000", "172909.567500", "172910.355000", "172911.142500", "172911.932500", "172912.720000", "172913.507500", "172914.295000", "172915.085000", "172915.872500", "172916.660000", "172917.447500", "172918.237500", "172919.025000", "172919.812500", "172920.600000", "172921.390000", "172922.177500", "172922.965000", "172923.755000", "172924.542500", "172925.330000", "172926.117500", "172926.907500", "172927.695000", "172928.482500", "172929.270000", "172930.060000", "172930.847500", "172931.635000", "172932.422500", "172933.212500", "172934.000000", "172934.787500", "172935.575000", "172936.365000", "172937.152500", "172937.940000", "172938.727500", "172939.517500", "172940.305000", "172941.092500", "172941.882500", "172942.670000", "172943.457500", "172944.245000", "172945.035000", "172945.822500", "172946.610000", "172947.397500", "172948.187500", "172948.975000", "172949.762500", "172950.550000", "172951.340000", "172952.127500", "172952.915000", "172953.702500", "172954.492500", "172955.280000", "172956.067500", "172956.855000", "172957.645000", "172958.432500", "172959.220000", "173000.010000", "173000.797500", "173001.585000", "173002.372500", "173003.162500", "173003.950000", "173004.737500", "173005.525000", "173006.315000", "173007.102500", "173007.890000", "173008.677500", "173009.467500", "173010.255000", "173011.042500", "173011.830000", "173012.620000", "173013.407500", "173014.195000", "173014.982500", "173015.772500", "173016.560000", "173017.347500", "173018.137500", "173018.925000", "173019.712500", "173020.500000", "173021.290000", "173022.077500", "173022.865000", "173023.652500", "173024.442500", "173025.230000", "173026.017500", "173026.805000", "173027.595000", "173028.382500", "173029.170000", "173029.957500", "173030.747500", "173031.535000", "173032.322500", "173033.112500", "173033.900000", "173034.687500", "173035.475000", "173036.265000", "173037.052500", "173037.840000", "173038.627500", "173039.417500", "173040.205000", "173040.992500", "173041.780000", "173042.570000", "173043.357500", "173044.145000", "173044.932500", "173045.722500", "173046.510000", "173047.297500", "173048.085000", "173048.875000", "173049.662500", "173050.450000", "173051.240000", "173052.027500", "173052.815000", "173053.602500", "173054.392500", "173055.180000", "173055.967500", "173056.755000", "173057.545000", "173058.332500", "173059.120000", "173059.907500", "173100.697500", "173101.485000", "173102.272500", "173103.060000", "173103.850000", "173104.637500", "173105.425000", "173106.212500", "173107.002500", "173107.790000", "173108.577500", "173109.367500", "173110.155000", "173110.942500", "173111.730000", "173112.520000", "173113.307500", "173114.095000", "173114.882500", "173115.672500", "173116.460000", "173117.247500", "173118.035000", "173118.825000", "173119.612500", "173120.400000", "173121.187500", "173121.977500", "173122.765000", "173123.552500", "173124.340000", "173125.130000", "173125.917500", "173126.705000", "173127.495000", "173128.282500", "173129.070000", "173129.857500", "173130.647500", "173131.435000", "173132.222500", "173133.010000", "173133.800000", "173134.587500", "173135.375000", "173136.162500", "173136.952500", "173137.740000", "173138.527500", "173139.315000", "173140.105000", "173140.892500", "173141.680000", "173142.467500", "173143.257500", "173144.045000", "173144.832500", "173145.622500", "173146.410000", "173147.197500", "173147.985000", "173148.775000", "173149.562500", "173150.350000", "173151.137500", "173151.927500", "173152.715000", "173153.502500", "173154.290000", "173155.080000", "173155.867500", "173156.655000", "173157.442500", "173158.232500", "173159.020000", "173159.807500", "173200.595000", "173201.385000", "173202.172500", "173202.960000", "173203.750000", "173204.537500", "173205.325000", "173206.112500", "173206.902500", "173207.690000", "173208.477500", "173209.265000", "173210.055000", "173210.842500", "173211.630000", "173212.417500", "173213.207500", "173213.995000", "173214.782500", "173215.570000", "173216.360000", "173217.147500", "173217.935000", "173218.722500", "173219.512500", "173220.300000", "173221.087500", "173221.877500", "173222.665000", "173223.452500", "173224.240000", "173225.030000", "173225.817500", "173226.605000", "173227.392500", "173228.182500", "173228.970000", "173229.757500", "173230.545000", "173231.335000", "173232.122500", "173232.910000", "173233.697500", "173234.487500", "173235.275000", "173236.062500", "173236.850000", "173237.640000", "173238.427500", "173239.215000", "173240.005000", "173240.792500", "173241.580000", "173242.367500", "173243.157500", "173243.945000", "173244.732500", "173245.520000", "173246.310000", "173247.097500", "173247.885000", "173248.672500", "173249.462500", "173250.250000", "173251.037500", "173251.825000", "173252.615000", "173253.402500", "173254.190000", "173254.977500", "173255.767500", "173256.555000", "173257.342500", "173258.132500", "173258.920000", "173259.707500", "173300.495000", "173301.285000", "173302.072500", "173302.860000", "173303.647500", "173304.437500", "173305.225000", "173306.012500", "173306.800000", "173307.590000", "173308.377500", "173309.165000", "173309.952500", "173310.742500", "173311.530000", "173312.317500", "173313.105000", "173313.895000", "173314.682500", "173315.470000", "173316.260000", "173317.047500", "173317.835000", "173318.622500", "173319.412500", "173320.200000", "173320.987500", "173321.775000", "173322.565000", "173323.352500", "173324.140000", "173324.927500", "173325.717500", "173326.505000", "173327.292500", "173328.080000", "173328.870000", "173329.657500", "173330.445000", "173331.232500", "173332.022500", "173332.810000", "173333.597500", "173334.387500", "173335.175000", "173335.962500", "173336.750000", "173337.540000", "173338.327500", "173339.115000", "173339.902500", "173340.692500", "173341.480000", "173342.267500", "173343.055000", "173343.845000", "173344.632500", "173345.420000", "173346.207500", "173346.997500", "173347.785000", "173348.572500", "173349.362500", "173350.150000", "173350.937500", "173351.725000", "173352.515000", "173353.302500", "173354.090000", "173354.877500"],
      "ContentTime": ["172652.265000", "172652.281000", "172652.281000", "172652.281000", "172652.281000", "172652.281000", "172652.281000", "172652.281000", "172652.296000", "172652.296000", "172652.296000", "172652.312000", "172652.312000", "172652.312000", "172652.312000", "172652.312000", "172652.312000", "172652.312000", "172652.328000", "172652.328000", "172652.328000", "172652.328000", "172652.343000", "172652.343000", "172652.343000", "172652.343000", "172652.359000", "172652.359000", "172652.359000", "172652.359000", "172652.359000", "172652.359000", "172652.359000", "172652.375000", "172652.375000", "172652.375000", "172652.375000", "172652.375000", "172652.375000", "172652.375000", "172712.250000", "172712.250000", "172712.250000", "172712.250000", "172712.250000", "172712.250000", "172712.250000", "172712.265000", "172712.265000", "172712.265000", "172712.265000", "172712.281000", "172712.281000", "172712.281000", "172712.281000", "172712.281000", "172712.281000", "172712.296000", "172712.296000", "172712.296000", "172712.296000", "172712.296000", "172712.296000", "172712.296000", "172712.312000", "172712.312000", "172732.250000", "172732.250000", "172732.250000", "172732.250000", "172732.250000", "172732.250000", "172732.250000", "172732.265000", "172732.265000", "172732.265000", "172732.265000", "172732.265000", "172732.265000", "172732.281000", "172732.281000", "172732.281000", "172732.296000", "172732.296000", "172732.296000", "172732.296000", "172732.296000", "172732.296000", "172732.296000", "172732.312000", "172732.312000", "172752.250000", "172752.250000", "172752.250000", "172752.250000", "172752.265000", "172752.265000", "172752.265000", "172752.265000", "172752.265000", "172752.265000", "172752.265000", "172752.281000", "172752.281000", "172752.281000", "172752.281000", "172752.281000", "172752.281000", "172752.281000", "172752.296000", "172752.296000", "172752.296000", "172752.312000", "172752.312000", "172752.312000", "172752.312000", "172752.312000", "172812.250000", "172812.250000", "172812.250000", "172812.250000", "172812.250000", "172812.250000", "172812.265000", "172812.265000", "172812.265000", "172812.265000", "172812.281000", "172812.281000", "172812.281000", "172812.281000", "172812.281000", "172812.281000", "172812.296000", "172812.296000", "172812.296000", "172812.296000", "172812.296000", "172812.296000", "172812.312000", "172812.312000", "172812.312000", "172832.250000", "172832.250000", "172832.250000", "172832.250000", "172832.250000", "172832.250000", "172832.250000", "172832.265000", "172832.265000", "172832.265000", "172832.281000", "172832.281000", "172832.281000", "172832.281000", "172832.281000", "172832.281000", "172832.281000", "172832.296000", "172832.296000", "172832.296000", "172832.296000", "172832.296000", "172832.312000", "172832.312000", "172832.312000", "172832.328000", "172852.250000", "172852.250000", "172852.250000", "172852.250000", "172852.250000", "172852.250000", "172852.250000", "172852.265000", "172852.265000", "172852.265000", "172852.265000", "172852.265000", "172852.265000", "172852.281000", "172852.281000", "172852.281000", "172852.281000", "172852.281000", "172852.296000", "172852.296000", "172852.296000", "172852.296000", "172852.296000", "172852.296000", "172852.296000", "172912.250000", "172912.250000", "172912.250000", "172912.250000", "172912.250000", "172912.250000", "172912.250000", "172912.265000", "172912.265000", "172912.265000", "172912.265000", "172912.265000", "172912.265000", "172912.265000", "172912.281000", "172912.281000", "172912.281000", "172912.281000", "172912.296000", "172912.296000", "172912.296000", "172912.296000", "172912.296000", "172912.312000", "172912.312000", "172932.250000", "172932.250000", "172932.250000", "172932.250000", "172932.250000", "172932.250000", "172932.265000", "172932.265000", "172932.265000", "172932.265000", "172932.265000", "172932.265000", "172932.265000", "172932.281000", "172932.281000", "172932.281000", "172932.281000", "172932.281000", "172932.281000", "172932.281000", "172932.296000", "172932.296000", "172932.296000", "172932.296000", "172932.312000", "172932.312000", "172952.250000", "172952.250000", "172952.250000", "172952.250000", "172952.250000", "172952.250000", "172952.265000", "172952.265000", "172952.265000", "172952.281000", "172952.281000", "172952.281000", "172952.281000", "172952.281000", "172952.281000", "172952.281000", "172952.296000", "172952.296000", "172952.296000", "172952.296000", "172952.296000", "172952.312000", "172952.312000", "172952.312000", "172952.312000", "173012.250000", "173012.250000", "173012.250000", "173012.250000", "173012.250000", "173012.250000", "173012.250000", "173012.265000", "173012.265000", "173012.265000", "173012.265000", "173012.265000", "173012.281000", "173012.281000", "173012.281000", "173012.281000", "173012.296000", "173012.296000", "173012.296000", "173012.296000", "173012.296000", "173012.296000", "173012.312000", "173012.312000", "173012.312000", "173012.312000", "173032.250000", "173032.250000", "173032.250000", "173032.250000", "173032.250000", "173032.250000", "173032.265000", "173032.265000", "173032.265000", "173032.265000", "173032.265000", "173032.265000", "173032.265000", "173032.281000", "173032.281000", "173032.281000", "173032.281000", "173032.296000", "173032.296000", "173032.296000", "173032.296000", "173032.296000", "173032.312000", "173032.312000", "173032.312000", "173052.250000", "173052.250000", "173052.250000", "173052.265000", "173052.265000", "173052.265000", "173052.265000", "173052.265000", "173052.265000", "173052.265000", "173052.281000", "173052.281000", "173052.281000", "173052.281000", "173052.281000", "173052.296000", "173052.296000", "173052.296000", "173052.296000", "173052.312000", "173052.312000", "173052.312000", "173052.312000", "173052.312000", "173052.312000", "173052.328000", "173112.250000", "173112.250000", "173112.250000", "173112.250000", "173112.250000", "173112.250000", "173112.250000", "173112.281000", "173112.281000", "173112.281000", "173112.281000", "173112.281000", "173112.281000", "173112.296000", "173112.296000", "173112.296000", "173112.296000", "173112.296000", "173112.312000", "173112.312000", "173112.312000", "173112.312000", "173112.312000", "173112.328000", "173112.328000", "173132.250000", "173132.250000", "173132.250000", "173132.250000", "173132.250000", "173132.250000", "173132.265000", "173132.265000", "173132.265000", "173132.265000", "173132.265000", "173132.281000", "173132.281000", "173132.281000", "173132.281000", "173132.281000", "173132.281000", "173132.296000", "173132.296000", "173132.296000", "173132.296000", "173132.296000", "173132.296000", "173132.296000", "173132.312000", "173132.312000", "173152.250000", "173152.250000", "173152.250000", "173152.250000", "173152.250000", "173152.250000", "173152.250000", "173152.265000", "173152.265000", "173152.265000", "173152.265000", "173152.265000", "173152.265000", "173152.265000", "173152.281000", "173152.281000", "173152.296000", "173152.296000", "173152.296000", "173152.296000", "173152.296000", "173152.296000", "173152.296000", "173152.312000", "173152.312000", "173212.250000", "173212.250000", "173212.250000", "173212.265000", "173212.265000", "173212.265000", "173212.265000", "173212.265000", "173212.265000", "173212.281000", "173212.281000", "173212.281000", "173212.281000", "173212.281000", "173212.296000", "173212.296000", "173212.296000", "173212.296000", "173212.312000", "173212.312000", "173212.312000", "173212.312000", "173212.312000", "173212.312000", "173212.312000", "173212.328000", "173232.250000", "173232.250000", "173232.250000", "173232.250000", "173232.250000", "173232.265000", "173232.265000", "173232.265000", "173232.265000", "173232.265000", "173232.281000", "173232.281000", "173232.281000", "173232.281000", "173232.281000", "173232.281000", "173232.281000", "173232.296000", "173232.296000", "173232.296000", "173232.296000", "173232.296000", "173232.312000", "173232.312000", "173232.312000", "173252.250000", "173252.250000", "173252.250000", "173252.250000", "173252.250000", "173252.250000", "173252.250000", "173252.265000", "173252.265000", "173252.265000", "173252.265000", "173252.281000", "173252.281000", "173252.281000", "173252.281000", "173252.281000", "173252.281000", "173252.296000", "173252.296000", "173252.296000", "173252.296000", "173252.296000", "173252.296000", "173252.296000", "173252.312000", "173252.312000", "173312.250000", "173312.250000", "173312.250000", "173312.250000", "173312.250000", "173312.250000", "173312.250000", "173312.265000", "173312.265000", "173312.265000", "173312.265000", "173312.265000", "173312.281000", "173312.281000", "173312.281000", "173312.281000", "173312.296000", "173312.296000", "173312.296000", "173312.296000", "173312.312000", "173312.312000", "173312.312000", "173312.312000", "173312.312000", "173332.250000", "173332.250000", "173332.250000", "173332.250000", "173332.250000", "173332.250000", "173332.250000", "173332.265000", "173332.265000", "173332.265000", "173332.265000", "173332.265000", "173332.265000", "173332.265000", "173332.281000", "173332.281000", "173332.281000", "173332.281000", "173332.281000", "173332.296000", "173332.296000", "173332.296000", "173332.296000", "173332.296000", "173332.296000", "173332.296000", "173352.250000", "173352.250000", "173352.250000", "173352.265000", "173352.265000", "173352.265000", "173352.265000", "173352.265000", "173352.265000", "173352.265000", "173352.281000", "173352.281000", "173352.281000", "173352.281000", "173352.281000", "173352.281000", "173352.281000", "173352.296000", "173352.296000", "173352.312000", "173352.312000", "173352.312000", "173352.312000", "173352.328000", "173352.328000", "173356.437000", "173356.453000", "173356.453000", "173356.453000", "173356.453000", "173356.453000"],
      "DataSetTrailingPadding": [
        "\u0000\u0000\u0000\u0000\u0000\u0000\u0000\u0000\u0000\u0000\u0000\u0000\u0000\u0000\u0000\u0000\u0000\u0000\u0000\u0000\u0000\u0000\u0000\u0000\u0000\u0000\u0000\u0000\u0000\u0000\u0000\u0000\u0000\u0000\u0000\u0000\u0000\u0000\u0000\u0000\u0000\u0000\u0000\u0000\u0000\u0000\u0000\u0000\u0000\u0000\u0000\u0000\u0000\u0000\u0000\u0000\u0000\u0000\u0000\u0000\u0000\u0000\u0000\u0000\u0000\u0000\u0000\u0000\u0000\u0000\u0000\u0000\u0000\u0000\u0000\u0000\u0000\u0000\u0000\u0000\u0000\u0000\u0000\u0000\u0000\u0000\u0000\u0000\u0000\u0000\u0000\u0000\u0000\u0000\u0000\u0000\u0000\u0000\u0000\u0000\u0000\u0000\u0000\u0000\u0000\u0000\u0000\u0000\u0000\u0000\u0000\u0000\u0000\u0000\u0000\u0000\u0000\u0000\u0000\u0000\u0000\u0000\u0000\u0000\u0000\u0000\u0000\u0000\u0000\u0000\u0000\u0000\u0000\u0000\u0000\u0000\u0000\u0000\u0000\u0000\u0000\u0000\u0000\u0000\u0000\u0000\u0000\u0000\u0000\u0000\u0000\u0000\u0000\u0000\u0000\u0000\u0000\u0000\u0000\u0000\u0000\u0000\u0000\u0000\u0000\u0000\u0000\u0000\u0000\u0000\u0000\u0000\u0000\u0000\u0000\u0000\u0000\u0000\u0000\u0000\u0000\u0000\u0000\u0000\u0000\u0000\u0000\u0000\u0000\u0000\u0000\u0000\u0000\u0000\u0000\u0000\u0000\u0000\u0000\u0000\u0000\u0000\u0000\u0000\u0000\u0000\u0000\u0000\u0000\u0000\u0000\u0000\u0000\u0000\u0000\u0000\u0000\u0000\u0000\u0000\u0000\u0000\u0000\u0000\u0000\u0000\u0000\u0000\u0000\u0000\u0000\u0000\u0000\u0000\u0000\u0000\u0000\u0000\u0000\u0000\u0000\u0000\u0000\u0000\u0000\u0000\u0000\u0000\u0000\u0000\u0000\u0000\u0000\u0000\u0000\u0000\u0000\u0000\u0000\u0000\u0000\u0000\u0000\u0000\u0000\u0000\u0000\u0000\u0000\u0000\u0000\u0000\u0000\u0000\u0000\u0000\u0000\u0000\u0000\u0000\u0000\u0000\u0000\u0000\u0000\u0000\u0000\u0000\u0000\u0000\u0000\u0000\u0000\u0000\u0000\u0000\u0000\u0000\u0000\u0000",
