{
  "AcquisitionMatrixPE": 104,
  "AcquisitionNumber": 1,
  "AcquisitionTime": "17:34:29.697500",
  "BandwidthPerPixelPhaseEncode": 13.935,
  "BaseResolution": 104,
  "CoilString": "C:HEA;HEP",
  "ConversionSoftware": "dcm2niix",
  "ConversionSoftwareVersion": "v1.0.20210317",
  "DerivedVendorReportedEchoSpacing": 0.000690017,
  "DeviceSerialNumber": "35450",
  "DwellTime": 2.5e-06,
  "EchoTime": 0.0348,
  "EffectiveEchoSpacing": 0.000690017,
  "FlipAngle": 55,
  "ImageComments": "Unaliased MB8/PE3 (remote)",
  "ImageOrientationPatientDICOM": [1, 2.00789e-06, 0.000228425, -1.51369e-08, 0.999962, -0.00872355],
  "ImageType": [
    "ORIGINAL",
    "PRIMARY",
    "M",
    "MB",
    "ND",
    "MOSAIC"
],
  "ImagingFrequency": 123.235,
  "InPlanePhaseEncodingDirectionDICOM": "COL",
  "InstitutionAddress": "Univeristy Ave. 197,Newark,North East,US,07102-1814",
  "InstitutionName": "RUBIC",
  "InstitutionalDepartmentName": "Department",
  "MRAcquisitionType": "2D",
  "MagneticFieldStrength": 3,
  "Manufacturer": "Siemens",
  "ManufacturersModelName": "TrioTim",
  "Modality": "MR",
  "MultibandAccelerationFactor": 8,
  "PartialFourier": 0.875,
  "PatientPosition": "HFS",
  "PercentPhaseFOV": 100,
  "PercentSampling": 100,
  "PhaseEncodingDirection": "j-",
  "PhaseEncodingSteps": 91,
  "PhaseResolution": 1,
  "PixelBandwidth": 1923,
  "ProcedureStepDescription": "Cole^Michael",
  "ProtocolName": "cmrr_mbep2d_bold_2mm_MB8_Task_8x",
  "PulseSequenceDetails": "%CustomerSeq%\\cmrr_mbep2d_bold",
  "ReceiveCoilName": "32Ch_Head",
  "ReconMatrixPE": 104,
  "RepetitionTime": 0.785,
  "SAR": 0.241499,
  "ScanOptions": "PFP\\FS",
  "ScanningSequence": "EP",
  "SequenceName": "epfid2d1_104",
  "SequenceVariant": "SK\\SS",
  "SeriesDescription": "cmrr_mbep2d_bold_2mm_MB8_Task_8x",
  "SeriesNumber": 23,
  "ShimSetting": [2010, -271, -7249, 536, -183, -176, -209, 364],
  "SliceThickness": 2,
  "SliceTiming": [0, 0.4375, 0.0875, 0.525, 0.175, 0.6125, 0.2625, 0.7, 0.35, 0, 0.4375, 0.0875, 0.525, 0.175, 0.6125, 0.2625, 0.7, 0.35, 0, 0.4375, 0.0875, 0.525, 0.175, 0.6125, 0.2625, 0.7, 0.35, 0, 0.4375, 0.0875, 0.525, 0.175, 0.6125, 0.2625, 0.7, 0.35, 0, 0.4375, 0.0875, 0.525, 0.175, 0.6125, 0.2625, 0.7, 0.35, 0, 0.4375, 0.0875, 0.525, 0.175, 0.6125, 0.2625, 0.7, 0.35, 0, 0.4375, 0.0875, 0.525, 0.175, 0.6125, 0.2625, 0.7, 0.35, 0, 0.4375, 0.0875, 0.525, 0.175, 0.6125, 0.2625, 0.7, 0.35],
  "SoftwareVersions": "syngo MR B19",
  "SpacingBetweenSlices": 2,
  "StationName": "MRC35450",
  "TaskName": "cpro",
  "TotalReadoutTime": 0.0710717,
  "TxRefAmp": 460.323,
  "dcmmeta_affine": [
    [-2.0, -3.0273813678149963e-08, 0.00045686843805015087, 103.87020111083984],
    [-4.015785179944942e-06, 1.9999239444732666, -0.0174470916390419, -97.0390396118164],
    [0.00045685077202506363, 0.0174470916390419, 1.999923825263977, -94.84534454345703],
    [0.0, 0.0, 0.0, 1.0]
],
  "dcmmeta_reorient_transform": [
    [0.0, -1.0, 0.0, 103.0],
    [1.0, 0.0, 0.0, 0.0],
    [0.0, 0.0, 1.0, 0.0],
    [0.0, 0.0, 0.0, 1.0]
],
  "dcmmeta_shape": [104, 104, 72, 581],
  "dcmmeta_slice_dim": 2,
  "dcmmeta_version": 0.6,
  "global": {
    "const": {
      "AcquisitionMatrix": [104, 0, 0, 104],
      "AngioFlag": "N",
      "BitsAllocated": 16,
      "BitsStored": 12,
      "Columns": 936,
      "EchoNumbers": 1,
      "EchoTime": 34.8,
      "EchoTrainLength": 1,
      "FlipAngle": 55.0,
      "HighBit": 11,
      "ImageOrientationPatient": [0.99999997390891, 2.007892612e-06, 0.00022842538633, -1.5136906e-08, 0.99996194915097, -0.0087235457355],
      "ImagePositionPatient": [-935.87016125484, -940.92313101081, -85.9803529367],
      "ImageType": [
        "ORIGINAL",
        "PRIMARY",
        "M",
        "MB",
        "ND",
        "MOSAIC"
],
      "ImagedNucleus": "1H",
      "ImagingFrequency": 123.234565,
      "InPlanePhaseEncodingDirection": "COL",
      "MRAcquisitionType": "2D",
      "MagneticFieldStrength": 3.0,
      "Manufacturer": "SIEMENS",
      "ManufacturerModelName": "TrioTim",
      "Modality": "MR",
      "NumberOfAverages": 1.0,
      "NumberOfPhaseEncodingSteps": 91,
      "PercentPhaseFieldOfView": 100.0,
      "PercentSampling": 100.0,
      "PerformedProcedureStepStartTime": "154737.875000",
      "PhotometricInterpretation": "MONOCHROME2",
      "PixelBandwidth": 1923.0,
      "PixelRepresentation": 0,
      "PixelSpacing": [2.0, 2.0],
      "ProtocolName": "cmrr_mbep2d_bold_2mm_MB8_Task_8x",
      "RepetitionTime": 785.0,
      "Rows": 936,
      "SAR": 0.24149931136604,
      "SamplesPerPixel": 1,
      "ScanOptions": [
        "PFP",
        "FS"
],
      "ScanningSequence": "EP",
      "SequenceName": "epfid2d1_104",
      "SequenceVariant": [
        "SK",
        "SS"
],
      "SeriesDescription": "cmrr_mbep2d_bold_2mm_MB8_Task_8x",
      "SeriesNumber": 23,
      "SeriesTime": "173500.687000",
      "SliceLocation": -93.971480056148,
      "SliceThickness": 2.0,
      "SmallestImagePixelValue": 0,
      "SoftwareVersions": "syngo MR B19",
      "SpacingBetweenSlices": 2.0000000210972,
      "SpecificCharacterSet": "ISO_IR 100",
      "StudyID": "1",
      "StudyTime": "154737.828000",
      "TransmitCoilName": "Body",
      "VariableFlipAngleFlag": "N",
      "WindowCenterWidthExplanation": "Algo1",
      "dBdt": 0.0},
    "slices": {}
  },
  "time": {
    "samples": {
      "AcquisitionNumber": [1, 2, 3, 4, 5, 6, 7, 8, 9, 10, 11, 12, 13, 14, 15, 16, 17, 18, 19, 20, 21, 22, 23, 24, 25, 26, 27, 28, 29, 30, 31, 32, 33, 34, 35, 36, 37, 38, 39, 40, 41, 42, 43, 44, 45, 46, 47, 48, 49, 50, 51, 52, 53, 54, 55, 56, 57, 58, 59, 60, 61, 62, 63, 64, 65, 66, 67, 68, 69, 70, 71, 72, 73, 74, 75, 76, 77, 78, 79, 80, 81, 82, 83, 84, 85, 86, 87, 88, 89, 90, 91, 92, 93, 94, 95, 96, 97, 98, 99, 100, 101, 102, 103, 104, 105, 106, 107, 108, 109, 110, 111, 112, 113, 114, 115, 116, 117, 118, 119, 120, 121, 122, 123, 124, 125, 126, 127, 128, 129, 130, 131, 132, 133, 134, 135, 136, 137, 138, 139, 140, 141, 142, 143, 144, 145, 146, 147, 148, 149, 150, 151, 152, 153, 154, 155, 156, 157, 158, 159, 160, 161, 162, 163, 164, 165, 166, 167, 168, 169, 170, 171, 172, 173, 174, 175, 176, 177, 178, 179, 180, 181, 182, 183, 184, 185, 186, 187, 188, 189, 190, 191, 192, 193, 194, 195, 196, 197, 198, 199, 200, 201, 202, 203, 204, 205, 206, 207, 208, 209, 210, 211, 212, 213, 214, 215, 216, 217, 218, 219, 220, 221, 222, 223, 224, 225, 226, 227, 228, 229, 230, 231, 232, 233, 234, 235, 236, 237, 238, 239, 240, 241, 242, 243, 244, 245, 246, 247, 248, 249, 250, 251, 252, 253, 254, 255, 256, 257, 258, 259, 260, 261, 262, 263, 264, 265, 266, 267, 268, 269, 270, 271, 272, 273, 274, 275, 276, 277, 278, 279, 280, 281, 282, 283, 284, 285, 286, 287, 288, 289, 290, 291, 292, 293, 294, 295, 296, 297, 298, 299, 300, 301, 302, 303, 304, 305, 306, 307, 308, 309, 310, 311, 312, 313, 314, 315, 316, 317, 318, 319, 320, 321, 322, 323, 324, 325, 326, 327, 328, 329, 330, 331, 332, 333, 334, 335, 336, 337, 338, 339, 340, 341, 342, 343, 344, 345, 346, 347, 348, 349, 350, 351, 352, 353, 354, 355, 356, 357, 358, 359, 360, 361, 362, 363, 364, 365, 366, 367, 368, 369, 370, 371, 372, 373, 374, 375, 376, 377, 378, 379, 380, 381, 382, 383, 384, 385, 386, 387, 388, 389, 390, 391, 392, 393, 394, 395, 396, 397, 398, 399, 400, 401, 402, 403, 404, 405, 406, 407, 408, 409, 410, 411, 412, 413, 414, 415, 416, 417, 418, 419, 420, 421, 422, 423, 424, 425, 426, 427, 428, 429, 430, 431, 432, 433, 434, 435, 436, 437, 438, 439, 440, 441, 442, 443, 444, 445, 446, 447, 448, 449, 450, 451, 452, 453, 454, 455, 456, 457, 458, 459, 460, 461, 462, 463, 464, 465, 466, 467, 468, 469, 470, 471, 472, 473, 474, 475, 476, 477, 478, 479, 480, 481, 482, 483, 484, 485, 486, 487, 488, 489, 490, 491, 492, 493, 494, 495, 496, 497, 498, 499, 500, 501, 502, 503, 504, 505, 506, 507, 508, 509, 510, 511, 512, 513, 514, 515, 516, 517, 518, 519, 520, 521, 522, 523, 524, 525, 526, 527, 528, 529, 530, 531, 532, 533, 534, 535, 536, 537, 538, 539, 540, 541, 542, 543, 544, 545, 546, 547, 548, 549, 550, 551, 552, 553, 554, 555, 556, 557, 558, 559, 560, 561, 562, 563, 564, 565, 566, 567, 568, 569, 570, 571, 572, 573, 574, 575, 576, 577, 578, 579, 580, 581],
      "AcquisitionTime": ["173429.697500", "173430.485000", "173431.272500", "173432.060000", "173432.850000", "173433.637500", "173434.425000", "173435.212500", "173436.002500", "173436.790000", "173437.577500", "173438.365000", "173439.155000", "173439.942500", "173440.730000", "173441.517500", "173442.307500", "173443.095000", "173443.882500", "173444.672500", "173445.460000", "173446.247500", "173447.035000", "173447.825000", "173448.612500", "173449.400000", "173450.187500", "173450.977500", "173451.765000", "173452.552500", "173453.340000", "173454.130000", "173454.917500", "173455.705000", "173456.492500", "173457.282500", "173458.070000", "173458.857500", "173459.645000", "173500.435000", "173501.222500", "173502.010000", "173502.800000", "173503.587500", "173504.375000", "173505.162500", "173505.952500", "173506.740000", "173507.527500", "173508.315000", "173509.105000", "173509.892500", "173510.680000", "173511.467500", "173512.257500", "173513.045000", "173513.832500", "173514.620000", "173515.410000", "173516.197500", "173516.985000", "173517.772500", "173518.562500", "173519.350000", "173520.137500", "173520.927500", "173521.715000", "173522.502500", "173523.290000", "173524.080000", "173524.867500", "173525.655000", "173526.442500", "173527.232500", "173528.020000", "173528.807500", "173529.595000", "173530.385000", "173531.172500", "173531.960000", "173532.747500", "173533.537500", "173534.325000", "173535.112500", "173535.900000", "173536.690000", "173537.477500", "173538.265000", "173539.055000", "173539.842500", "173540.630000", "173541.417500", "173542.207500", "173542.995000", "173543.782500", "173544.570000", "173545.360000", "173546.147500", "173546.935000", "173547.722500", "173548.512500", "173549.300000", "173550.087500", "173550.875000", "173551.665000", "173552.452500", "173553.240000", "173554.027500", "173554.817500", "173555.605000", "173556.392500", "173557.182500", "173557.970000", "173558.757500", "173559.545000", "173600.335000", "173601.122500", "173601.910000", "173602.697500", "173603.487500", "173604.275000", "173605.062500", "173605.850000", "173606.640000", "173607.427500", "173608.215000", "173609.002500", "173609.792500", "173610.580000", "173611.367500", "173612.155000", "173612.945000", "173613.732500", "173614.520000", "173615.310000", "173616.097500", "173616.885000", "173617.672500", "173618.462500", "173619.250000", "173620.037500", "173620.825000", "173621.615000", "173622.402500", "173623.190000", "173623.977500", "173624.767500", "173625.555000", "173626.342500", "173627.130000", "173627.920000", "173628.707500", "173629.495000", "173630.282500", "173631.072500", "173631.860000", "173632.647500", "173633.437500", "173634.225000", "173635.012500", "173635.800000", "173636.590000", "173637.377500", "173638.165000", "173638.952500", "173639.742500", "173640.530000", "173641.317500", "173642.105000", "173642.895000", "173643.682500", "173644.470000", "173645.257500", "173646.047500", "173646.835000", "173647.622500", "173648.412500", "173649.200000", "173649.987500", "173650.775000", "173651.565000", "173652.352500", "173653.140000", "173653.927500", "173654.717500", "173655.505000", "173656.292500", "173657.080000", "173657.870000", "173658.657500", "173659.445000", "173700.232500", "173701.022500", "173701.810000", "173702.597500", "173703.385000", "173704.175000", "173704.962500", "173705.750000", "173706.540000", "173707.327500", "173708.115000", "173708.902500", "173709.692500", "173710.480000", "173711.267500", "173712.055000", "173712.845000", "173713.632500", "173714.420000", "173715.207500", "173715.997500", "173716.785000", "173717.572500", "173718.360000", "173719.150000", "173719.937500", "173720.725000", "173721.512500", "173722.302500", "173723.090000", "173723.877500", "173724.667500", "173725.455000", "173726.242500", "173727.030000", "173727.820000", "173728.607500", "173729.395000", "173730.182500", "173730.972500", "173731.760000", "173732.547500", "173733.335000", "173734.125000", "173734.912500", "173735.700000", "173736.487500", "173737.277500", "173738.065000", "173738.852500", "173739.640000", "173740.430000", "173741.217500", "173742.005000", "173742.795000", "173743.582500", "173744.370000", "173745.157500", "173745.947500", "173746.735000", "173747.522500", "173748.310000", "173749.100000", "173749.887500", "173750.675000", "173751.462500", "173752.252500", "173753.040000", "173753.827500", "173754.615000", "173755.405000", "173756.192500", "173756.980000", "173757.767500", "173758.557500", "173759.345000", "173800.132500", "173800.922500", "173801.710000", "173802.497500", "173803.285000", "173804.075000", "173804.862500", "173805.650000", "173806.437500", "173807.227500", "173808.015000", "173808.802500", "173809.590000", "173810.380000", "173811.167500", "173811.955000", "173812.742500", "173813.532500", "173814.320000", "173815.107500", "173815.895000", "173816.685000", "173817.472500", "173818.260000", "173819.050000", "173819.837500", "173820.625000", "173821.412500", "173822.202500", "173822.990000", "173823.777500", "173824.565000", "173825.355000", "173826.142500", "173826.930000", "173827.717500", "173828.507500", "173829.295000", "173830.082500", "173830.870000", "173831.660000", "173832.447500", "173833.235000", "173834.022500", "173834.812500", "173835.600000", "173836.387500", "173837.177500", "173837.965000", "173838.752500", "173839.540000", "173840.330000", "173841.117500", "173841.905000", "173842.692500", "173843.482500", "173844.270000", "173845.057500", "173845.845000", "173846.635000", "173847.422500", "173848.210000", "173848.997500", "173849.787500", "173850.575000", "173851.362500", "173852.150000", "173852.940000", "173853.727500", "173854.515000", "173855.305000", "173856.092500", "173856.880000", "173857.667500", "173858.457500", "173859.245000", "173900.032500", "173900.820000", "173901.610000", "173902.397500", "173903.185000", "173903.972500", "173904.762500", "173905.550000", "173906.337500", "173907.125000", "173907.915000", "173908.702500", "173909.490000", "173910.277500", "173911.067500", "173911.855000", "173912.642500", "173913.432500", "173914.220000", "173915.007500", "173915.795000", "173916.585000", "173917.372500", "173918.160000", "173918.947500", "173919.737500", "173920.525000", "173921.312500", "173922.100000", "173922.890000", "173923.677500", "173924.465000", "173925.252500", "173926.042500", "173926.830000", "173927.617500", "173928.405000", "173929.195000", "173929.982500", "173930.770000", "173931.560000", "173932.347500", "173933.135000", "173933.922500", "173934.712500", "173935.500000", "173936.287500", "173937.075000", "173937.865000", "173938.652500", "173939.440000", "173940.227500", "173941.017500", "173941.805000", "173942.592500", "173943.380000", "173944.170000", "173944.957500", "173945.745000", "173946.532500", "173947.322500", "173948.110000", "173948.897500", "173949.687500", "173950.475000", "173951.262500", "173952.050000", "173952.840000", "173953.627500", "173954.415000", "173955.202500", "173955.992500", "173956.780000", "173957.567500", "173958.355000", "173959.145000", "173959.932500", "174000.720000", "174001.507500", "174002.297500", "174003.085000", "174003.872500", "174004.662500", "174005.450000", "174006.237500", "174007.025000", "174007.815000", "174008.602500", "174009.390000", "174010.177500", "174010.967500", "174011.755000", "174012.542500", "174013.330000", "174014.120000", "174014.907500", "174015.695000", "174016.482500", "174017.272500", "174018.060000", "174018.847500", "174019.635000", "174020.425000", "174021.212500", "174022.000000", "174022.790000", "174023.577500", "174024.365000", "174025.152500", "174025.942500", "174026.730000", "174027.517500", "174028.305000", "174029.095000", "174029.882500", "174030.670000", "174031.457500", "174032.247500", "174033.035000", "174033.822500", "174034.610000", "174035.400000", "174036.187500", "174036.975000", "174037.762500", "174038.552500", "174039.340000", "174040.127500", "174040.917500", "174041.705000", "174042.492500", "174043.280000", "174044.070000", "174044.857500", "174045.645000", "174046.432500", "174047.222500", "174048.010000", "174048.797500", "174049.585000", "174050.375000", "174051.162500", "174051.950000", "174052.737500", "174053.527500", "174054.315000", "174055.102500", "174055.890000", "174056.680000", "174057.467500", "174058.255000", "174059.045000", "174059.832500", "174100.620000", "174101.407500", "174102.197500", "174102.985000", "174103.772500", "174104.560000", "174105.350000", "174106.137500", "174106.925000", "174107.712500", "174108.502500", "174109.290000", "174110.077500", "174110.865000", "174111.655000", "174112.442500", "174113.230000", "174114.017500", "174114.807500", "174115.595000", "174116.382500", "174117.172500", "174117.960000", "174118.747500", "174119.535000", "174120.325000", "174121.112500", "174121.900000", "174122.687500", "174123.477500", "174124.265000", "174125.052500", "174125.840000", "174126.630000", "174127.417500", "174128.205000", "174128.992500", "174129.782500", "174130.570000", "174131.357500", "174132.145000", "174132.935000", "174133.722500", "174134.510000", "174135.300000", "174136.087500", "174136.875000", "174137.662500", "174138.452500", "174139.240000", "174140.027500", "174140.815000", "174141.605000", "174142.392500", "174143.180000", "174143.967500", "174144.757500", "174145.545000", "174146.332500", "174147.120000", "174147.910000", "174148.697500", "174149.485000", "174150.272500", "174151.062500", "174151.850000", "174152.637500", "174153.427500", "174154.215000", "174155.002500", "174155.790000", "174156.580000", "174157.367500", "174158.155000", "174158.942500", "174159.732500", "174200.520000", "174201.307500", "174202.095000", "174202.885000", "174203.672500", "174204.460000", "174205.247500", "174206.037500", "174206.825000"],
      "ContentTime": ["173500.687000", "173500.687000", "173500.687000", "173500.687000", "173500.703000", "173500.703000", "173500.703000", "173500.703000", "173500.703000", "173500.703000", "173500.718000", "173500.718000", "173500.718000", "173500.718000", "173500.734000", "173500.734000", "173500.734000", "173500.734000", "173500.734000", "173500.734000", "173500.734000", "173500.750000", "173500.750000", "173500.750000", "173500.750000", "173500.750000", "173500.750000", "173500.765000", "173500.765000", "173500.765000", "173500.765000", "173500.765000", "173500.781000", "173500.781000", "173500.781000", "173500.781000", "173520.671000", "173520.671000", "173520.671000", "173520.687000", "173520.687000", "173520.687000", "173520.687000", "173520.687000", "173520.703000", "173520.703000", "173520.703000", "173520.703000", "173520.703000", "173520.703000", "173520.718000", "173520.718000", "173520.718000", "173520.718000", "173520.734000", "173520.734000", "173520.734000", "173520.734000", "173520.734000", "173520.734000", "173520.734000", "173520.750000", "173540.671000", "173540.671000", "173540.671000", "173540.671000", "173540.671000", "173540.671000", "173540.687000", "173540.687000", "173540.687000", "173540.687000", "173540.687000", "173540.703000", "173540.703000", "173540.703000", "173540.703000", "173540.703000", "173540.703000", "173540.718000", "173540.718000", "173540.718000", "173540.718000", "173540.718000", "173540.734000", "173540.734000", "173540.734000", "173600.671000", "173600.671000", "173600.671000", "173600.671000", "173600.671000", "173600.671000", "173600.671000", "173600.687000", "173600.687000", "173600.687000", "173600.687000", "173600.703000", "173600.703000", "173600.703000", "173600.703000", "173600.703000", "173600.703000", "173600.703000", "173600.718000", "173600.718000", "173600.718000", "173600.718000", "173600.718000", "173600.718000", "173600.718000", "173600.734000", "173620.671000", "173620.671000", "173620.671000", "173620.671000", "173620.671000", "173620.671000", "173620.671000", "173620.687000", "173620.687000", "173620.687000", "173620.687000", "173620.687000", "173620.703000", "173620.703000", "173620.703000", "173620.703000", "173620.718000", "173620.718000", "173620.718000", "173620.718000", "173620.718000", "173620.718000", "173620.718000", "173620.734000", "173620.734000", "173640.671000", "173640.671000", "173640.671000", "173640.671000", "173640.671000", "173640.671000", "173640.671000", "173640.687000", "173640.687000", "173640.687000", "173640.687000", "173640.687000", "173640.687000", "173640.687000", "173640.703000", "173640.703000", "173640.703000", "173640.703000", "173640.703000", "173640.718000", "173640.718000", "173640.718000", "173640.718000", "173640.718000", "173640.734000", "173640.734000", "173700.671000", "173700.671000", "173700.671000", "173700.671000", "173700.671000", "173700.671000", "173700.687000", "173700.687000", "173700.687000", "173700.687000", "173700.687000", "173700.687000", "173700.687000", "173700.703000", "173700.703000", "173700.703000", "173700.703000", "173700.703000", "173700.703000", "173700.703000", "173700.718000", "173700.718000", "173700.718000", "173700.718000", "173700.734000", "173720.671000", "173720.671000", "173720.671000", "173720.671000", "173720.671000", "173720.671000", "173720.671000", "173720.703000", "173720.703000", "173720.703000", "173720.703000", "173720.703000", "173720.703000", "173720.703000", "173720.718000", "173720.718000", "173720.718000", "173720.718000", "173720.718000", "173720.718000", "173720.734000", "173720.734000", "173720.734000", "173720.750000", "173720.750000", "173740.671000", "173740.671000", "173740.671000", "173740.671000", "173740.687000", "173740.687000", "173740.687000", "173740.687000", "173740.687000", "173740.687000", "173740.687000", "173740.703000", "173740.703000", "173740.703000", "173740.718000", "173740.718000", "173740.718000", "173740.718000", "173740.718000", "173740.718000", "173740.718000", "173740.734000", "173740.734000", "173740.734000", "173740.734000", "173740.734000", "173800.671000", "173800.671000", "173800.671000", "173800.671000", "173800.671000", "173800.671000", "173800.671000", "173800.687000", "173800.687000", "173800.687000", "173800.687000", "173800.687000", "173800.687000", "173800.687000", "173800.718000", "173800.734000", "173800.734000", "173800.734000", "173800.734000", "173800.734000", "173800.734000", "173800.734000", "173800.750000", "173800.750000", "173800.750000", "173820.671000", "173820.671000", "173820.671000", "173820.671000", "173820.687000", "173820.687000", "173820.687000", "173820.687000", "173820.687000", "173820.687000", "173820.687000", "173820.703000", "173820.703000", "173820.703000", "173820.703000", "173820.703000", "173820.703000", "173820.703000", "173820.718000", "173820.718000", "173820.718000", "173820.718000", "173820.734000", "173820.734000", "173820.734000", "173820.734000", "173840.671000", "173840.671000", "173840.671000", "173840.671000", "173840.671000", "173840.671000", "173840.671000", "173840.687000", "173840.687000", "173840.687000", "173840.687000", "173840.687000", "173840.703000", "173840.703000", "173840.703000", "173840.703000", "173840.703000", "173840.703000", "173840.703000", "173840.718000", "173840.718000", "173840.765000", "173840.765000", "173840.765000", "173840.765000", "173900.671000", "173900.671000", "173900.671000", "173900.671000", "173900.671000", "173900.671000", "173900.671000", "173900.687000", "173900.687000", "173900.687000", "173900.703000", "173900.703000", "173900.703000", "173900.703000", "173900.718000", "173900.718000", "173900.718000", "173900.718000", "173900.718000", "173900.718000", "173900.718000", "173900.734000", "173900.734000", "173900.734000", "173900.734000", "173900.734000", "173920.671000", "173920.671000", "173920.671000", "173920.671000", "173920.671000", "173920.671000", "173920.671000", "173920.687000", "173920.687000", "173920.687000", "173920.687000", "173920.687000", "173920.687000", "173920.687000", "173920.703000", "173920.703000", "173920.703000", "173920.718000", "173920.718000", "173920.718000", "173920.718000", "173920.718000", "173920.718000", "173920.718000", "173920.734000", "173940.671000", "173940.671000", "173940.671000", "173940.671000", "173940.687000", "173940.687000", "173940.687000", "173940.687000", "173940.687000", "173940.687000", "173940.687000", "173940.703000", "173940.703000", "173940.703000", "173940.703000", "173940.703000", "173940.703000", "173940.718000", "173940.718000", "173940.718000", "173940.718000", "173940.718000", "173940.734000", "173940.734000", "173940.734000", "173940.734000", "174000.671000", "174000.671000", "174000.671000", "174000.671000", "174000.671000", "174000.687000", "174000.687000", "174000.687000", "174000.687000", "174000.687000", "174000.687000", "174000.687000", "174000.703000", "174000.703000", "174000.703000", "174000.703000", "174000.703000", "174000.703000", "174000.718000", "174000.718000", "174000.718000", "174000.734000", "174000.734000", "174000.734000", "174000.734000", "174020.671000", "174020.671000", "174020.671000", "174020.671000", "174020.671000", "174020.671000", "174020.671000", "174020.687000", "174020.687000", "174020.687000", "174020.687000", "174020.687000", "174020.703000", "174020.703000", "174020.703000", "174020.703000", "174020.703000", "174020.703000", "174020.703000", "174020.718000", "174020.718000", "174020.718000", "174020.718000", "174020.718000", "174020.734000", "174020.734000", "174040.671000", "174040.671000", "174040.671000", "174040.671000", "174040.671000", "174040.671000", "174040.671000", "174040.687000", "174040.687000", "174040.687000", "174040.687000", "174040.687000", "174040.703000", "174040.703000", "174040.703000", "174040.703000", "174040.703000", "174040.718000", "174040.718000", "174040.718000", "174040.718000", "174040.718000", "174040.718000", "174040.718000", "174040.734000", "174100.671000", "174100.671000", "174100.671000", "174100.671000", "174100.671000", "174100.671000", "174100.671000", "174100.687000", "174100.687000", "174100.687000", "174100.687000", "174100.687000", "174100.687000", "174100.687000", "174100.703000", "174100.703000", "174100.703000", "174100.718000", "174100.718000", "174100.718000", "174100.718000", "174100.718000", "174100.718000", "174100.734000", "174100.734000", "174100.734000", "174120.671000", "174120.671000", "174120.671000", "174120.671000", "174120.687000", "174120.687000", "174120.687000", "174120.687000", "174120.687000", "174120.687000", "174120.687000", "174120.703000", "174120.703000", "174120.703000", "174120.703000", "174120.703000", "174120.703000", "174120.718000", "174120.718000", "174120.718000", "174120.734000", "174120.734000", "174120.734000", "174120.734000", "174120.734000", "174140.671000", "174140.671000", "174140.671000", "174140.671000", "174140.671000", "174140.671000", "174140.687000", "174140.687000", "174140.703000", "174140.703000", "174140.703000", "174140.703000", "174140.718000", "174140.718000", "174140.718000", "174140.718000", "174140.718000", "174140.718000", "174140.718000", "174140.734000", "174140.734000", "174140.734000", "174140.734000", "174140.734000", "174140.750000", "174140.750000", "174200.671000", "174200.671000", "174200.671000", "174200.671000", "174200.671000", "174200.671000", "174200.671000", "174200.687000", "174200.687000", "174200.687000", "174200.687000", "174200.687000", "174200.703000", "174200.703000", "174200.703000", "174200.703000", "174200.703000", "174200.718000", "174200.718000", "174200.718000", "174200.718000", "174200.718000", "174200.718000", "174200.734000", "174200.734000", "174208.078000", "174208.078000", "174208.078000", "174208.078000", "174208.078000", "174208.093000", "174208.093000", "174208.093000", "174208.093000", "174208.093000"],
      "DataSetTrailingPadding": [
        "\u0000\u0000\u0000\u0000\u0000\u0000\u0000\u0000\u0000\u0000\u0000\u0000\u0000\u0000\u0000\u0000\u0000\u0000\u0000\u0000\u0000\u0000\u0000\u0000\u0000\u0000\u0000\u0000\u0000\u0000\u0000\u0000\u0000\u0000\u0000\u0000\u0000\u0000\u0000\u0000\u0000\u0000\u0000\u0000\u0000\u0000\u0000\u0000\u0000\u0000\u0000\u0000\u0000\u0000\u0000\u0000\u0000\u0000\u0000\u0000\u0000\u0000\u0000\u0000\u0000\u0000\u0000\u0000\u0000\u0000\u0000\u0000\u0000\u0000\u0000\u0000\u0000\u0000\u0000\u0000\u0000\u0000\u0000\u0000\u0000\u0000\u0000\u0000\u0000\u0000\u0000\u0000\u0000\u0000\u0000\u0000\u0000\u0000\u0000\u0000\u0000\u0000\u0000\u0000\u0000\u0000\u0000\u0000\u0000\u0000\u0000\u0000\u0000\u0000\u0000\u0000\u0000\u0000\u0000\u0000\u0000\u0000\u0000\u0000\u0000\u0000\u0000\u0000\u0000\u0000\u0000\u0000\u0000\u0000\u0000\u0000\u0000\u0000\u0000\u0000\u0000\u0000\u0000\u0000\u0000\u0000\u0000\u0000\u0000\u0000\u0000\u0000\u0000\u0000\u0000\u0000\u0000\u0000\u0000\u0000\u0000\u0000\u0000\u0000\u0000\u0000\u0000\u0000\u0000\u0000\u0000\u0000\u0000\u0000\u0000\u0000\u0000\u0000\u0000\u0000\u0000\u0000\u0000\u0000\u0000\u0000\u0000\u0000\u0000\u0000\u0000\u0000\u0000\u0000\u0000\u0000\u0000\u0000\u0000\u0000\u0000\u0000\u0000\u0000\u0000\u0000\u0000\u0000\u0000\u0000\u0000\u0000\u0000\u0000\u0000\u0000\u0000\u0000\u0000\u0000\u0000\u0000\u0000\u0000\u0000\u0000\u0000\u0000\u0000\u0000\u0000\u0000\u0000\u0000\u0000\u0000\u0000\u0000\u0000\u0000\u0000\u0000\u0000\u0000\u0000\u0000\u0000\u0000\u0000\u0000\u0000\u0000\u0000\u0000\u0000\u0000\u0000\u0000\u0000\u0000\u0000\u0000\u0000\u0000\u0000\u0000\u0000\u0000\u0000\u0000\u0000\u0000\u0000\u0000\u0000\u0000\u0000\u0000\u0000\u0000\u0000\u0000\u0000\u0000\u0000\u0000\u0000\u0000\u0000\u0000\u0000\u0000\u0000\u0000\u0000\u0000\u0000\u0000\u0000\u0000\u0000\u0000",
