{
  "AcquisitionMatrixPE": 104,
  "AcquisitionNumber": 1,
  "AcquisitionTime": "16:53:47.442500",
  "BandwidthPerPixelPhaseEncode": 13.935,
  "BaseResolution": 104,
  "CoilString": "C:HEA;HEP",
  "ConversionSoftware": "dcm2niix",
  "ConversionSoftwareVersion": "v1.0.20210317",
  "DerivedVendorReportedEchoSpacing": 0.000690017,
  "DeviceSerialNumber": "35450",
  "DwellTime": 2.5e-06,
  "EchoTime": 0.0348,
  "EffectiveEchoSpacing": 0.000690017,
  "FlipAngle": 55,
  "ImageComments": "Unaliased MB8/PE3 (remote)",
  "ImageOrientationPatientDICOM": [1, 2.00789e-06, 0.000228425, -1.51369e-08, 0.999962, -0.00872355],
  "ImageType": [
    "ORIGINAL",
    "PRIMARY",
    "M",
    "MB",
    "ND",
    "MOSAIC"
],
  "ImagingFrequency": 123.235,
  "InPlanePhaseEncodingDirectionDICOM": "COL",
  "InstitutionAddress": "Univeristy Ave. 197,Newark,North East,US,07102-1814",
  "InstitutionName": "RUBIC",
  "InstitutionalDepartmentName": "Department",
  "MRAcquisitionType": "2D",
  "MagneticFieldStrength": 3,
  "Manufacturer": "Siemens",
  "ManufacturersModelName": "TrioTim",
  "Modality": "MR",
  "MultibandAccelerationFactor": 8,
  "PartialFourier": 0.875,
  "PatientPosition": "HFS",
  "PercentPhaseFOV": 100,
  "PercentSampling": 100,
  "PhaseEncodingDirection": "j-",
  "PhaseEncodingSteps": 91,
  "PhaseResolution": 1,
  "PixelBandwidth": 1923,
  "ProcedureStepDescription": "Cole^Michael",
  "ProtocolName": "cmrr_mbep2d_bold_2mm_MB8_Task_8x",
  "PulseSequenceDetails": "%CustomerSeq%\\cmrr_mbep2d_bold",
  "ReceiveCoilName": "32Ch_Head",
  "ReconMatrixPE": 104,
  "RepetitionTime": 0.785,
  "SAR": 0.252434,
  "ScanOptions": "PFP\\FS",
  "ScanningSequence": "EP",
  "SequenceName": "epfid2d1_104",
  "SequenceVariant": "SK\\SS",
  "SeriesDescription": "cmrr_mbep2d_bold_2mm_MB8_Task_8x",
  "SeriesNumber": 13,
  "ShimSetting": [2010, -271, -7249, 536, -183, -176, -209, 364],
  "SliceThickness": 2,
  "SliceTiming": [0, 0.4375, 0.0875, 0.525, 0.175, 0.6125, 0.2625, 0.7, 0.35, 0, 0.4375, 0.0875, 0.525, 0.175, 0.6125, 0.2625, 0.7, 0.35, 0, 0.4375, 0.0875, 0.525, 0.175, 0.6125, 0.2625, 0.7, 0.35, 0, 0.4375, 0.0875, 0.525, 0.175, 0.6125, 0.2625, 0.7, 0.35, 0, 0.4375, 0.0875, 0.525, 0.175, 0.6125, 0.2625, 0.7, 0.35, 0, 0.4375, 0.0875, 0.525, 0.175, 0.6125, 0.2625, 0.7, 0.35, 0, 0.4375, 0.0875, 0.525, 0.175, 0.6125, 0.2625, 0.7, 0.35, 0, 0.4375, 0.0875, 0.525, 0.175, 0.6125, 0.2625, 0.7, 0.35],
  "SoftwareVersions": "syngo MR B19",
  "SpacingBetweenSlices": 2,
  "StationName": "MRC35450",
  "TaskName": "cpro",
  "TotalReadoutTime": 0.0710717,
  "TxRefAmp": 460.323,
  "dcmmeta_affine": [
    [-2.0, -3.0273813678149963e-08, 0.00045686843805015087, 103.87020111083984],
    [-4.015785179944942e-06, 1.9999239444732666, -0.0174470916390419, -97.0390396118164],
    [0.00045685077202506363, 0.0174470916390419, 1.999923825263977, -94.84534454345703],
    [0.0, 0.0, 0.0, 1.0]
],
  "dcmmeta_reorient_transform": [
    [0.0, -1.0, 0.0, 103.0],
    [1.0, 0.0, 0.0, 0.0],
    [0.0, 0.0, 1.0, 0.0],
    [0.0, 0.0, 0.0, 1.0]
],
  "dcmmeta_shape": [104, 104, 72, 581],
  "dcmmeta_slice_dim": 2,
  "dcmmeta_version": 0.6,
  "global": {
    "const": {
      "AcquisitionMatrix": [104, 0, 0, 104],
      "AngioFlag": "N",
      "BitsAllocated": 16,
      "BitsStored": 12,
      "Columns": 936,
      "EchoNumbers": 1,
      "EchoTime": 34.8,
      "EchoTrainLength": 1,
      "FlipAngle": 55.0,
      "HighBit": 11,
      "ImageOrientationPatient": [0.99999997390891, 2.007892612e-06, 0.00022842538633, -1.5136906e-08, 0.99996194915097, -0.0087235457355],
      "ImagePositionPatient": [-935.87016125484, -940.92313101081, -85.9803529367],
      "ImageType": [
        "ORIGINAL",
        "PRIMARY",
        "M",
        "MB",
        "ND",
        "MOSAIC"
],
      "ImagedNucleus": "1H",
      "ImagingFrequency": 123.234565,
      "InPlanePhaseEncodingDirection": "COL",
      "MRAcquisitionType": "2D",
      "MagneticFieldStrength": 3.0,
      "Manufacturer": "SIEMENS",
      "ManufacturerModelName": "TrioTim",
      "Modality": "MR",
      "NumberOfAverages": 1.0,
      "NumberOfPhaseEncodingSteps": 91,
      "PercentPhaseFieldOfView": 100.0,
      "PercentSampling": 100.0,
      "PerformedProcedureStepStartTime": "154737.875000",
      "PhotometricInterpretation": "MONOCHROME2",
      "PixelBandwidth": 1923.0,
      "PixelRepresentation": 0,
      "PixelSpacing": [2.0, 2.0],
      "ProtocolName": "cmrr_mbep2d_bold_2mm_MB8_Task_8x",
      "RepetitionTime": 785.0,
      "Rows": 936,
      "SAR": 0.25243396181401,
      "SamplesPerPixel": 1,
      "ScanOptions": [
        "PFP",
        "FS"
],
      "ScanningSequence": "EP",
      "SequenceName": "epfid2d1_104",
      "SequenceVariant": [
        "SK",
        "SS"
],
      "SeriesDescription": "cmrr_mbep2d_bold_2mm_MB8_Task_8x",
      "SeriesNumber": 13,
      "SeriesTime": "165424.062000",
      "SliceLocation": -93.971480056148,
      "SliceThickness": 2.0,
      "SmallestImagePixelValue": 0,
      "SoftwareVersions": "syngo MR B19",
      "SpacingBetweenSlices": 2.0000000210972,
      "SpecificCharacterSet": "ISO_IR 100",
      "StudyID": "1",
      "StudyTime": "154737.828000",
      "TransmitCoilName": "Body",
      "VariableFlipAngleFlag": "N",
      "WindowCenterWidthExplanation": "Algo1",
      "dBdt": 0.0},
    "slices": {}
  },
  "time": {
    "samples": {
      "AcquisitionNumber": [1, 2, 3, 4, 5, 6, 7, 8, 9, 10, 11, 12, 13, 14, 15, 16, 17, 18, 19, 20, 21, 22, 23, 24, 25, 26, 27, 28, 29, 30, 31, 32, 33, 34, 35, 36, 37, 38, 39, 40, 41, 42, 43, 44, 45, 46, 47, 48, 49, 50, 51, 52, 53, 54, 55, 56, 57, 58, 59, 60, 61, 62, 63, 64, 65, 66, 67, 68, 69, 70, 71, 72, 73, 74, 75, 76, 77, 78, 79, 80, 81, 82, 83, 84, 85, 86, 87, 88, 89, 90, 91, 92, 93, 94, 95, 96, 97, 98, 99, 100, 101, 102, 103, 104, 105, 106, 107, 108, 109, 110, 111, 112, 113, 114, 115, 116, 117, 118, 119, 120, 121, 122, 123, 124, 125, 126, 127, 128, 129, 130, 131, 132, 133, 134, 135, 136, 137, 138, 139, 140, 141, 142, 143, 144, 145, 146, 147, 148, 149, 150, 151, 152, 153, 154, 155, 156, 157, 158, 159, 160, 161, 162, 163, 164, 165, 166, 167, 168, 169, 170, 171, 172, 173, 174, 175, 176, 177, 178, 179, 180, 181, 182, 183, 184, 185, 186, 187, 188, 189, 190, 191, 192, 193, 194, 195, 196, 197, 198, 199, 200, 201, 202, 203, 204, 205, 206, 207, 208, 209, 210, 211, 212, 213, 214, 215, 216, 217, 218, 219, 220, 221, 222, 223, 224, 225, 226, 227, 228, 229, 230, 231, 232, 233, 234, 235, 236, 237, 238, 239, 240, 241, 242, 243, 244, 245, 246, 247, 248, 249, 250, 251, 252, 253, 254, 255, 256, 257, 258, 259, 260, 261, 262, 263, 264, 265, 266, 267, 268, 269, 270, 271, 272, 273, 274, 275, 276, 277, 278, 279, 280, 281, 282, 283, 284, 285, 286, 287, 288, 289, 290, 291, 292, 293, 294, 295, 296, 297, 298, 299, 300, 301, 302, 303, 304, 305, 306, 307, 308, 309, 310, 311, 312, 313, 314, 315, 316, 317, 318, 319, 320, 321, 322, 323, 324, 325, 326, 327, 328, 329, 330, 331, 332, 333, 334, 335, 336, 337, 338, 339, 340, 341, 342, 343, 344, 345, 346, 347, 348, 349, 350, 351, 352, 353, 354, 355, 356, 357, 358, 359, 360, 361, 362, 363, 364, 365, 366, 367, 368, 369, 370, 371, 372, 373, 374, 375, 376, 377, 378, 379, 380, 381, 382, 383, 384, 385, 386, 387, 388, 389, 390, 391, 392, 393, 394, 395, 396, 397, 398, 399, 400, 401, 402, 403, 404, 405, 406, 407, 408, 409, 410, 411, 412, 413, 414, 415, 416, 417, 418, 419, 420, 421, 422, 423, 424, 425, 426, 427, 428, 429, 430, 431, 432, 433, 434, 435, 436, 437, 438, 439, 440, 441, 442, 443, 444, 445, 446, 447, 448, 449, 450, 451, 452, 453, 454, 455, 456, 457, 458, 459, 460, 461, 462, 463, 464, 465, 466, 467, 468, 469, 470, 471, 472, 473, 474, 475, 476, 477, 478, 479, 480, 481, 482, 483, 484, 485, 486, 487, 488, 489, 490, 491, 492, 493, 494, 495, 496, 497, 498, 499, 500, 501, 502, 503, 504, 505, 506, 507, 508, 509, 510, 511, 512, 513, 514, 515, 516, 517, 518, 519, 520, 521, 522, 523, 524, 525, 526, 527, 528, 529, 530, 531, 532, 533, 534, 535, 536, 537, 538, 539, 540, 541, 542, 543, 544, 545, 546, 547, 548, 549, 550, 551, 552, 553, 554, 555, 556, 557, 558, 559, 560, 561, 562, 563, 564, 565, 566, 567, 568, 569, 570, 571, 572, 573, 574, 575, 576, 577, 578, 579, 580, 581],
      "AcquisitionTime": ["165347.442500", "165348.230000", "165349.020000", "165349.807500", "165350.595000", "165351.382500", "165352.172500", "165352.960000", "165353.747500", "165354.535000", "165355.325000", "165356.112500", "165356.900000", "165357.687500", "165358.477500", "165359.265000", "165400.052500", "165400.840000", "165401.630000", "165402.417500", "165403.205000", "165403.995000", "165404.782500", "165405.570000", "165406.357500", "165407.147500", "165407.935000", "165408.722500", "165409.510000", "165410.300000", "165411.087500", "165411.875000", "165412.662500", "165413.452500", "165414.240000", "165415.027500", "165415.815000", "165416.605000", "165417.392500", "165418.180000", "165418.967500", "165419.757500", "165420.545000", "165421.332500", "165422.122500", "165422.910000", "165423.697500", "165424.485000", "165425.275000", "165426.062500", "165426.850000", "165427.637500", "165428.427500", "165429.215000", "165430.002500", "165430.790000", "165431.580000", "165432.367500", "165433.155000", "165433.942500", "165434.732500", "165435.520000", "165436.307500", "165437.095000", "165437.885000", "165438.672500", "165439.460000", "165440.250000", "165441.037500", "165441.825000", "165442.612500", "165443.402500", "165444.190000", "165444.977500", "165445.765000", "165446.555000", "165447.342500", "165448.130000", "165448.917500", "165449.707500", "165450.495000", "165451.282500", "165452.070000", "165452.860000", "165453.647500", "165454.435000", "165455.222500", "165456.012500", "165456.800000", "165457.587500", "165458.377500", "165459.165000", "165459.952500", "165500.740000", "165501.530000", "165502.317500", "165503.105000", "165503.892500", "165504.682500", "165505.470000", "165506.257500", "165507.045000", "165507.835000", "165508.622500", "165509.410000", "165510.197500", "165510.987500", "165511.775000", "165512.562500", "165513.350000", "165514.140000", "165514.927500", "165515.715000", "165516.505000", "165517.292500", "165518.080000", "165518.867500", "165519.657500", "165520.445000", "165521.232500", "165522.020000", "165522.810000", "165523.597500", "165524.385000", "165525.172500", "165525.962500", "165526.750000", "165527.537500", "165528.325000", "165529.115000", "165529.902500", "165530.690000", "165531.477500", "165532.267500", "165533.055000", "165533.842500", "165534.632500", "165535.420000", "165536.207500", "165536.995000", "165537.785000", "165538.572500", "165539.360000", "165540.147500", "165540.937500", "165541.725000", "165542.512500", "165543.300000", "165544.090000", "165544.877500", "165545.665000", "165546.452500", "165547.242500", "165548.030000", "165548.817500", "165549.605000", "165550.395000", "165551.182500", "165551.970000", "165552.760000", "165553.547500", "165554.335000", "165555.122500", "165555.912500", "165556.700000", "165557.487500", "165558.275000", "165559.065000", "165559.852500", "165600.640000", "165601.427500", "165602.217500", "165603.005000", "165603.792500", "165604.580000", "165605.370000", "165606.157500", "165606.945000", "165607.732500", "165608.522500", "165609.310000", "165610.097500", "165610.887500", "165611.675000", "165612.462500", "165613.250000", "165614.040000", "165614.827500", "165615.615000", "165616.402500", "165617.192500", "165617.980000", "165618.767500", "165619.555000", "165620.345000", "165621.132500", "165621.920000", "165622.707500", "165623.497500", "165624.285000", "165625.072500", "165625.860000", "165626.650000", "165627.437500", "165628.225000", "165629.015000", "165629.802500", "165630.590000", "165631.377500", "165632.167500", "165632.955000", "165633.742500", "165634.530000", "165635.320000", "165636.107500", "165636.895000", "165637.682500", "165638.472500", "165639.260000", "165640.047500", "165640.835000", "165641.625000", "165642.412500", "165643.200000", "165643.987500", "165644.777500", "165645.565000", "165646.352500", "165647.142500", "165647.930000", "165648.717500", "165649.505000", "165650.295000", "165651.082500", "165651.870000", "165652.657500", "165653.447500", "165654.235000", "165655.022500", "165655.810000", "165656.600000", "165657.387500", "165658.175000", "165658.962500", "165659.752500", "165700.540000", "165701.327500", "165702.115000", "165702.905000", "165703.692500", "165704.480000", "165705.270000", "165706.057500", "165706.845000", "165707.632500", "165708.422500", "165709.210000", "165709.997500", "165710.785000", "165711.575000", "165712.362500", "165713.150000", "165713.937500", "165714.727500", "165715.515000", "165716.302500", "165717.090000", "165717.880000", "165718.667500", "165719.455000", "165720.245000", "165721.032500", "165721.820000", "165722.607500", "165723.397500", "165724.185000", "165724.972500", "165725.760000", "165726.550000", "165727.337500", "165728.125000", "165728.912500", "165729.702500", "165730.490000", "165731.277500", "165732.065000", "165732.855000", "165733.642500", "165734.430000", "165735.217500", "165736.007500", "165736.795000", "165737.582500", "165738.372500", "165739.160000", "165739.947500", "165740.735000", "165741.525000", "165742.312500", "165743.100000", "165743.887500", "165744.677500", "165745.465000", "165746.252500", "165747.040000", "165747.830000", "165748.617500", "165749.405000", "165750.192500", "165750.982500", "165751.770000", "165752.557500", "165753.345000", "165754.135000", "165754.922500", "165755.710000", "165756.500000", "165757.287500", "165758.075000", "165758.862500", "165759.652500", "165800.440000", "165801.227500", "165802.015000", "165802.805000", "165803.592500", "165804.380000", "165805.167500", "165805.957500", "165806.745000", "165807.532500", "165808.320000", "165809.110000", "165809.897500", "165810.685000", "165811.472500", "165812.262500", "165813.050000", "165813.837500", "165814.627500", "165815.415000", "165816.202500", "165816.990000", "165817.780000", "165818.567500", "165819.355000", "165820.142500", "165820.932500", "165821.720000", "165822.507500", "165823.295000", "165824.085000", "165824.872500", "165825.660000", "165826.447500", "165827.237500", "165828.025000", "165828.812500", "165829.600000", "165830.390000", "165831.177500", "165831.965000", "165832.755000", "165833.542500", "165834.330000", "165835.117500", "165835.907500", "165836.695000", "165837.482500", "165838.270000", "165839.060000", "165839.847500", "165840.635000", "165841.422500", "165842.212500", "165843.000000", "165843.787500", "165844.575000", "165845.365000", "165846.152500", "165846.940000", "165847.727500", "165848.517500", "165849.305000", "165850.092500", "165850.882500", "165851.670000", "165852.457500", "165853.245000", "165854.035000", "165854.822500", "165855.610000", "165856.397500", "165857.187500", "165857.975000", "165858.762500", "165859.550000", "165900.340000", "165901.127500", "165901.915000", "165902.702500", "165903.492500", "165904.280000", "165905.067500", "165905.855000", "165906.645000", "165907.432500", "165908.220000", "165909.010000", "165909.797500", "165910.585000", "165911.372500", "165912.162500", "165912.950000", "165913.737500", "165914.525000", "165915.315000", "165916.102500", "165916.890000", "165917.677500", "165918.467500", "165919.255000", "165920.042500", "165920.830000", "165921.620000", "165922.407500", "165923.195000", "165923.982500", "165924.772500", "165925.560000", "165926.347500", "165927.137500", "165927.925000", "165928.712500", "165929.500000", "165930.290000", "165931.077500", "165931.865000", "165932.652500", "165933.442500", "165934.230000", "165935.017500", "165935.805000", "165936.595000", "165937.382500", "165938.170000", "165938.957500", "165939.747500", "165940.535000", "165941.322500", "165942.110000", "165942.900000", "165943.687500", "165944.475000", "165945.265000", "165946.052500", "165946.840000", "165947.627500", "165948.417500", "165949.205000", "165949.992500", "165950.780000", "165951.570000", "165952.357500", "165953.145000", "165953.932500", "165954.722500", "165955.510000", "165956.297500", "165957.085000", "165957.875000", "165958.662500", "165959.450000", "170000.237500", "170001.027500", "170001.815000", "170002.602500", "170003.392500", "170004.180000", "170004.967500", "170005.755000", "170006.545000", "170007.332500", "170008.120000", "170008.907500", "170009.697500", "170010.485000", "170011.272500", "170012.060000", "170012.850000", "170013.637500", "170014.425000", "170015.212500", "170016.002500", "170016.790000", "170017.577500", "170018.365000", "170019.155000", "170019.942500", "170020.730000", "170021.520000", "170022.307500", "170023.095000", "170023.882500", "170024.672500", "170025.460000", "170026.247500", "170027.035000", "170027.825000", "170028.612500", "170029.400000", "170030.187500", "170030.977500", "170031.765000", "170032.552500", "170033.340000", "170034.130000", "170034.917500", "170035.705000", "170036.495000", "170037.282500", "170038.070000", "170038.857500", "170039.647500", "170040.435000", "170041.222500", "170042.010000", "170042.800000", "170043.587500", "170044.375000", "170045.162500", "170045.952500", "170046.740000", "170047.527500", "170048.315000", "170049.105000", "170049.892500", "170050.680000", "170051.467500", "170052.257500", "170053.045000", "170053.832500", "170054.622500", "170055.410000", "170056.197500", "170056.985000", "170057.775000", "170058.562500", "170059.350000", "170100.137500", "170100.927500", "170101.715000", "170102.502500", "170103.290000", "170104.080000", "170104.867500", "170105.655000", "170106.442500", "170107.232500", "170108.020000", "170108.807500", "170109.595000", "170110.385000", "170111.172500", "170111.960000", "170112.750000", "170113.537500", "170114.325000", "170115.112500", "170115.902500", "170116.690000", "170117.477500", "170118.265000", "170119.055000", "170119.842500", "170120.630000", "170121.417500", "170122.207500", "170122.995000", "170123.782500", "170124.570000"],
      "ContentTime": ["165424.062000", "165424.062000", "165424.062000", "165424.062000", "165424.062000", "165424.078000", "165424.078000", "165424.078000", "165424.078000", "165424.078000", "165424.078000", "165424.078000", "165424.093000", "165424.093000", "165424.093000", "165424.093000", "165424.093000", "165424.093000", "165424.093000", "165424.109000", "165424.109000", "165424.109000", "165424.109000", "165424.109000", "165424.109000", "165424.125000", "165424.125000", "165424.125000", "165424.125000", "165424.125000", "165424.125000", "165424.125000", "165424.140000", "165424.140000", "165424.140000", "165424.140000", "165424.140000", "165424.140000", "165424.140000", "165424.140000", "165424.156000", "165424.156000", "165424.156000", "165424.156000", "165444.046000", "165444.046000", "165444.046000", "165444.046000", "165444.046000", "165444.046000", "165444.046000", "165444.062000", "165444.062000", "165444.062000", "165444.078000", "165444.078000", "165444.078000", "165444.078000", "165444.078000", "165444.093000", "165444.093000", "165444.093000", "165444.093000", "165444.093000", "165444.093000", "165444.093000", "165444.109000", "165444.109000", "165444.109000", "165504.046000", "165504.046000", "165504.046000", "165504.046000", "165504.046000", "165504.046000", "165504.046000", "165504.062000", "165504.062000", "165504.062000", "165504.062000", "165504.062000", "165504.062000", "165504.062000", "165504.078000", "165504.078000", "165504.078000", "165504.078000", "165504.078000", "165504.078000", "165504.078000", "165504.093000", "165504.093000", "165504.093000", "165504.093000", "165504.093000", "165524.046000", "165524.046000", "165524.046000", "165524.046000", "165524.046000", "165524.046000", "165524.046000", "165524.062000", "165524.062000", "165524.062000", "165524.062000", "165524.062000", "165524.062000", "165524.062000", "165524.078000", "165524.078000", "165524.078000", "165524.078000", "165524.078000", "165524.078000", "165524.093000", "165524.093000", "165524.093000", "165524.093000", "165524.093000", "165544.046000", "165544.046000", "165544.046000", "165544.046000", "165544.046000", "165544.046000", "165544.046000", "165544.062000", "165544.062000", "165544.062000", "165544.062000", "165544.062000", "165544.062000", "165544.062000", "165544.078000", "165544.078000", "165544.078000", "165544.078000", "165544.078000", "165544.093000", "165544.093000", "165544.093000", "165544.093000", "165544.093000", "165544.093000", "165544.093000", "165604.046000", "165604.046000", "165604.046000", "165604.046000", "165604.046000", "165604.046000", "165604.046000", "165604.062000", "165604.062000", "165604.062000", "165604.062000", "165604.062000", "165604.078000", "165604.078000", "165604.078000", "165604.078000", "165604.078000", "165604.078000", "165604.093000", "165604.093000", "165604.093000", "165604.093000", "165604.093000", "165604.109000", "165604.109000", "165624.046000", "165624.046000", "165624.046000", "165624.046000", "165624.046000", "165624.046000", "165624.046000", "165624.062000", "165624.062000", "165624.062000", "165624.062000", "165624.062000", "165624.062000", "165624.062000", "165624.078000", "165624.078000", "165624.078000", "165624.078000", "165624.078000", "165624.078000", "165624.078000", "165624.093000", "165624.093000", "165624.093000", "165624.093000", "165624.093000", "165644.046000", "165644.046000", "165644.046000", "165644.046000", "165644.046000", "165644.046000", "165644.046000", "165644.062000", "165644.062000", "165644.062000", "165644.062000", "165644.062000", "165644.062000", "165644.062000", "165644.078000", "165644.078000", "165644.078000", "165644.078000", "165644.078000", "165644.078000", "165644.078000", "165644.093000", "165644.093000", "165644.093000", "165644.093000", "165704.046000", "165704.046000", "165704.046000", "165704.046000", "165704.062000", "165704.062000", "165704.062000", "165704.062000", "165704.062000", "165704.062000", "165704.062000", "165704.078000", "165704.078000", "165704.078000", "165704.078000", "165704.078000", "165704.078000", "165704.078000", "165704.093000", "165704.093000", "165704.093000", "165704.093000", "165704.093000", "165704.093000", "165704.093000", "165704.109000", "165724.046000", "165724.046000", "165724.046000", "165724.046000", "165724.046000", "165724.046000", "165724.046000", "165724.062000", "165724.062000", "165724.062000", "165724.062000", "165724.062000", "165724.078000", "165724.078000", "165724.078000", "165724.078000", "165724.078000", "165724.078000", "165724.078000", "165724.093000", "165724.093000", "165724.093000", "165724.093000", "165724.093000", "165724.093000", "165744.046000", "165744.046000", "165744.046000", "165744.046000", "165744.046000", "165744.046000", "165744.046000", "165744.062000", "165744.062000", "165744.062000", "165744.062000", "165744.062000", "165744.062000", "165744.062000", "165744.078000", "165744.078000", "165744.078000", "165744.078000", "165744.078000", "165744.078000", "165744.093000", "165744.093000", "165744.093000", "165744.093000", "165744.093000", "165744.093000", "165804.046000", "165804.046000", "165804.046000", "165804.046000", "165804.046000", "165804.046000", "165804.046000", "165804.062000", "165804.062000", "165804.062000", "165804.062000", "165804.062000", "165804.062000", "165804.062000", "165804.078000", "165804.078000", "165804.078000", "165804.078000", "165804.078000", "165804.078000", "165804.078000", "165804.093000", "165804.093000", "165804.093000", "165804.093000", "165824.046000", "165824.046000", "165824.046000", "165824.046000", "165824.046000", "165824.046000", "165824.062000", "165824.062000", "165824.062000", "165824.062000", "165824.062000", "165824.062000", "165824.062000", "165824.078000", "165824.078000", "165824.078000", "165824.078000", "165824.078000", "165824.078000", "165824.078000", "165824.093000", "165824.093000", "165824.093000", "165824.093000", "165824.093000", "165824.093000", "165844.046000", "165844.046000", "165844.046000", "165844.046000", "165844.062000", "165844.062000", "165844.062000", "165844.062000", "165844.062000", "165844.062000", "165844.062000", "165844.078000", "165844.078000", "165844.078000", "165844.078000", "165844.078000", "165844.078000", "165844.078000", "165844.093000", "165844.093000", "165844.093000", "165844.093000", "165844.093000", "165844.093000", "165844.093000", "165904.046000", "165904.046000", "165904.046000", "165904.046000", "165904.046000", "165904.046000", "165904.062000", "165904.062000", "165904.062000", "165904.062000", "165904.062000", "165904.062000", "165904.062000", "165904.078000", "165904.078000", "165904.078000", "165904.078000", "165904.078000", "165904.078000", "165904.078000", "165904.093000", "165904.093000", "165904.093000", "165904.093000", "165904.093000", "165904.093000", "165924.046000", "165924.046000", "165924.046000", "165924.046000", "165924.046000", "165924.062000", "165924.062000", "165924.062000", "165924.062000", "165924.062000", "165924.062000", "165924.078000", "165924.078000", "165924.078000", "165924.078000", "165924.078000", "165924.078000", "165924.078000", "165924.093000", "165924.093000", "165924.093000", "165924.093000", "165924.109000", "165924.109000", "165924.109000", "165944.046000", "165944.046000", "165944.046000", "165944.046000", "165944.046000", "165944.046000", "165944.062000", "165944.062000", "165944.062000", "165944.062000", "165944.062000", "165944.062000", "165944.062000", "165944.078000", "165944.078000", "165944.078000", "165944.078000", "165944.078000", "165944.078000", "165944.078000", "165944.093000", "165944.093000", "165944.093000", "165944.093000", "165944.093000", "165944.093000", "170004.046000", "170004.046000", "170004.046000", "170004.046000", "170004.046000", "170004.062000", "170004.062000", "170004.062000", "170004.062000", "170004.062000", "170004.062000", "170004.078000", "170004.078000", "170004.078000", "170004.078000", "170004.078000", "170004.078000", "170004.093000", "170004.093000", "170004.093000", "170004.093000", "170004.093000", "170004.093000", "170004.109000", "170004.109000", "170024.046000", "170024.046000", "170024.046000", "170024.046000", "170024.046000", "170024.046000", "170024.046000", "170024.062000", "170024.062000", "170024.062000", "170024.062000", "170024.062000", "170024.062000", "170024.062000", "170024.078000", "170024.078000", "170024.078000", "170024.078000", "170024.078000", "170024.078000", "170024.078000", "170024.093000", "170024.093000", "170024.093000", "170024.093000", "170024.093000", "170044.046000", "170044.046000", "170044.046000", "170044.046000", "170044.046000", "170044.046000", "170044.046000", "170044.062000", "170044.062000", "170044.062000", "170044.062000", "170044.062000", "170044.078000", "170044.078000", "170044.078000", "170044.078000", "170044.078000", "170044.078000", "170044.078000", "170044.093000", "170044.093000", "170044.093000", "170044.093000", "170044.093000", "170044.109000", "170104.046000", "170104.046000", "170104.046000", "170104.046000", "170104.046000", "170104.046000", "170104.046000", "170104.062000", "170104.062000", "170104.062000", "170104.062000", "170104.062000", "170104.078000", "170104.078000", "170104.078000", "170104.078000", "170104.078000", "170104.093000", "170104.093000", "170104.093000", "170104.093000", "170104.093000", "170104.093000", "170104.093000", "170104.109000", "170104.109000", "170124.046000", "170124.046000", "170124.046000", "170124.046000", "170124.046000", "170124.046000", "170124.046000", "170124.062000", "170124.062000", "170124.062000", "170124.062000", "170124.062000", "170124.062000", "170124.078000", "170124.078000", "170124.078000", "170124.078000", "170124.078000", "170124.078000", "170124.078000", "170124.093000", "170124.093000", "170124.093000", "170124.093000", "170124.093000", "170125.328000", "170125.328000"],
      "DataSetTrailingPadding": [
        "\u0000\u0000\u0000\u0000\u0000\u0000\u0000\u0000\u0000\u0000\u0000\u0000\u0000\u0000\u0000\u0000\u0000\u0000\u0000\u0000\u0000\u0000\u0000\u0000\u0000\u0000\u0000\u0000\u0000\u0000\u0000\u0000\u0000\u0000\u0000\u0000\u0000\u0000\u0000\u0000\u0000\u0000\u0000\u0000\u0000\u0000\u0000\u0000\u0000\u0000\u0000\u0000\u0000\u0000\u0000\u0000\u0000\u0000\u0000\u0000\u0000\u0000\u0000\u0000\u0000\u0000\u0000\u0000\u0000\u0000\u0000\u0000\u0000\u0000\u0000\u0000\u0000\u0000\u0000\u0000\u0000\u0000\u0000\u0000\u0000\u0000\u0000\u0000\u0000\u0000\u0000\u0000\u0000\u0000\u0000\u0000\u0000\u0000\u0000\u0000\u0000\u0000\u0000\u0000\u0000\u0000\u0000\u0000\u0000\u0000\u0000\u0000\u0000\u0000\u0000\u0000\u0000\u0000\u0000\u0000\u0000\u0000\u0000\u0000\u0000\u0000\u0000\u0000\u0000\u0000\u0000\u0000\u0000\u0000\u0000\u0000\u0000\u0000\u0000\u0000\u0000\u0000\u0000\u0000\u0000\u0000\u0000\u0000\u0000\u0000\u0000\u0000\u0000\u0000\u0000\u0000\u0000\u0000\u0000\u0000\u0000\u0000\u0000\u0000\u0000\u0000\u0000\u0000\u0000\u0000\u0000\u0000\u0000\u0000\u0000\u0000\u0000\u0000\u0000\u0000\u0000\u0000\u0000\u0000\u0000\u0000\u0000\u0000\u0000\u0000\u0000\u0000\u0000\u0000\u0000\u0000\u0000\u0000\u0000\u0000\u0000\u0000\u0000\u0000\u0000\u0000\u0000\u0000\u0000\u0000\u0000\u0000\u0000\u0000\u0000\u0000\u0000\u0000\u0000\u0000\u0000\u0000\u0000\u0000\u0000\u0000\u0000\u0000\u0000\u0000\u0000\u0000\u0000\u0000\u0000\u0000\u0000\u0000\u0000\u0000\u0000\u0000\u0000\u0000\u0000\u0000\u0000\u0000\u0000\u0000\u0000\u0000\u0000\u0000\u0000\u0000\u0000\u0000\u0000\u0000\u0000\u0000\u0000\u0000\u0000\u0000\u0000\u0000\u0000\u0000\u0000\u0000\u0000\u0000\u0000\u0000\u0000\u0000\u0000\u0000\u0000\u0000\u0000\u0000\u0000\u0000\u0000\u0000\u0000\u0000\u0000\u0000\u0000\u0000\u0000\u0000\u0000\u0000\u0000\u0000",
