{
  "AcquisitionMatrixPE": 104,
  "AcquisitionNumber": 1,
  "AcquisitionTime": "17:01:46.697500",
  "BandwidthPerPixelPhaseEncode": 13.935,
  "BaseResolution": 104,
  "CoilString": "C:HEA;HEP",
  "ConversionSoftware": "dcm2niix",
  "ConversionSoftwareVersion": "v1.0.20210317",
  "DerivedVendorReportedEchoSpacing": 0.000690017,
  "DeviceSerialNumber": "35450",
  "DwellTime": 2.5e-06,
  "EchoTime": 0.0348,
  "EffectiveEchoSpacing": 0.000690017,
  "FlipAngle": 55,
  "ImageComments": "Unaliased MB8/PE3 (remote)",
  "ImageOrientationPatientDICOM": [1, 2.00789e-06, 0.000228425, -1.51369e-08, 0.999962, -0.00872355],
  "ImageType": [
    "ORIGINAL",
    "PRIMARY",
    "M",
    "MB",
    "ND",
    "MOSAIC"
],
  "ImagingFrequency": 123.235,
  "InPlanePhaseEncodingDirectionDICOM": "COL",
  "InstitutionAddress": "Univeristy Ave. 197,Newark,North East,US,07102-1814",
  "InstitutionName": "RUBIC",
  "InstitutionalDepartmentName": "Department",
  "MRAcquisitionType": "2D",
  "MagneticFieldStrength": 3,
  "Manufacturer": "Siemens",
  "ManufacturersModelName": "TrioTim",
  "Modality": "MR",
  "MultibandAccelerationFactor": 8,
  "PartialFourier": 0.875,
  "PatientPosition": "HFS",
  "PercentPhaseFOV": 100,
  "PercentSampling": 100,
  "PhaseEncodingDirection": "j-",
  "PhaseEncodingSteps": 91,
  "PhaseResolution": 1,
  "PixelBandwidth": 1923,
  "ProcedureStepDescription": "Cole^Michael",
  "ProtocolName": "cmrr_mbep2d_bold_2mm_MB8_Task_8x",
  "PulseSequenceDetails": "%CustomerSeq%\\cmrr_mbep2d_bold",
  "ReceiveCoilName": "32Ch_Head",
  "ReconMatrixPE": 104,
  "RepetitionTime": 0.785,
  "SAR": 0.241499,
  "ScanOptions": "PFP\\FS",
  "ScanningSequence": "EP",
  "SequenceName": "epfid2d1_104",
  "SequenceVariant": "SK\\SS",
  "SeriesDescription": "cmrr_mbep2d_bold_2mm_MB8_Task_8x",
  "SeriesNumber": 15,
  "ShimSetting": [2010, -271, -7249, 536, -183, -176, -209, 364],
  "SliceThickness": 2,
  "SliceTiming": [0, 0.4375, 0.0875, 0.525, 0.175, 0.6125, 0.2625, 0.7, 0.35, 0, 0.4375, 0.0875, 0.525, 0.175, 0.6125, 0.2625, 0.7, 0.35, 0, 0.4375, 0.0875, 0.525, 0.175, 0.6125, 0.2625, 0.7, 0.35, 0, 0.4375, 0.0875, 0.525, 0.175, 0.6125, 0.2625, 0.7, 0.35, 0, 0.4375, 0.0875, 0.525, 0.175, 0.6125, 0.2625, 0.7, 0.35, 0, 0.4375, 0.0875, 0.525, 0.175, 0.6125, 0.2625, 0.7, 0.35, 0, 0.4375, 0.0875, 0.525, 0.175, 0.6125, 0.2625, 0.7, 0.35, 0, 0.4375, 0.0875, 0.525, 0.175, 0.6125, 0.2625, 0.7, 0.35],
  "SoftwareVersions": "syngo MR B19",
  "SpacingBetweenSlices": 2,
  "StationName": "MRC35450",
  "TaskName": "cpro",
  "TotalReadoutTime": 0.0710717,
  "TxRefAmp": 460.323,
  "dcmmeta_affine": [
    [-2.0, -3.0273813678149963e-08, 0.00045686843805015087, 103.87020111083984],
    [-4.015785179944942e-06, 1.9999239444732666, -0.0174470916390419, -97.0390396118164],
    [0.00045685077202506363, 0.0174470916390419, 1.999923825263977, -94.84534454345703],
    [0.0, 0.0, 0.0, 1.0]
],
  "dcmmeta_reorient_transform": [
    [0.0, -1.0, 0.0, 103.0],
    [1.0, 0.0, 0.0, 0.0],
    [0.0, 0.0, 1.0, 0.0],
    [0.0, 0.0, 0.0, 1.0]
],
  "dcmmeta_shape": [104, 104, 72, 581],
  "dcmmeta_slice_dim": 2,
  "dcmmeta_version": 0.6,
  "global": {
    "const": {
      "AcquisitionMatrix": [104, 0, 0, 104],
      "AngioFlag": "N",
      "BitsAllocated": 16,
      "BitsStored": 12,
      "Columns": 936,
      "EchoNumbers": 1,
      "EchoTime": 34.8,
      "EchoTrainLength": 1,
      "FlipAngle": 55.0,
      "HighBit": 11,
      "ImageOrientationPatient": [0.99999997390891, 2.007892612e-06, 0.00022842538633, -1.5136906e-08, 0.99996194915097, -0.0087235457355],
      "ImagePositionPatient": [-935.87016125484, -940.92313101081, -85.9803529367],
      "ImageType": [
        "ORIGINAL",
        "PRIMARY",
        "M",
        "MB",
        "ND",
        "MOSAIC"
],
      "ImagedNucleus": "1H",
      "ImagingFrequency": 123.234565,
      "InPlanePhaseEncodingDirection": "COL",
      "MRAcquisitionType": "2D",
      "MagneticFieldStrength": 3.0,
      "Manufacturer": "SIEMENS",
      "ManufacturerModelName": "TrioTim",
      "Modality": "MR",
      "NumberOfAverages": 1.0,
      "NumberOfPhaseEncodingSteps": 91,
      "PercentPhaseFieldOfView": 100.0,
      "PercentSampling": 100.0,
      "PerformedProcedureStepStartTime": "154737.875000",
      "PhotometricInterpretation": "MONOCHROME2",
      "PixelBandwidth": 1923.0,
      "PixelRepresentation": 0,
      "PixelSpacing": [2.0, 2.0],
      "ProtocolName": "cmrr_mbep2d_bold_2mm_MB8_Task_8x",
      "RepetitionTime": 785.0,
      "Rows": 936,
      "SAR": 0.24149931136604,
      "SamplesPerPixel": 1,
      "ScanOptions": [
        "PFP",
        "FS"
],
      "ScanningSequence": "EP",
      "SequenceName": "epfid2d1_104",
      "SequenceVariant": [
        "SK",
        "SS"
],
      "SeriesDescription": "cmrr_mbep2d_bold_2mm_MB8_Task_8x",
      "SeriesNumber": 15,
      "SeriesTime": "170212.265000",
      "SliceLocation": -93.971480056148,
      "SliceThickness": 2.0,
      "SmallestImagePixelValue": 0,
      "SoftwareVersions": "syngo MR B19",
      "SpacingBetweenSlices": 2.0000000210972,
      "SpecificCharacterSet": "ISO_IR 100",
      "StudyID": "1",
      "StudyTime": "154737.828000",
      "TransmitCoilName": "Body",
      "VariableFlipAngleFlag": "N",
      "WindowCenterWidthExplanation": "Algo1",
      "dBdt": 0.0},
    "slices": {}
  },
  "time": {
    "samples": {
      "AcquisitionNumber": [1, 2, 3, 4, 5, 6, 7, 8, 9, 10, 11, 12, 13, 14, 15, 16, 17, 18, 19, 20, 21, 22, 23, 24, 25, 26, 27, 28, 29, 30, 31, 32, 33, 34, 35, 36, 37, 38, 39, 40, 41, 42, 43, 44, 45, 46, 47, 48, 49, 50, 51, 52, 53, 54, 55, 56, 57, 58, 59, 60, 61, 62, 63, 64, 65, 66, 67, 68, 69, 70, 71, 72, 73, 74, 75, 76, 77, 78, 79, 80, 81, 82, 83, 84, 85, 86, 87, 88, 89, 90, 91, 92, 93, 94, 95, 96, 97, 98, 99, 100, 101, 102, 103, 104, 105, 106, 107, 108, 109, 110, 111, 112, 113, 114, 115, 116, 117, 118, 119, 120, 121, 122, 123, 124, 125, 126, 127, 128, 129, 130, 131, 132, 133, 134, 135, 136, 137, 138, 139, 140, 141, 142, 143, 144, 145, 146, 147, 148, 149, 150, 151, 152, 153, 154, 155, 156, 157, 158, 159, 160, 161, 162, 163, 164, 165, 166, 167, 168, 169, 170, 171, 172, 173, 174, 175, 176, 177, 178, 179, 180, 181, 182, 183, 184, 185, 186, 187, 188, 189, 190, 191, 192, 193, 194, 195, 196, 197, 198, 199, 200, 201, 202, 203, 204, 205, 206, 207, 208, 209, 210, 211, 212, 213, 214, 215, 216, 217, 218, 219, 220, 221, 222, 223, 224, 225, 226, 227, 228, 229, 230, 231, 232, 233, 234, 235, 236, 237, 238, 239, 240, 241, 242, 243, 244, 245, 246, 247, 248, 249, 250, 251, 252, 253, 254, 255, 256, 257, 258, 259, 260, 261, 262, 263, 264, 265, 266, 267, 268, 269, 270, 271, 272, 273, 274, 275, 276, 277, 278, 279, 280, 281, 282, 283, 284, 285, 286, 287, 288, 289, 290, 291, 292, 293, 294, 295, 296, 297, 298, 299, 300, 301, 302, 303, 304, 305, 306, 307, 308, 309, 310, 311, 312, 313, 314, 315, 316, 317, 318, 319, 320, 321, 322, 323, 324, 325, 326, 327, 328, 329, 330, 331, 332, 333, 334, 335, 336, 337, 338, 339, 340, 341, 342, 343, 344, 345, 346, 347, 348, 349, 350, 351, 352, 353, 354, 355, 356, 357, 358, 359, 360, 361, 362, 363, 364, 365, 366, 367, 368, 369, 370, 371, 372, 373, 374, 375, 376, 377, 378, 379, 380, 381, 382, 383, 384, 385, 386, 387, 388, 389, 390, 391, 392, 393, 394, 395, 396, 397, 398, 399, 400, 401, 402, 403, 404, 405, 406, 407, 408, 409, 410, 411, 412, 413, 414, 415, 416, 417, 418, 419, 420, 421, 422, 423, 424, 425, 426, 427, 428, 429, 430, 431, 432, 433, 434, 435, 436, 437, 438, 439, 440, 441, 442, 443, 444, 445, 446, 447, 448, 449, 450, 451, 452, 453, 454, 455, 456, 457, 458, 459, 460, 461, 462, 463, 464, 465, 466, 467, 468, 469, 470, 471, 472, 473, 474, 475, 476, 477, 478, 479, 480, 481, 482, 483, 484, 485, 486, 487, 488, 489, 490, 491, 492, 493, 494, 495, 496, 497, 498, 499, 500, 501, 502, 503, 504, 505, 506, 507, 508, 509, 510, 511, 512, 513, 514, 515, 516, 517, 518, 519, 520, 521, 522, 523, 524, 525, 526, 527, 528, 529, 530, 531, 532, 533, 534, 535, 536, 537, 538, 539, 540, 541, 542, 543, 544, 545, 546, 547, 548, 549, 550, 551, 552, 553, 554, 555, 556, 557, 558, 559, 560, 561, 562, 563, 564, 565, 566, 567, 568, 569, 570, 571, 572, 573, 574, 575, 576, 577, 578, 579, 580, 581],
      "AcquisitionTime": ["170146.697500", "170147.485000", "170148.272500", "170149.062500", "170149.850000", "170150.637500", "170151.425000", "170152.215000", "170153.002500", "170153.790000", "170154.580000", "170155.367500", "170156.155000", "170156.942500", "170157.732500", "170158.520000", "170159.307500", "170200.095000", "170200.885000", "170201.672500", "170202.460000", "170203.247500", "170204.037500", "170204.825000", "170205.612500", "170206.400000", "170207.190000", "170207.977500", "170208.765000", "170209.552500", "170210.342500", "170211.130000", "170211.917500", "170212.707500", "170213.495000", "170214.282500", "170215.070000", "170215.860000", "170216.647500", "170217.435000", "170218.222500", "170219.012500", "170219.800000", "170220.587500", "170221.375000", "170222.165000", "170222.952500", "170223.740000", "170224.527500", "170225.317500", "170226.105000", "170226.892500", "170227.680000", "170228.470000", "170229.257500", "170230.045000", "170230.835000", "170231.622500", "170232.410000", "170233.197500", "170233.987500", "170234.775000", "170235.562500", "170236.350000", "170237.140000", "170237.927500", "170238.715000", "170239.502500", "170240.292500", "170241.080000", "170241.867500", "170242.655000", "170243.445000", "170244.232500", "170245.020000", "170245.807500", "170246.597500", "170247.385000", "170248.172500", "170248.962500", "170249.750000", "170250.537500", "170251.325000", "170252.115000", "170252.902500", "170253.690000", "170254.477500", "170255.267500", "170256.055000", "170256.842500", "170257.630000", "170258.420000", "170259.207500", "170259.995000", "170300.782500", "170301.572500", "170302.360000", "170303.147500", "170303.935000", "170304.725000", "170305.512500", "170306.300000", "170307.090000", "170307.877500", "170308.665000", "170309.452500", "170310.242500", "170311.030000", "170311.817500", "170312.605000", "170313.395000", "170314.182500", "170314.970000", "170315.757500", "170316.547500", "170317.335000", "170318.122500", "170318.910000", "170319.700000", "170320.487500", "170321.275000", "170322.062500", "170322.852500", "170323.640000", "170324.427500", "170325.217500", "170326.005000", "170326.792500", "170327.580000", "170328.370000", "170329.157500", "170329.945000", "170330.732500", "170331.522500", "170332.310000", "170333.097500", "170333.885000", "170334.675000", "170335.462500", "170336.250000", "170337.037500", "170337.827500", "170338.615000", "170339.402500", "170340.190000", "170340.980000", "170341.767500", "170342.555000", "170343.345000", "170344.132500", "170344.920000", "170345.707500", "170346.497500", "170347.285000", "170348.072500", "170348.860000", "170349.650000", "170350.437500", "170351.225000", "170352.012500", "170352.802500", "170353.590000", "170354.377500", "170355.165000", "170355.955000", "170356.742500", "170357.530000", "170358.317500", "170359.107500", "170359.895000", "170400.682500", "170401.472500", "170402.260000", "170403.047500", "170403.835000", "170404.625000", "170405.412500", "170406.200000", "170406.987500", "170407.777500", "170408.565000", "170409.352500", "170410.140000", "170410.930000", "170411.717500", "170412.505000", "170413.292500", "170414.082500", "170414.870000", "170415.657500", "170416.445000", "170417.235000", "170418.022500", "170418.810000", "170419.600000", "170420.387500", "170421.175000", "170421.962500", "170422.752500", "170423.540000", "170424.327500", "170425.115000", "170425.905000", "170426.692500", "170427.480000", "170428.267500", "170429.057500", "170429.845000", "170430.632500", "170431.420000", "170432.210000", "170432.997500", "170433.785000", "170434.572500", "170435.362500", "170436.150000", "170436.937500", "170437.727500", "170438.515000", "170439.302500", "170440.090000", "170440.880000", "170441.667500", "170442.455000", "170443.242500", "170444.032500", "170444.820000", "170445.607500", "170446.395000", "170447.185000", "170447.972500", "170448.760000", "170449.547500", "170450.337500", "170451.125000", "170451.912500", "170452.702500", "170453.490000", "170454.277500", "170455.065000", "170455.855000", "170456.642500", "170457.430000", "170458.217500", "170459.007500", "170459.795000", "170500.582500", "170501.370000", "170502.160000", "170502.947500", "170503.735000", "170504.522500", "170505.312500", "170506.100000", "170506.887500", "170507.675000", "170508.465000", "170509.252500", "170510.040000", "170510.830000", "170511.617500", "170512.405000", "170513.192500", "170513.982500", "170514.770000", "170515.557500", "170516.345000", "170517.135000", "170517.922500", "170518.710000", "170519.497500", "170520.287500", "170521.075000", "170521.862500", "170522.650000", "170523.440000", "170524.227500", "170525.015000", "170525.802500", "170526.592500", "170527.380000", "170528.167500", "170528.957500", "170529.745000", "170530.532500", "170531.320000", "170532.110000", "170532.897500", "170533.685000", "170534.472500", "170535.262500", "170536.050000", "170536.837500", "170537.625000", "170538.415000", "170539.202500", "170539.990000", "170540.777500", "170541.567500", "170542.355000", "170543.142500", "170543.930000", "170544.720000", "170545.507500", "170546.295000", "170547.085000", "170547.872500", "170548.660000", "170549.447500", "170550.237500", "170551.025000", "170551.812500", "170552.600000", "170553.390000", "170554.177500", "170554.965000", "170555.752500", "170556.542500", "170557.330000", "170558.117500", "170558.905000", "170559.695000", "170600.482500", "170601.270000", "170602.057500", "170602.847500", "170603.635000", "170604.422500", "170605.212500", "170606.000000", "170606.787500", "170607.575000", "170608.365000", "170609.152500", "170609.940000", "170610.727500", "170611.517500", "170612.305000", "170613.092500", "170613.880000", "170614.670000", "170615.457500", "170616.245000", "170617.032500", "170617.822500", "170618.610000", "170619.397500", "170620.185000", "170620.975000", "170621.762500", "170622.550000", "170623.340000", "170624.127500", "170624.915000", "170625.702500", "170626.492500", "170627.280000", "170628.067500", "170628.855000", "170629.645000", "170630.432500", "170631.220000", "170632.007500", "170632.797500", "170633.585000", "170634.372500", "170635.160000", "170635.950000", "170636.737500", "170637.525000", "170638.312500", "170639.102500", "170639.890000", "170640.677500", "170641.467500", "170642.255000", "170643.042500", "170643.830000", "170644.620000", "170645.407500", "170646.195000", "170646.982500", "170647.772500", "170648.560000", "170649.347500", "170650.135000", "170650.925000", "170651.712500", "170652.500000", "170653.287500", "170654.077500", "170654.865000", "170655.652500", "170656.440000", "170657.230000", "170658.017500", "170658.805000", "170659.595000", "170700.382500", "170701.170000", "170701.957500", "170702.747500", "170703.535000", "170704.322500", "170705.110000", "170705.900000", "170706.687500", "170707.475000", "170708.262500", "170709.052500", "170709.840000", "170710.627500", "170711.415000", "170712.205000", "170712.992500", "170713.780000", "170714.567500", "170715.357500", "170716.145000", "170716.932500", "170717.722500", "170718.510000", "170719.297500", "170720.085000", "170720.875000", "170721.662500", "170722.450000", "170723.237500", "170724.027500", "170724.815000", "170725.602500", "170726.390000", "170727.180000", "170727.967500", "170728.755000", "170729.542500", "170730.332500", "170731.120000", "170731.907500", "170732.695000", "170733.485000", "170734.272500", "170735.060000", "170735.850000", "170736.637500", "170737.425000", "170738.212500", "170739.002500", "170739.790000", "170740.577500", "170741.365000", "170742.155000", "170742.942500", "170743.730000", "170744.517500", "170745.307500", "170746.095000", "170746.882500", "170747.670000", "170748.460000", "170749.247500", "170750.035000", "170750.822500", "170751.612500", "170752.400000", "170753.187500", "170753.977500", "170754.765000", "170755.552500", "170756.340000", "170757.130000", "170757.917500", "170758.705000", "170759.492500", "170800.282500", "170801.070000", "170801.857500", "170802.645000", "170803.435000", "170804.222500", "170805.010000", "170805.797500", "170806.587500", "170807.375000", "170808.162500", "170808.952500", "170809.740000", "170810.527500", "170811.315000", "170812.105000", "170812.892500", "170813.680000", "170814.467500", "170815.257500", "170816.045000", "170816.832500", "170817.620000", "170818.410000", "170819.197500", "170819.985000", "170820.772500", "170821.562500", "170822.350000", "170823.137500", "170823.925000", "170824.715000", "170825.502500", "170826.290000", "170827.080000", "170827.867500", "170828.655000", "170829.442500", "170830.232500", "170831.020000", "170831.807500", "170832.595000", "170833.385000", "170834.172500", "170834.960000", "170835.747500", "170836.537500", "170837.325000", "170838.112500", "170838.900000", "170839.690000", "170840.477500", "170841.265000", "170842.052500", "170842.842500", "170843.630000", "170844.417500", "170845.207500", "170845.995000", "170846.782500", "170847.570000", "170848.360000", "170849.147500", "170849.935000", "170850.722500", "170851.512500", "170852.300000", "170853.087500", "170853.875000", "170854.665000", "170855.452500", "170856.240000", "170857.027500", "170857.817500", "170858.605000", "170859.392500", "170900.180000", "170900.970000", "170901.757500", "170902.545000", "170903.335000", "170904.122500", "170904.910000", "170905.697500", "170906.487500", "170907.275000", "170908.062500", "170908.850000", "170909.640000", "170910.427500", "170911.215000", "170912.002500", "170912.792500", "170913.580000", "170914.367500", "170915.155000", "170915.945000", "170916.732500", "170917.520000", "170918.307500", "170919.097500", "170919.885000", "170920.672500", "170921.462500", "170922.250000", "170923.037500", "170923.825000"],
      "ContentTime": ["170212.265000", "170212.265000", "170212.281000", "170212.281000", "170212.281000", "170212.281000", "170212.281000", "170212.281000", "170212.281000", "170212.296000", "170212.296000", "170212.296000", "170212.296000", "170212.312000", "170212.312000", "170212.312000", "170212.312000", "170212.312000", "170212.328000", "170212.328000", "170212.328000", "170212.328000", "170212.328000", "170212.328000", "170212.328000", "170212.343000", "170212.343000", "170212.359000", "170212.359000", "170232.250000", "170232.250000", "170232.250000", "170232.250000", "170232.250000", "170232.250000", "170232.250000", "170232.265000", "170232.265000", "170232.265000", "170232.265000", "170232.265000", "170232.265000", "170232.281000", "170232.281000", "170232.281000", "170232.281000", "170232.281000", "170232.281000", "170232.281000", "170232.281000", "170232.296000", "170232.296000", "170232.296000", "170232.296000", "170232.296000", "170252.250000", "170252.250000", "170252.250000", "170252.250000", "170252.250000", "170252.265000", "170252.265000", "170252.265000", "170252.265000", "170252.265000", "170252.265000", "170252.281000", "170252.281000", "170252.281000", "170252.281000", "170252.281000", "170252.281000", "170252.281000", "170252.296000", "170252.296000", "170252.296000", "170252.296000", "170252.296000", "170252.296000", "170252.296000", "170312.250000", "170312.250000", "170312.250000", "170312.250000", "170312.250000", "170312.250000", "170312.250000", "170312.265000", "170312.265000", "170312.265000", "170312.265000", "170312.265000", "170312.265000", "170312.265000", "170312.281000", "170312.281000", "170312.281000", "170312.281000", "170312.281000", "170312.281000", "170312.281000", "170312.296000", "170312.296000", "170312.296000", "170312.296000", "170312.296000", "170332.250000", "170332.250000", "170332.250000", "170332.250000", "170332.250000", "170332.250000", "170332.250000", "170332.265000", "170332.265000", "170332.265000", "170332.265000", "170332.265000", "170332.265000", "170332.265000", "170332.281000", "170332.281000", "170332.281000", "170332.281000", "170332.281000", "170332.281000", "170332.296000", "170332.296000", "170332.296000", "170332.296000", "170332.296000", "170352.250000", "170352.250000", "170352.250000", "170352.250000", "170352.250000", "170352.250000", "170352.250000", "170352.265000", "170352.265000", "170352.265000", "170352.265000", "170352.265000", "170352.265000", "170352.265000", "170352.281000", "170352.281000", "170352.281000", "170352.281000", "170352.281000", "170352.281000", "170352.296000", "170352.296000", "170352.296000", "170352.296000", "170352.296000", "170352.296000", "170412.250000", "170412.250000", "170412.250000", "170412.250000", "170412.250000", "170412.250000", "170412.250000", "170412.265000", "170412.265000", "170412.265000", "170412.265000", "170412.265000", "170412.265000", "170412.265000", "170412.281000", "170412.281000", "170412.281000", "170412.281000", "170412.281000", "170412.281000", "170412.281000", "170412.296000", "170412.296000", "170412.296000", "170412.296000", "170432.250000", "170432.250000", "170432.250000", "170432.250000", "170432.250000", "170432.250000", "170432.250000", "170432.265000", "170432.265000", "170432.265000", "170432.265000", "170432.265000", "170432.265000", "170432.265000", "170432.281000", "170432.281000", "170432.281000", "170432.281000", "170432.281000", "170432.281000", "170432.281000", "170432.296000", "170432.296000", "170432.296000", "170432.296000", "170432.296000", "170452.250000", "170452.250000", "170452.250000", "170452.250000", "170452.250000", "170452.250000", "170452.250000", "170452.265000", "170452.265000", "170452.265000", "170452.265000", "170452.265000", "170452.265000", "170452.265000", "170452.281000", "170452.281000", "170452.281000", "170452.281000", "170452.281000", "170452.281000", "170452.281000", "170452.296000", "170452.296000", "170452.296000", "170452.296000", "170512.250000", "170512.250000", "170512.250000", "170512.250000", "170512.250000", "170512.250000", "170512.250000", "170512.265000", "170512.265000", "170512.265000", "170512.265000", "170512.265000", "170512.265000", "170512.265000", "170512.281000", "170512.281000", "170512.281000", "170512.281000", "170512.281000", "170512.281000", "170512.281000", "170512.296000", "170512.296000", "170512.296000", "170512.296000", "170512.296000", "170532.250000", "170532.250000", "170532.250000", "170532.250000", "170532.250000", "170532.250000", "170532.265000", "170532.265000", "170532.265000", "170532.265000", "170532.265000", "170532.265000", "170532.281000", "170532.281000", "170532.281000", "170532.281000", "170532.281000", "170532.296000", "170532.296000", "170532.296000", "170532.296000", "170532.296000", "170532.312000", "170532.312000", "170532.312000", "170552.250000", "170552.250000", "170552.250000", "170552.250000", "170552.250000", "170552.250000", "170552.250000", "170552.265000", "170552.265000", "170552.265000", "170552.265000", "170552.265000", "170552.265000", "170552.281000", "170552.281000", "170552.281000", "170552.281000", "170552.281000", "170552.281000", "170552.281000", "170552.296000", "170552.296000", "170552.296000", "170552.296000", "170552.296000", "170552.296000", "170612.250000", "170612.250000", "170612.250000", "170612.250000", "170612.250000", "170612.250000", "170612.250000", "170612.265000", "170612.265000", "170612.265000", "170612.265000", "170612.265000", "170612.265000", "170612.281000", "170612.281000", "170612.281000", "170612.281000", "170612.281000", "170612.281000", "170612.281000", "170612.296000", "170612.296000", "170612.296000", "170612.296000", "170612.296000", "170632.250000", "170632.250000", "170632.250000", "170632.250000", "170632.265000", "170632.265000", "170632.265000", "170632.265000", "170632.265000", "170632.265000", "170632.265000", "170632.281000", "170632.281000", "170632.281000", "170632.281000", "170632.281000", "170632.281000", "170632.296000", "170632.296000", "170632.296000", "170632.296000", "170632.296000", "170632.296000", "170632.312000", "170632.312000", "170632.312000", "170652.250000", "170652.250000", "170652.250000", "170652.250000", "170652.250000", "170652.265000", "170652.265000", "170652.265000", "170652.265000", "170652.265000", "170652.265000", "170652.265000", "170652.281000", "170652.281000", "170652.281000", "170652.281000", "170652.281000", "170652.281000", "170652.281000", "170652.296000", "170652.296000", "170652.296000", "170652.296000", "170652.296000", "170652.296000", "170712.250000", "170712.250000", "170712.250000", "170712.250000", "170712.250000", "170712.250000", "170712.250000", "170712.265000", "170712.265000", "170712.265000", "170712.265000", "170712.265000", "170712.265000", "170712.281000", "170712.281000", "170712.281000", "170712.281000", "170712.281000", "170712.296000", "170712.296000", "170712.296000", "170712.296000", "170712.296000", "170712.312000", "170712.312000", "170732.250000", "170732.250000", "170732.250000", "170732.250000", "170732.250000", "170732.250000", "170732.250000", "170732.265000", "170732.265000", "170732.265000", "170732.265000", "170732.281000", "170732.281000", "170732.281000", "170732.281000", "170732.281000", "170732.281000", "170732.281000", "170732.296000", "170732.296000", "170732.296000", "170732.296000", "170732.296000", "170732.296000", "170732.296000", "170732.312000", "170752.250000", "170752.250000", "170752.250000", "170752.250000", "170752.250000", "170752.265000", "170752.265000", "170752.265000", "170752.265000", "170752.265000", "170752.265000", "170752.281000", "170752.281000", "170752.296000", "170752.296000", "170752.296000", "170752.296000", "170752.296000", "170752.312000", "170752.312000", "170752.312000", "170752.312000", "170752.312000", "170752.312000", "170752.312000", "170812.250000", "170812.250000", "170812.250000", "170812.250000", "170812.250000", "170812.250000", "170812.250000", "170812.265000", "170812.265000", "170812.265000", "170812.265000", "170812.265000", "170812.265000", "170812.265000", "170812.281000", "170812.281000", "170812.281000", "170812.281000", "170812.281000", "170812.281000", "170812.296000", "170812.296000", "170812.296000", "170812.296000", "170812.296000", "170812.312000", "170832.250000", "170832.250000", "170832.250000", "170832.250000", "170832.250000", "170832.265000", "170832.265000", "170832.265000", "170832.265000", "170832.265000", "170832.265000", "170832.281000", "170832.281000", "170832.281000", "170832.281000", "170832.281000", "170832.281000", "170832.296000", "170832.296000", "170832.296000", "170832.296000", "170832.296000", "170832.296000", "170832.296000", "170832.312000", "170852.250000", "170852.250000", "170852.250000", "170852.250000", "170852.250000", "170852.250000", "170852.250000", "170852.265000", "170852.265000", "170852.265000", "170852.265000", "170852.265000", "170852.281000", "170852.281000", "170852.281000", "170852.281000", "170852.296000", "170852.296000", "170852.296000", "170852.296000", "170852.296000", "170852.296000", "170852.296000", "170852.312000", "170852.312000", "170852.312000", "170912.250000", "170912.250000", "170912.250000", "170912.265000", "170912.265000", "170912.265000", "170912.265000", "170912.265000", "170912.265000", "170912.281000", "170912.281000", "170912.281000", "170912.281000", "170912.281000", "170912.281000", "170912.296000", "170912.296000", "170912.296000", "170912.296000", "170912.312000", "170912.312000", "170912.312000", "170912.312000", "170912.328000", "170912.328000", "170924.953000", "170924.953000", "170924.968000", "170924.968000", "170924.968000", "170924.968000", "170924.968000", "170924.968000", "170925.000000", "170925.000000", "170925.000000", "170925.000000", "170925.000000", "170925.000000", "170925.015000", "170925.015000", "170925.015000"],
      "DataSetTrailingPadding": [
        "\u0000\u0000\u0000\u0000\u0000\u0000\u0000\u0000\u0000\u0000\u0000\u0000\u0000\u0000\u0000\u0000\u0000\u0000\u0000\u0000\u0000\u0000\u0000\u0000\u0000\u0000\u0000\u0000\u0000\u0000\u0000\u0000\u0000\u0000\u0000\u0000\u0000\u0000\u0000\u0000\u0000\u0000\u0000\u0000\u0000\u0000\u0000\u0000\u0000\u0000\u0000\u0000\u0000\u0000\u0000\u0000\u0000\u0000\u0000\u0000\u0000\u0000\u0000\u0000\u0000\u0000\u0000\u0000\u0000\u0000\u0000\u0000\u0000\u0000\u0000\u0000\u0000\u0000\u0000\u0000\u0000\u0000\u0000\u0000\u0000\u0000\u0000\u0000\u0000\u0000\u0000\u0000\u0000\u0000\u0000\u0000\u0000\u0000\u0000\u0000\u0000\u0000\u0000\u0000\u0000\u0000\u0000\u0000\u0000\u0000\u0000\u0000\u0000\u0000\u0000\u0000\u0000\u0000\u0000\u0000\u0000\u0000\u0000\u0000\u0000\u0000\u0000\u0000\u0000\u0000\u0000\u0000\u0000\u0000\u0000\u0000\u0000\u0000\u0000\u0000\u0000\u0000\u0000\u0000\u0000\u0000\u0000\u0000\u0000\u0000\u0000\u0000\u0000\u0000\u0000\u0000\u0000\u0000\u0000\u0000\u0000\u0000\u0000\u0000\u0000\u0000\u0000\u0000\u0000\u0000\u0000\u0000\u0000\u0000\u0000\u0000\u0000\u0000\u0000\u0000\u0000\u0000\u0000\u0000\u0000\u0000\u0000\u0000\u0000\u0000\u0000\u0000\u0000\u0000\u0000\u0000\u0000\u0000\u0000\u0000\u0000\u0000\u0000\u0000\u0000\u0000\u0000\u0000\u0000\u0000\u0000\u0000\u0000\u0000\u0000\u0000\u0000\u0000\u0000\u0000\u0000\u0000\u0000\u0000\u0000\u0000\u0000\u0000\u0000\u0000\u0000\u0000\u0000\u0000\u0000\u0000\u0000\u0000\u0000\u0000\u0000\u0000\u0000\u0000\u0000\u0000\u0000\u0000\u0000\u0000\u0000\u0000\u0000\u0000\u0000\u0000\u0000\u0000\u0000\u0000\u0000\u0000\u0000\u0000\u0000\u0000\u0000\u0000\u0000\u0000\u0000\u0000\u0000\u0000\u0000\u0000\u0000\u0000\u0000\u0000\u0000\u0000\u0000\u0000\u0000\u0000\u0000\u0000\u0000\u0000\u0000\u0000\u0000\u0000\u0000\u0000\u0000\u0000\u0000\u0000",
