{
  "AcquisitionMatrixPE": 104,
  "AcquisitionNumber": 1,
  "AcquisitionTime": "13:23:13.652500",
  "BandwidthPerPixelPhaseEncode": 13.935,
  "BaseResolution": 104,
  "CoilString": "C:HEA;HEP",
  "ConversionSoftware": "dcm2niix",
  "ConversionSoftwareVersion": "v1.0.20210317",
  "DerivedVendorReportedEchoSpacing": 0.000690017,
  "DeviceSerialNumber": "35450",
  "DwellTime": 2.5e-06,
  "EchoTime": 0.0348,
  "EffectiveEchoSpacing": 0.000690017,
  "FlipAngle": 55,
  "ImageComments": "Unaliased MB8/PE3 (remote)",
  "ImageOrientationPatientDICOM": [1, 0, 0, 0, 1, 0],
  "ImageType": [
    "ORIGINAL",
    "PRIMARY",
    "M",
    "MB",
    "ND",
    "MOSAIC"
],
  "ImagingFrequency": 123.234,
  "InPlanePhaseEncodingDirectionDICOM": "COL",
  "InstitutionAddress": "Univeristy Ave. 197,Newark,North East,US,07102-1814",
  "InstitutionName": "RUBIC",
  "InstitutionalDepartmentName": "Department",
  "MRAcquisitionType": "2D",
  "MagneticFieldStrength": 3,
  "Manufacturer": "Siemens",
  "ManufacturersModelName": "TrioTim",
  "Modality": "MR",
  "MultibandAccelerationFactor": 8,
  "PartialFourier": 0.875,
  "PatientPosition": "HFS",
  "PercentPhaseFOV": 100,
  "PercentSampling": 100,
  "PhaseEncodingDirection": "j-",
  "PhaseEncodingSteps": 91,
  "PhaseResolution": 1,
  "PixelBandwidth": 1923,
  "ProcedureStepDescription": "Cole^Michael",
  "ProtocolName": "cmrr_mbep2d_bold_2mm_MB8_Rest",
  "PulseSequenceDetails": "%CustomerSeq%\\cmrr_mbep2d_bold",
  "ReceiveCoilName": "32Ch_Head",
  "ReconMatrixPE": 104,
  "RepetitionTime": 0.785,
  "SAR": 0.175079,
  "ScanOptions": "PFP\\FS",
  "ScanningSequence": "EP",
  "SequenceName": "epfid2d1_104",
  "SequenceVariant": "SK\\SS",
  "SeriesDescription": "cmrr_mbep2d_bold_2mm_MB8_Rest",
  "SeriesNumber": 9,
  "ShimSetting": [2086, -427, -7316, 565, 14, -474, 295, 14],
  "SliceThickness": 2,
  "SliceTiming": [0, 0.4375, 0.0875, 0.525, 0.175, 0.6125, 0.2625, 0.7, 0.35, 0, 0.4375, 0.0875, 0.525, 0.175, 0.6125, 0.2625, 0.7, 0.35, 0, 0.4375, 0.0875, 0.525, 0.175, 0.6125, 0.2625, 0.7, 0.35, 0, 0.4375, 0.0875, 0.525, 0.175, 0.6125, 0.2625, 0.7, 0.35, 0, 0.4375, 0.0875, 0.525, 0.175, 0.6125, 0.2625, 0.7, 0.35, 0, 0.4375, 0.0875, 0.525, 0.175, 0.6125, 0.2625, 0.7, 0.35, 0, 0.4375, 0.0875, 0.525, 0.175, 0.6125, 0.2625, 0.7, 0.35, 0, 0.4375, 0.0875, 0.525, 0.175, 0.6125, 0.2625, 0.7, 0.35],
  "SoftwareVersions": "syngo MR B19",
  "SpacingBetweenSlices": 2,
  "StationName": "MRC35450",
  "TaskName": "rest",
  "TotalReadoutTime": 0.0710717,
  "TxRefAmp": 348.542,
  "dcmmeta_affine": [
    [-2.0, 0.0, 0.0, 103.97078704833984],
    [0.0, 2.0, 0.0, -96.42138671875],
    [0.0, 0.0, 2.0, -91.45520782470703],
    [0.0, 0.0, 0.0, 1.0]
],
  "dcmmeta_reorient_transform": [
    [0.0, -1.0, 0.0, 103.0],
    [1.0, 0.0, 0.0, 0.0],
    [0.0, 0.0, 1.0, 0.0],
    [0.0, 0.0, 0.0, 1.0]
],
  "dcmmeta_shape": [104, 104, 72, 1070],
  "dcmmeta_slice_dim": 2,
  "dcmmeta_version": 0.6,
  "global": {
    "const": {
      "AcquisitionMatrix": [104, 0, 0, 104],
      "AngioFlag": "N",
      "BitsAllocated": 16,
      "BitsStored": 12,
      "Columns": 936,
      "EchoNumbers": 1,
      "EchoTime": 34.8,
      "EchoTrainLength": 1,
      "FlipAngle": 55.0,
      "HighBit": 11,
      "ImageOrientationPatient": [1.0, 0.0, 0.0, 0.0, 1.0, 0.0],
      "ImagePositionPatient": [-935.97078990191, -941.57861614227, -91.455207824707],
      "ImageType": [
        "ORIGINAL",
        "PRIMARY",
        "M",
        "MB",
        "ND",
        "MOSAIC"
],
      "ImagedNucleus": "1H",
      "ImagingFrequency": 123.234332,
      "InPlanePhaseEncodingDirection": "COL",
      "MRAcquisitionType": "2D",
      "MagneticFieldStrength": 3.0,
      "Manufacturer": "SIEMENS",
      "ManufacturerModelName": "TrioTim",
      "Modality": "MR",
      "NumberOfAverages": 1.0,
      "NumberOfPhaseEncodingSteps": 91,
      "PercentPhaseFieldOfView": 100.0,
      "PercentSampling": 100.0,
      "PerformedProcedureStepStartTime": "122804.484000",
      "PhotometricInterpretation": "MONOCHROME2",
      "PixelBandwidth": 1923.0,
      "PixelRepresentation": 0,
      "PixelSpacing": [2.0, 2.0],
      "ProtocolName": "cmrr_mbep2d_bold_2mm_MB8_Rest",
      "RepetitionTime": 785.0,
      "Rows": 936,
      "SAR": 0.17507910552611,
      "SamplesPerPixel": 1,
      "ScanOptions": [
        "PFP",
        "FS"
],
      "ScanningSequence": "EP",
      "SequenceName": "epfid2d1_104",
      "SequenceVariant": [
        "SK",
        "SS"
],
      "SeriesDescription": "cmrr_mbep2d_bold_2mm_MB8_Rest",
      "SeriesNumber": 9,
      "SeriesTime": "132346.687000",
      "SliceLocation": -91.455207824707,
      "SliceThickness": 2.0,
      "SmallestImagePixelValue": 0,
      "SoftwareVersions": "syngo MR B19",
      "SpacingBetweenSlices": 2.0,
      "SpecificCharacterSet": "ISO_IR 100",
      "StudyID": "1",
      "StudyTime": "122804.390000",
      "TransmitCoilName": "Body",
      "VariableFlipAngleFlag": "N",
      "WindowCenterWidthExplanation": "Algo1",
      "dBdt": 0.0},
    "slices": {}
  },
  "time": {
    "samples": {
      "AcquisitionNumber": [1, 2, 3, 4, 5, 6, 7, 8, 9, 10, 11, 12, 13, 14, 15, 16, 17, 18, 19, 20, 21, 22, 23, 24, 25, 26, 27, 28, 29, 30, 31, 32, 33, 34, 35, 36, 37, 38, 39, 40, 41, 42, 43, 44, 45, 46, 47, 48, 49, 50, 51, 52, 53, 54, 55, 56, 57, 58, 59, 60, 61, 62, 63, 64, 65, 66, 67, 68, 69, 70, 71, 72, 73, 74, 75, 76, 77, 78, 79, 80, 81, 82, 83, 84, 85, 86, 87, 88, 89, 90, 91, 92, 93, 94, 95, 96, 97, 98, 99, 100, 101, 102, 103, 104, 105, 106, 107, 108, 109, 110, 111, 112, 113, 114, 115, 116, 117, 118, 119, 120, 121, 122, 123, 124, 125, 126, 127, 128, 129, 130, 131, 132, 133, 134, 135, 136, 137, 138, 139, 140, 141, 142, 143, 144, 145, 146, 147, 148, 149, 150, 151, 152, 153, 154, 155, 156, 157, 158, 159, 160, 161, 162, 163, 164, 165, 166, 167, 168, 169, 170, 171, 172, 173, 174, 175, 176, 177, 178, 179, 180, 181, 182, 183, 184, 185, 186, 187, 188, 189, 190, 191, 192, 193, 194, 195, 196, 197, 198, 199, 200, 201, 202, 203, 204, 205, 206, 207, 208, 209, 210, 211, 212, 213, 214, 215, 216, 217, 218, 219, 220, 221, 222, 223, 224, 225, 226, 227, 228, 229, 230, 231, 232, 233, 234, 235, 236, 237, 238, 239, 240, 241, 242, 243, 244, 245, 246, 247, 248, 249, 250, 251, 252, 253, 254, 255, 256, 257, 258, 259, 260, 261, 262, 263, 264, 265, 266, 267, 268, 269, 270, 271, 272, 273, 274, 275, 276, 277, 278, 279, 280, 281, 282, 283, 284, 285, 286, 287, 288, 289, 290, 291, 292, 293, 294, 295, 296, 297, 298, 299, 300, 301, 302, 303, 304, 305, 306, 307, 308, 309, 310, 311, 312, 313, 314, 315, 316, 317, 318, 319, 320, 321, 322, 323, 324, 325, 326, 327, 328, 329, 330, 331, 332, 333, 334, 335, 336, 337, 338, 339, 340, 341, 342, 343, 344, 345, 346, 347, 348, 349, 350, 351, 352, 353, 354, 355, 356, 357, 358, 359, 360, 361, 362, 363, 364, 365, 366, 367, 368, 369, 370, 371, 372, 373, 374, 375, 376, 377, 378, 379, 380, 381, 382, 383, 384, 385, 386, 387, 388, 389, 390, 391, 392, 393, 394, 395, 396, 397, 398, 399, 400, 401, 402, 403, 404, 405, 406, 407, 408, 409, 410, 411, 412, 413, 414, 415, 416, 417, 418, 419, 420, 421, 422, 423, 424, 425, 426, 427, 428, 429, 430, 431, 432, 433, 434, 435, 436, 437, 438, 439, 440, 441, 442, 443, 444, 445, 446, 447, 448, 449, 450, 451, 452, 453, 454, 455, 456, 457, 458, 459, 460, 461, 462, 463, 464, 465, 466, 467, 468, 469, 470, 471, 472, 473, 474, 475, 476, 477, 478, 479, 480, 481, 482, 483, 484, 485, 486, 487, 488, 489, 490, 491, 492, 493, 494, 495, 496, 497, 498, 499, 500, 501, 502, 503, 504, 505, 506, 507, 508, 509, 510, 511, 512, 513, 514, 515, 516, 517, 518, 519, 520, 521, 522, 523, 524, 525, 526, 527, 528, 529, 530, 531, 532, 533, 534, 535, 536, 537, 538, 539, 540, 541, 542, 543, 544, 545, 546, 547, 548, 549, 550, 551, 552, 553, 554, 555, 556, 557, 558, 559, 560, 561, 562, 563, 564, 565, 566, 567, 568, 569, 570, 571, 572, 573, 574, 575, 576, 577, 578, 579, 580, 581, 582, 583, 584, 585, 586, 587, 588, 589, 590, 591, 592, 593, 594, 595, 596, 597, 598, 599, 600, 601, 602, 603, 604, 605, 606, 607, 608, 609, 610, 611, 612, 613, 614, 615, 616, 617, 618, 619, 620, 621, 622, 623, 624, 625, 626, 627, 628, 629, 630, 631, 632, 633, 634, 635, 636, 637, 638, 639, 640, 641, 642, 643, 644, 645, 646, 647, 648, 649, 650, 651, 652, 653, 654, 655, 656, 657, 658, 659, 660, 661, 662, 663, 664, 665, 666, 667, 668, 669, 670, 671, 672, 673, 674, 675, 676, 677, 678, 679, 680, 681, 682, 683, 684, 685, 686, 687, 688, 689, 690, 691, 692, 693, 694, 695, 696, 697, 698, 699, 700, 701, 702, 703, 704, 705, 706, 707, 708, 709, 710, 711, 712, 713, 714, 715, 716, 717, 718, 719, 720, 721, 722, 723, 724, 725, 726, 727, 728, 729, 730, 731, 732, 733, 734, 735, 736, 737, 738, 739, 740, 741, 742, 743, 744, 745, 746, 747, 748, 749, 750, 751, 752, 753, 754, 755, 756, 757, 758, 759, 760, 761, 762, 763, 764, 765, 766, 767, 768, 769, 770, 771, 772, 773, 774, 775, 776, 777, 778, 779, 780, 781, 782, 783, 784, 785, 786, 787, 788, 789, 790, 791, 792, 793, 794, 795, 796, 797, 798, 799, 800, 801, 802, 803, 804, 805, 806, 807, 808, 809, 810, 811, 812, 813, 814, 815, 816, 817, 818, 819, 820, 821, 822, 823, 824, 825, 826, 827, 828, 829, 830, 831, 832, 833, 834, 835, 836, 837, 838, 839, 840, 841, 842, 843, 844, 845, 846, 847, 848, 849, 850, 851, 852, 853, 854, 855, 856, 857, 858, 859, 860, 861, 862, 863, 864, 865, 866, 867, 868, 869, 870, 871, 872, 873, 874, 875, 876, 877, 878, 879, 880, 881, 882, 883, 884, 885, 886, 887, 888, 889, 890, 891, 892, 893, 894, 895, 896, 897, 898, 899, 900, 901, 902, 903, 904, 905, 906, 907, 908, 909, 910, 911, 912, 913, 914, 915, 916, 917, 918, 919, 920, 921, 922, 923, 924, 925, 926, 927, 928, 929, 930, 931, 932, 933, 934, 935, 936, 937, 938, 939, 940, 941, 942, 943, 944, 945, 946, 947, 948, 949, 950, 951, 952, 953, 954, 955, 956, 957, 958, 959, 960, 961, 962, 963, 964, 965, 966, 967, 968, 969, 970, 971, 972, 973, 974, 975, 976, 977, 978, 979, 980, 981, 982, 983, 984, 985, 986, 987, 988, 989, 990, 991, 992, 993, 994, 995, 996, 997, 998, 999, 1000, 1001, 1002, 1003, 1004, 1005, 1006, 1007, 1008, 1009, 1010, 1011, 1012, 1013, 1014, 1015, 1016, 1017, 1018, 1019, 1020, 1021, 1022, 1023, 1024, 1025, 1026, 1027, 1028, 1029, 1030, 1031, 1032, 1033, 1034, 1035, 1036, 1037, 1038, 1039, 1040, 1041, 1042, 1043, 1044, 1045, 1046, 1047, 1048, 1049, 1050, 1051, 1052, 1053, 1054, 1055, 1056, 1057, 1058, 1059, 1060, 1061, 1062, 1063, 1064, 1065, 1066, 1067, 1068, 1069, 1070],
      "AcquisitionTime": ["132313.652500", "132314.440000", "132315.227500", "132316.017500", "132316.805000", "132317.592500", "132318.380000", "132319.170000", "132319.957500", "132320.745000", "132321.532500", "132322.322500", "132323.110000", "132323.897500", "132324.685000", "132325.475000", "132326.262500", "132327.050000", "132327.837500", "132328.627500", "132329.415000", "132330.202500", "132330.990000", "132331.780000", "132332.567500", "132333.355000", "132334.145000", "132334.932500", "132335.720000", "132336.507500", "132337.297500", "132338.085000", "132338.872500", "132339.660000", "132340.450000", "132341.237500", "132342.025000", "132342.812500", "132343.602500", "132344.390000", "132345.177500", "132345.965000", "132346.755000", "132347.542500", "132348.330000", "132349.117500", "132349.907500", "132350.695000", "132351.482500", "132352.272500", "132353.060000", "132353.847500", "132354.635000", "132355.425000", "132356.212500", "132357.000000", "132357.787500", "132358.577500", "132359.365000", "132400.152500", "132400.940000", "132401.730000", "132402.517500", "132403.305000", "132404.092500", "132404.882500", "132405.670000", "132406.457500", "132407.245000", "132408.035000", "132408.822500", "132409.610000", "132410.400000", "132411.187500", "132411.975000", "132412.762500", "132413.552500", "132414.340000", "132415.127500", "132415.915000", "132416.705000", "132417.492500", "132418.280000", "132419.067500", "132419.857500", "132420.645000", "132421.432500", "132422.220000", "132423.010000", "132423.797500", "132424.585000", "132425.372500", "132426.162500", "132426.950000", "132427.737500", "132428.527500", "132429.315000", "132430.102500", "132430.890000", "132431.680000", "132432.467500", "132433.255000", "132434.042500", "132434.832500", "132435.620000", "132436.407500", "132437.195000", "132437.985000", "132438.772500", "132439.560000", "132440.347500", "132441.137500", "132441.925000", "132442.712500", "132443.500000", "132444.290000", "132445.077500", "132445.865000", "132446.655000", "132447.442500", "132448.230000", "132449.017500", "132449.807500", "132450.595000", "132451.382500", "132452.170000", "132452.960000", "132453.747500", "132454.535000", "132455.322500", "132456.112500", "132456.900000", "132457.687500", "132458.475000", "132459.265000", "132500.052500", "132500.840000", "132501.630000", "132502.417500", "132503.205000", "132503.992500", "132504.782500", "132505.570000", "132506.357500", "132507.145000", "132507.935000", "132508.722500", "132509.510000", "132510.297500", "132511.087500", "132511.875000", "132512.662500", "132513.450000", "132514.240000", "132515.027500", "132515.815000", "132516.602500", "132517.392500", "132518.180000", "132518.967500", "132519.757500", "132520.545000", "132521.332500", "132522.120000", "132522.910000", "132523.697500", "132524.485000", "132525.272500", "132526.062500", "132526.850000", "132527.637500", "132528.425000", "132529.215000", "132530.002500", "132530.790000", "132531.577500", "132532.367500", "132533.155000", "132533.942500", "132534.730000", "132535.520000", "132536.307500", "132537.095000", "132537.885000", "132538.672500", "132539.460000", "132540.247500", "132541.037500", "132541.825000", "132542.612500", "132543.400000", "132544.190000", "132544.977500", "132545.765000", "132546.552500", "132547.342500", "132548.130000", "132548.917500", "132549.705000", "132550.495000", "132551.282500", "132552.070000", "132552.857500", "132553.647500", "132554.435000", "132555.222500", "132556.012500", "132556.800000", "132557.587500", "132558.375000", "132559.165000", "132559.952500", "132600.740000", "132601.527500", "132602.317500", "132603.105000", "132603.892500", "132604.680000", "132605.470000", "132606.257500", "132607.045000", "132607.832500", "132608.622500", "132609.410000", "132610.197500", "132610.985000", "132611.775000", "132612.562500", "132613.350000", "132614.140000", "132614.927500", "132615.715000", "132616.502500", "132617.292500", "132618.080000", "132618.867500", "132619.655000", "132620.445000", "132621.232500", "132622.020000", "132622.807500", "132623.597500", "132624.385000", "132625.172500", "132625.960000", "132626.750000", "132627.537500", "132628.325000", "132629.112500", "132629.902500", "132630.690000", "132631.477500", "132632.267500", "132633.055000", "132633.842500", "132634.630000", "132635.420000", "132636.207500", "132636.995000", "132637.782500", "132638.572500", "132639.360000", "132640.147500", "132640.935000", "132641.725000", "132642.512500", "132643.300000", "132644.087500", "132644.877500", "132645.665000", "132646.452500", "132647.240000", "132648.030000", "132648.817500", "132649.605000", "132650.395000", "132651.182500", "132651.970000", "132652.757500", "132653.547500", "132654.335000", "132655.122500", "132655.910000", "132656.700000", "132657.487500", "132658.275000", "132659.062500", "132659.852500", "132700.640000", "132701.427500", "132702.215000", "132703.005000", "132703.792500", "132704.580000", "132705.367500", "132706.157500", "132706.945000", "132707.732500", "132708.522500", "132709.310000", "132710.097500", "132710.885000", "132711.675000", "132712.462500", "132713.250000", "132714.037500", "132714.827500", "132715.615000", "132716.402500", "132717.190000", "132717.980000", "132718.767500", "132719.555000", "132720.342500", "132721.132500", "132721.920000", "132722.707500", "132723.495000", "132724.285000", "132725.072500", "132725.860000", "132726.650000", "132727.437500", "132728.225000", "132729.012500", "132729.802500", "132730.590000", "132731.377500", "132732.165000", "132732.955000", "132733.742500", "132734.530000", "132735.317500", "132736.107500", "132736.895000", "132737.682500", "132738.470000", "132739.260000", "132740.047500", "132740.835000", "132741.622500", "132742.412500", "132743.200000", "132743.987500", "132744.777500", "132745.565000", "132746.352500", "132747.140000", "132747.930000", "132748.717500", "132749.505000", "132750.292500", "132751.082500", "132751.870000", "132752.657500", "132753.445000", "132754.235000", "132755.022500", "132755.810000", "132756.597500", "132757.387500", "132758.175000", "132758.962500", "132759.750000", "132800.540000", "132801.327500", "132802.115000", "132802.905000", "132803.692500", "132804.480000", "132805.267500", "132806.057500", "132806.845000", "132807.632500", "132808.420000", "132809.210000", "132809.997500", "132810.785000", "132811.572500", "132812.362500", "132813.150000", "132813.937500", "132814.725000", "132815.515000", "132816.302500", "132817.090000", "132817.880000", "132818.667500", "132819.455000", "132820.242500", "132821.032500", "132821.820000", "132822.607500", "132823.395000", "132824.185000", "132824.972500", "132825.760000", "132826.547500", "132827.337500", "132828.125000", "132828.912500", "132829.700000", "132830.490000", "132831.277500", "132832.065000", "132832.852500", "132833.642500", "132834.430000", "132835.217500", "132836.007500", "132836.795000", "132837.582500", "132838.370000", "132839.160000", "132839.947500", "132840.735000", "132841.522500", "132842.312500", "132843.100000", "132843.887500", "132844.675000", "132845.465000", "132846.252500", "132847.040000", "132847.827500", "132848.617500", "132849.405000", "132850.192500", "132850.980000", "132851.770000", "132852.557500", "132853.345000", "132854.135000", "132854.922500", "132855.710000", "132856.497500", "132857.287500", "132858.075000", "132858.862500", "132859.650000", "132900.440000", "132901.227500", "132902.015000", "132902.802500", "132903.592500", "132904.380000", "132905.167500", "132905.955000", "132906.745000", "132907.532500", "132908.320000", "132909.107500", "132909.897500", "132910.685000", "132911.472500", "132912.262500", "132913.050000", "132913.837500", "132914.625000", "132915.415000", "132916.202500", "132916.990000", "132917.777500", "132918.567500", "132919.355000", "132920.142500", "132920.930000", "132921.720000", "132922.507500", "132923.295000", "132924.082500", "132924.872500", "132925.660000", "132926.447500", "132927.235000", "132928.025000", "132928.812500", "132929.600000", "132930.390000", "132931.177500", "132931.965000", "132932.752500", "132933.542500", "132934.330000", "132935.117500", "132935.905000", "132936.695000", "132937.482500", "132938.270000", "132939.057500", "132939.847500", "132940.635000", "132941.422500", "132942.210000", "132943.000000", "132943.787500", "132944.575000", "132945.362500", "132946.152500", "132946.940000", "132947.727500", "132948.517500", "132949.305000", "132950.092500", "132950.880000", "132951.670000", "132952.457500", "132953.245000", "132954.032500", "132954.822500", "132955.610000", "132956.397500", "132957.185000", "132957.975000", "132958.762500", "132959.550000", "133000.337500", "133001.127500", "133001.915000", "133002.702500", "133003.490000", "133004.280000", "133005.067500", "133005.855000", "133006.645000", "133007.432500", "133008.220000", "133009.007500", "133009.797500", "133010.585000", "133011.372500", "133012.160000", "133012.950000", "133013.737500", "133014.525000", "133015.312500", "133016.102500", "133016.890000", "133017.677500", "133018.465000", "133019.255000", "133020.042500", "133020.830000", "133021.617500", "133022.407500", "133023.195000", "133023.982500", "133024.772500", "133025.560000", "133026.347500", "133027.135000", "133027.925000", "133028.712500", "133029.500000", "133030.287500", "133031.077500", "133031.865000", "133032.652500", "133033.440000", "133034.230000", "133035.017500", "133035.805000", "133036.592500", "133037.382500", "133038.170000", "133038.957500", "133039.745000", "133040.535000", "133041.322500", "133042.110000", "133042.900000", "133043.687500", "133044.475000", "133045.262500", "133046.052500", "133046.840000", "133047.627500", "133048.415000", "133049.205000", "133049.992500", "133050.780000", "133051.567500", "133052.357500", "133053.145000", "133053.932500", "133054.720000", "133055.510000", "133056.297500", "133057.085000", "133057.872500", "133058.662500", "133059.450000", "133100.237500", "133101.027500", "133101.815000", "133102.602500", "133103.390000", "133104.180000", "133104.967500", "133105.755000", "133106.542500", "133107.332500", "133108.120000", "133108.907500", "133109.695000", "133110.485000", "133111.272500", "133112.060000", "133112.847500", "133113.637500", "133114.425000", "133115.212500", "133116.000000", "133116.790000", "133117.577500", "133118.365000", "133119.155000", "133119.942500", "133120.730000", "133121.517500", "133122.307500", "133123.095000", "133123.882500", "133124.670000", "133125.460000", "133126.247500", "133127.035000", "133127.822500", "133128.612500", "133129.400000", "133130.187500", "133130.975000", "133131.765000", "133132.552500", "133133.340000", "133134.130000", "133134.917500", "133135.705000", "133136.492500", "133137.282500", "133138.070000", "133138.857500", "133139.645000", "133140.435000", "133141.222500", "133142.010000", "133142.797500", "133143.587500", "133144.375000", "133145.162500", "133145.950000", "133146.740000", "133147.527500", "133148.315000", "133149.102500", "133149.892500", "133150.680000", "133151.467500", "133152.257500", "133153.045000", "133153.832500", "133154.620000", "133155.410000", "133156.197500", "133156.985000", "133157.772500", "133158.562500", "133159.350000", "133200.137500", "133200.925000", "133201.715000", "133202.502500", "133203.290000", "133204.077500", "133204.867500", "133205.655000", "133206.442500", "133207.230000", "133208.020000", "133208.807500", "133209.595000", "133210.385000", "133211.172500", "133211.960000", "133212.747500", "133213.537500", "133214.325000", "133215.112500", "133215.900000", "133216.690000", "133217.477500", "133218.265000", "133219.052500", "133219.842500", "133220.630000", "133221.417500", "133222.205000", "133222.995000", "133223.782500", "133224.570000", "133225.357500", "133226.147500", "133226.935000", "133227.722500", "133228.512500", "133229.300000", "133230.087500", "133230.875000", "133231.665000", "133232.452500", "133233.240000", "133234.027500", "133234.817500", "133235.605000", "133236.392500", "133237.180000", "133237.970000", "133238.757500", "133239.545000", "133240.332500", "133241.122500", "133241.910000", "133242.697500", "133243.485000", "133244.275000", "133245.062500", "133245.850000", "133246.640000", "133247.427500", "133248.215000", "133249.002500", "133249.792500", "133250.580000", "133251.367500", "133252.155000", "133252.945000", "133253.732500", "133254.520000", "133255.307500", "133256.097500", "133256.885000", "133257.672500", "133258.460000", "133259.250000", "133300.037500", "133300.825000", "133301.612500", "133302.402500", "133303.190000", "133303.977500", "133304.767500", "133305.555000", "133306.342500", "133307.130000", "133307.920000", "133308.707500", "133309.495000", "133310.282500", "133311.072500", "133311.860000", "133312.647500", "133313.435000", "133314.225000", "133315.012500", "133315.800000", "133316.587500", "133317.377500", "133318.165000", "133318.952500", "133319.740000", "133320.530000", "133321.317500", "133322.105000", "133322.895000", "133323.682500", "133324.470000", "133325.257500", "133326.047500", "133326.835000", "133327.622500", "133328.410000", "133329.200000", "133329.987500", "133330.775000", "133331.562500", "133332.352500", "133333.140000", "133333.927500", "133334.715000", "133335.505000", "133336.292500", "133337.080000", "133337.867500", "133338.657500", "133339.445000", "133340.232500", "133341.022500", "133341.810000", "133342.597500", "133343.385000", "133344.175000", "133344.962500", "133345.750000", "133346.537500", "133347.327500", "133348.115000", "133348.902500", "133349.690000", "133350.480000", "133351.267500", "133352.055000", "133352.842500", "133353.632500", "133354.420000", "133355.207500", "133355.995000", "133356.785000", "133357.572500", "133358.360000", "133359.150000", "133359.937500", "133400.725000", "133401.512500", "133402.302500", "133403.090000", "133403.877500", "133404.665000", "133405.455000", "133406.242500", "133407.030000", "133407.817500", "133408.607500", "133409.395000", "133410.182500", "133410.970000", "133411.760000", "133412.547500", "133413.335000", "133414.122500", "133414.912500", "133415.700000", "133416.487500", "133417.277500", "133418.065000", "133418.852500", "133419.640000", "133420.430000", "133421.217500", "133422.005000", "133422.792500", "133423.582500", "133424.370000", "133425.157500", "133425.945000", "133426.735000", "133427.522500", "133428.310000", "133429.097500", "133429.887500", "133430.675000", "133431.462500", "133432.250000", "133433.040000", "133433.827500", "133434.615000", "133435.405000", "133436.192500", "133436.980000", "133437.767500", "133438.557500", "133439.345000", "133440.132500", "133440.920000", "133441.710000", "133442.497500", "133443.285000", "133444.072500", "133444.862500", "133445.650000", "133446.437500", "133447.225000", "133448.015000", "133448.802500", "133449.590000", "133450.380000", "133451.167500", "133451.955000", "133452.742500", "133453.532500", "133454.320000", "133455.107500", "133455.895000", "133456.685000", "133457.472500", "133458.260000", "133459.047500", "133459.837500", "133500.625000", "133501.412500", "133502.200000", "133502.990000", "133503.777500", "133504.565000", "133505.352500", "133506.142500", "133506.930000", "133507.717500", "133508.507500", "133509.295000", "133510.082500", "133510.870000", "133511.660000", "133512.447500", "133513.235000", "133514.022500", "133514.812500", "133515.600000", "133516.387500", "133517.175000", "133517.965000", "133518.752500", "133519.540000", "133520.327500", "133521.117500", "133521.905000", "133522.692500", "133523.480000", "133524.270000", "133525.057500", "133525.845000", "133526.635000", "133527.422500", "133528.210000", "133528.997500", "133529.787500", "133530.575000", "133531.362500", "133532.150000", "133532.940000", "133533.727500", "133534.515000", "133535.302500", "133536.092500", "133536.880000", "133537.667500", "133538.455000", "133539.245000", "133540.032500", "133540.820000", "133541.607500", "133542.397500", "133543.185000", "133543.972500", "133544.762500", "133545.550000", "133546.337500", "133547.125000", "133547.915000", "133548.702500", "133549.490000", "133550.277500", "133551.067500", "133551.855000", "133552.642500", "133553.430000", "133554.220000", "133555.007500", "133555.795000", "133556.582500", "133557.372500", "133558.160000", "133558.947500", "133559.735000", "133600.525000", "133601.312500", "133602.100000", "133602.890000", "133603.677500", "133604.465000", "133605.252500", "133606.042500", "133606.830000", "133607.617500", "133608.405000", "133609.195000", "133609.982500", "133610.770000", "133611.557500", "133612.347500", "133613.135000", "133613.922500", "133614.710000", "133615.500000", "133616.287500", "133617.075000", "133617.862500", "133618.652500", "133619.440000", "133620.227500", "133621.017500", "133621.805000", "133622.592500", "133623.380000", "133624.170000", "133624.957500", "133625.745000", "133626.532500", "133627.322500", "133628.110000", "133628.897500", "133629.685000", "133630.475000", "133631.262500", "133632.050000", "133632.837500", "133633.627500", "133634.415000", "133635.202500", "133635.990000", "133636.780000", "133637.567500", "133638.355000", "133639.145000", "133639.932500", "133640.720000", "133641.507500", "133642.297500", "133643.085000", "133643.872500", "133644.660000", "133645.450000", "133646.237500", "133647.025000", "133647.812500", "133648.602500", "133649.390000", "133650.177500", "133650.965000", "133651.755000", "133652.542500", "133653.330000", "133654.117500", "133654.907500", "133655.695000", "133656.482500", "133657.272500", "133658.060000", "133658.847500", "133659.635000", "133700.425000", "133701.212500", "133702.000000", "133702.787500", "133703.577500", "133704.365000", "133705.152500", "133705.940000", "133706.730000", "133707.517500", "133708.305000", "133709.092500", "133709.882500", "133710.670000", "133711.457500", "133712.245000", "133713.035000", "133713.822500", "133714.610000", "133715.400000", "133716.187500"],
