{
  "AcquisitionMatrixPE": 104,
  "AcquisitionNumber": 1,
  "AcquisitionTime": "14:13:47.732500",
  "BandwidthPerPixelPhaseEncode": 13.935,
  "BaseResolution": 104,
  "CoilString": "C:HEA;HEP",
  "ConversionSoftware": "dcm2niix",
  "ConversionSoftwareVersion": "v1.0.20210317",
  "DerivedVendorReportedEchoSpacing": 0.000690017,
  "DeviceSerialNumber": "35450",
  "DwellTime": 2.5e-06,
  "EchoTime": 0.0348,
  "EffectiveEchoSpacing": 0.000690017,
  "FlipAngle": 55,
  "ImageComments": "Unaliased MB8/PE3 (remote)",
  "ImageOrientationPatientDICOM": [1, 0, 0, 0, 1, 0],
  "ImageType": [
    "ORIGINAL",
    "PRIMARY",
    "M",
    "MB",
    "ND",
    "MOSAIC"
],
  "ImagingFrequency": 123.234,
  "InPlanePhaseEncodingDirectionDICOM": "COL",
  "InstitutionAddress": "Univeristy Ave. 197,Newark,North East,US,07102-1814",
  "InstitutionName": "RUBIC",
  "InstitutionalDepartmentName": "Department",
  "MRAcquisitionType": "2D",
  "MagneticFieldStrength": 3,
  "Manufacturer": "Siemens",
  "ManufacturersModelName": "TrioTim",
  "Modality": "MR",
  "MultibandAccelerationFactor": 8,
  "PartialFourier": 0.875,
  "PatientPosition": "HFS",
  "PercentPhaseFOV": 100,
  "PercentSampling": 100,
  "PhaseEncodingDirection": "j-",
  "PhaseEncodingSteps": 91,
  "PhaseResolution": 1,
  "PixelBandwidth": 1923,
  "ProcedureStepDescription": "Cole^Michael",
  "ProtocolName": "cmrr_mbep2d_bold_2mm_MB8_Task_8x",
  "PulseSequenceDetails": "%CustomerSeq%\\cmrr_mbep2d_bold",
  "ReceiveCoilName": "32Ch_Head",
  "ReconMatrixPE": 104,
  "RepetitionTime": 0.785,
  "SAR": 0.15914,
  "ScanOptions": "PFP\\FS",
  "ScanningSequence": "EP",
  "SequenceName": "epfid2d1_104",
  "SequenceVariant": "SK\\SS",
  "SeriesDescription": "cmrr_mbep2d_bold_2mm_MB8_Task_8x",
  "SeriesNumber": 19,
  "ShimSetting": [2086, -427, -7316, 565, 14, -474, 295, 14],
  "SliceThickness": 2,
  "SliceTiming": [0, 0.4375, 0.0875, 0.525, 0.175, 0.6125, 0.2625, 0.7, 0.35, 0, 0.4375, 0.0875, 0.525, 0.175, 0.6125, 0.2625, 0.7, 0.35, 0, 0.4375, 0.0875, 0.525, 0.175, 0.6125, 0.2625, 0.7, 0.35, 0, 0.4375, 0.0875, 0.525, 0.175, 0.6125, 0.2625, 0.7, 0.35, 0, 0.4375, 0.0875, 0.525, 0.175, 0.6125, 0.2625, 0.7, 0.35, 0, 0.4375, 0.0875, 0.525, 0.175, 0.6125, 0.2625, 0.7, 0.35, 0, 0.4375, 0.0875, 0.525, 0.175, 0.6125, 0.2625, 0.7, 0.35, 0, 0.4375, 0.0875, 0.525, 0.175, 0.6125, 0.2625, 0.7, 0.35],
  "SoftwareVersions": "syngo MR B19",
  "SpacingBetweenSlices": 2,
  "StationName": "MRC35450",
  "TaskName": "cpro",
  "TotalReadoutTime": 0.0710717,
  "TxRefAmp": 348.542,
  "dcmmeta_affine": [
    [-2.0, 0.0, 0.0, 103.97078704833984],
    [0.0, 2.0, 0.0, -96.42138671875],
    [0.0, 0.0, 2.0, -91.45520782470703],
    [0.0, 0.0, 0.0, 1.0]
],
  "dcmmeta_reorient_transform": [
    [0.0, -1.0, 0.0, 103.0],
    [1.0, 0.0, 0.0, 0.0],
    [0.0, 0.0, 1.0, 0.0],
    [0.0, 0.0, 0.0, 1.0]
],
  "dcmmeta_shape": [104, 104, 72, 581],
  "dcmmeta_slice_dim": 2,
  "dcmmeta_version": 0.6,
  "global": {
    "const": {
      "AcquisitionMatrix": [104, 0, 0, 104],
      "AngioFlag": "N",
      "BitsAllocated": 16,
      "BitsStored": 12,
      "Columns": 936,
      "EchoNumbers": 1,
      "EchoTime": 34.8,
      "EchoTrainLength": 1,
      "FlipAngle": 55.0,
      "HighBit": 11,
      "ImageOrientationPatient": [1.0, 0.0, 0.0, 0.0, 1.0, 0.0],
      "ImagePositionPatient": [-935.97078990191, -941.57861614227, -91.455207824707],
      "ImageType": [
        "ORIGINAL",
        "PRIMARY",
        "M",
        "MB",
        "ND",
        "MOSAIC"
],
      "ImagedNucleus": "1H",
      "ImagingFrequency": 123.234397,
      "InPlanePhaseEncodingDirection": "COL",
      "MRAcquisitionType": "2D",
      "MagneticFieldStrength": 3.0,
      "Manufacturer": "SIEMENS",
      "ManufacturerModelName": "TrioTim",
      "Modality": "MR",
      "NumberOfAverages": 1.0,
      "NumberOfPhaseEncodingSteps": 91,
      "PercentPhaseFieldOfView": 100.0,
      "PercentSampling": 100.0,
      "PerformedProcedureStepStartTime": "122804.484000",
      "PhotometricInterpretation": "MONOCHROME2",
      "PixelBandwidth": 1923.0,
      "PixelRepresentation": 0,
      "PixelSpacing": [2.0, 2.0],
      "ProtocolName": "cmrr_mbep2d_bold_2mm_MB8_Task_8x",
      "RepetitionTime": 785.0,
      "Rows": 936,
      "SAR": 0.15913971219592,
      "SamplesPerPixel": 1,
      "ScanOptions": [
        "PFP",
        "FS"
],
      "ScanningSequence": "EP",
      "SequenceName": "epfid2d1_104",
      "SequenceVariant": [
        "SK",
        "SS"
],
      "SeriesDescription": "cmrr_mbep2d_bold_2mm_MB8_Task_8x",
      "SeriesNumber": 19,
      "SeriesTime": "141421.140000",
      "SliceLocation": -91.455207824707,
      "SliceThickness": 2.0,
      "SmallestImagePixelValue": 0,
      "SoftwareVersions": "syngo MR B19",
      "SpacingBetweenSlices": 2.0,
      "SpecificCharacterSet": "ISO_IR 100",
      "StudyID": "1",
      "StudyTime": "122804.390000",
      "TransmitCoilName": "Body",
      "VariableFlipAngleFlag": "N",
      "WindowCenterWidthExplanation": "Algo1",
      "dBdt": 0.0},
    "slices": {}
  },
  "time": {
    "samples": {
      "AcquisitionNumber": [1, 2, 3, 4, 5, 6, 7, 8, 9, 10, 11, 12, 13, 14, 15, 16, 17, 18, 19, 20, 21, 22, 23, 24, 25, 26, 27, 28, 29, 30, 31, 32, 33, 34, 35, 36, 37, 38, 39, 40, 41, 42, 43, 44, 45, 46, 47, 48, 49, 50, 51, 52, 53, 54, 55, 56, 57, 58, 59, 60, 61, 62, 63, 64, 65, 66, 67, 68, 69, 70, 71, 72, 73, 74, 75, 76, 77, 78, 79, 80, 81, 82, 83, 84, 85, 86, 87, 88, 89, 90, 91, 92, 93, 94, 95, 96, 97, 98, 99, 100, 101, 102, 103, 104, 105, 106, 107, 108, 109, 110, 111, 112, 113, 114, 115, 116, 117, 118, 119, 120, 121, 122, 123, 124, 125, 126, 127, 128, 129, 130, 131, 132, 133, 134, 135, 136, 137, 138, 139, 140, 141, 142, 143, 144, 145, 146, 147, 148, 149, 150, 151, 152, 153, 154, 155, 156, 157, 158, 159, 160, 161, 162, 163, 164, 165, 166, 167, 168, 169, 170, 171, 172, 173, 174, 175, 176, 177, 178, 179, 180, 181, 182, 183, 184, 185, 186, 187, 188, 189, 190, 191, 192, 193, 194, 195, 196, 197, 198, 199, 200, 201, 202, 203, 204, 205, 206, 207, 208, 209, 210, 211, 212, 213, 214, 215, 216, 217, 218, 219, 220, 221, 222, 223, 224, 225, 226, 227, 228, 229, 230, 231, 232, 233, 234, 235, 236, 237, 238, 239, 240, 241, 242, 243, 244, 245, 246, 247, 248, 249, 250, 251, 252, 253, 254, 255, 256, 257, 258, 259, 260, 261, 262, 263, 264, 265, 266, 267, 268, 269, 270, 271, 272, 273, 274, 275, 276, 277, 278, 279, 280, 281, 282, 283, 284, 285, 286, 287, 288, 289, 290, 291, 292, 293, 294, 295, 296, 297, 298, 299, 300, 301, 302, 303, 304, 305, 306, 307, 308, 309, 310, 311, 312, 313, 314, 315, 316, 317, 318, 319, 320, 321, 322, 323, 324, 325, 326, 327, 328, 329, 330, 331, 332, 333, 334, 335, 336, 337, 338, 339, 340, 341, 342, 343, 344, 345, 346, 347, 348, 349, 350, 351, 352, 353, 354, 355, 356, 357, 358, 359, 360, 361, 362, 363, 364, 365, 366, 367, 368, 369, 370, 371, 372, 373, 374, 375, 376, 377, 378, 379, 380, 381, 382, 383, 384, 385, 386, 387, 388, 389, 390, 391, 392, 393, 394, 395, 396, 397, 398, 399, 400, 401, 402, 403, 404, 405, 406, 407, 408, 409, 410, 411, 412, 413, 414, 415, 416, 417, 418, 419, 420, 421, 422, 423, 424, 425, 426, 427, 428, 429, 430, 431, 432, 433, 434, 435, 436, 437, 438, 439, 440, 441, 442, 443, 444, 445, 446, 447, 448, 449, 450, 451, 452, 453, 454, 455, 456, 457, 458, 459, 460, 461, 462, 463, 464, 465, 466, 467, 468, 469, 470, 471, 472, 473, 474, 475, 476, 477, 478, 479, 480, 481, 482, 483, 484, 485, 486, 487, 488, 489, 490, 491, 492, 493, 494, 495, 496, 497, 498, 499, 500, 501, 502, 503, 504, 505, 506, 507, 508, 509, 510, 511, 512, 513, 514, 515, 516, 517, 518, 519, 520, 521, 522, 523, 524, 525, 526, 527, 528, 529, 530, 531, 532, 533, 534, 535, 536, 537, 538, 539, 540, 541, 542, 543, 544, 545, 546, 547, 548, 549, 550, 551, 552, 553, 554, 555, 556, 557, 558, 559, 560, 561, 562, 563, 564, 565, 566, 567, 568, 569, 570, 571, 572, 573, 574, 575, 576, 577, 578, 579, 580, 581],
      "AcquisitionTime": ["141347.732500", "141348.520000", "141349.310000", "141350.097500", "141350.885000", "141351.672500", "141352.462500", "141353.250000", "141354.037500", "141354.825000", "141355.615000", "141356.402500", "141357.190000", "141357.977500", "141358.767500", "141359.555000", "141400.342500", "141401.130000", "141401.920000", "141402.707500", "141403.495000", "141404.282500", "141405.072500", "141405.860000", "141406.647500", "141407.437500", "141408.225000", "141409.012500", "141409.800000", "141410.590000", "141411.377500", "141412.165000", "141412.952500", "141413.742500", "141414.530000", "141415.317500", "141416.105000", "141416.895000", "141417.682500", "141418.470000", "141419.257500", "141420.047500", "141420.835000", "141421.622500", "141422.410000", "141423.200000", "141423.987500", "141424.775000", "141425.565000", "141426.352500", "141427.140000", "141427.927500", "141428.717500", "141429.505000", "141430.292500", "141431.080000", "141431.870000", "141432.657500", "141433.445000", "141434.232500", "141435.022500", "141435.810000", "141436.597500", "141437.385000", "141438.175000", "141438.962500", "141439.750000", "141440.537500", "141441.327500", "141442.115000", "141442.902500", "141443.692500", "141444.480000", "141445.267500", "141446.055000", "141446.845000", "141447.632500", "141448.420000", "141449.207500", "141449.997500", "141450.785000", "141451.572500", "141452.360000", "141453.150000", "141453.937500", "141454.725000", "141455.512500", "141456.302500", "141457.090000", "141457.877500", "141458.665000", "141459.455000", "141500.242500", "141501.030000", "141501.820000", "141502.607500", "141503.395000", "141504.182500", "141504.972500", "141505.760000", "141506.547500", "141507.335000", "141508.125000", "141508.912500", "141509.700000", "141510.487500", "141511.277500", "141512.065000", "141512.852500", "141513.640000", "141514.430000", "141515.217500", "141516.005000", "141516.792500", "141517.582500", "141518.370000", "141519.157500", "141519.947500", "141520.735000", "141521.522500", "141522.310000", "141523.100000", "141523.887500", "141524.675000", "141525.462500", "141526.252500", "141527.040000", "141527.827500", "141528.615000", "141529.405000", "141530.192500", "141530.980000", "141531.767500", "141532.557500", "141533.345000", "141534.132500", "141534.922500", "141535.710000", "141536.497500", "141537.285000", "141538.075000", "141538.862500", "141539.650000", "141540.437500", "141541.227500", "141542.015000", "141542.802500", "141543.590000", "141544.380000", "141545.167500", "141545.955000", "141546.742500", "141547.532500", "141548.320000", "141549.107500", "141549.895000", "141550.685000", "141551.472500", "141552.260000", "141553.050000", "141553.837500", "141554.625000", "141555.412500", "141556.202500", "141556.990000", "141557.777500", "141558.565000", "141559.355000", "141600.142500", "141600.930000", "141601.717500", "141602.507500", "141603.295000", "141604.082500", "141604.870000", "141605.660000", "141606.447500", "141607.235000", "141608.022500", "141608.812500", "141609.600000", "141610.387500", "141611.177500", "141611.965000", "141612.752500", "141613.540000", "141614.330000", "141615.117500", "141615.905000", "141616.692500", "141617.482500", "141618.270000", "141619.057500", "141619.845000", "141620.635000", "141621.422500", "141622.210000", "141622.997500", "141623.787500", "141624.575000", "141625.362500", "141626.150000", "141626.940000", "141627.727500", "141628.515000", "141629.305000", "141630.092500", "141630.880000", "141631.667500", "141632.457500", "141633.245000", "141634.032500", "141634.820000", "141635.610000", "141636.397500", "141637.185000", "141637.972500", "141638.762500", "141639.550000", "141640.337500", "141641.125000", "141641.915000", "141642.702500", "141643.490000", "141644.277500", "141645.067500", "141645.855000", "141646.642500", "141647.432500", "141648.220000", "141649.007500", "141649.795000", "141650.585000", "141651.372500", "141652.160000", "141652.947500", "141653.737500", "141654.525000", "141655.312500", "141656.100000", "141656.890000", "141657.677500", "141658.465000", "141659.252500", "141700.042500", "141700.830000", "141701.617500", "141702.405000", "141703.195000", "141703.982500", "141704.770000", "141705.560000", "141706.347500", "141707.135000", "141707.922500", "141708.712500", "141709.500000", "141710.287500", "141711.075000", "141711.865000", "141712.652500", "141713.440000", "141714.227500", "141715.017500", "141715.805000", "141716.592500", "141717.380000", "141718.170000", "141718.957500", "141719.745000", "141720.532500", "141721.322500", "141722.110000", "141722.897500", "141723.687500", "141724.475000", "141725.262500", "141726.050000", "141726.840000", "141727.627500", "141728.415000", "141729.202500", "141729.992500", "141730.780000", "141731.567500", "141732.355000", "141733.145000", "141733.932500", "141734.720000", "141735.507500", "141736.297500", "141737.085000", "141737.872500", "141738.660000", "141739.450000", "141740.237500", "141741.025000", "141741.815000", "141742.602500", "141743.390000", "141744.177500", "141744.967500", "141745.755000", "141746.542500", "141747.330000", "141748.120000", "141748.907500", "141749.695000", "141750.482500", "141751.272500", "141752.060000", "141752.847500", "141753.635000", "141754.425000", "141755.212500", "141756.000000", "141756.787500", "141757.577500", "141758.365000", "141759.152500", "141759.942500", "141800.730000", "141801.517500", "141802.305000", "141803.095000", "141803.882500", "141804.670000", "141805.457500", "141806.247500", "141807.035000", "141807.822500", "141808.610000", "141809.400000", "141810.187500", "141810.975000", "141811.762500", "141812.552500", "141813.340000", "141814.127500", "141814.915000", "141815.705000", "141816.492500", "141817.280000", "141818.070000", "141818.857500", "141819.645000", "141820.432500", "141821.222500", "141822.010000", "141822.797500", "141823.585000", "141824.375000", "141825.162500", "141825.950000", "141826.737500", "141827.527500", "141828.315000", "141829.102500", "141829.890000", "141830.680000", "141831.467500", "141832.255000", "141833.042500", "141833.832500", "141834.620000", "141835.407500", "141836.197500", "141836.985000", "141837.772500", "141838.560000", "141839.350000", "141840.137500", "141840.925000", "141841.712500", "141842.502500", "141843.290000", "141844.077500", "141844.865000", "141845.655000", "141846.442500", "141847.230000", "141848.017500", "141848.807500", "141849.595000", "141850.382500", "141851.172500", "141851.960000", "141852.747500", "141853.535000", "141854.325000", "141855.112500", "141855.900000", "141856.687500", "141857.477500", "141858.265000", "141859.052500", "141859.840000", "141900.630000", "141901.417500", "141902.205000", "141902.992500", "141903.782500", "141904.570000", "141905.357500", "141906.145000", "141906.935000", "141907.722500", "141908.510000", "141909.300000", "141910.087500", "141910.875000", "141911.662500", "141912.452500", "141913.240000", "141914.027500", "141914.815000", "141915.605000", "141916.392500", "141917.180000", "141917.967500", "141918.757500", "141919.545000", "141920.332500", "141921.120000", "141921.910000", "141922.697500", "141923.485000", "141924.272500", "141925.062500", "141925.850000", "141926.637500", "141927.427500", "141928.215000", "141929.002500", "141929.790000", "141930.580000", "141931.367500", "141932.155000", "141932.942500", "141933.732500", "141934.520000", "141935.307500", "141936.095000", "141936.885000", "141937.672500", "141938.460000", "141939.247500", "141940.037500", "141940.825000", "141941.612500", "141942.400000", "141943.190000", "141943.977500", "141944.765000", "141945.555000", "141946.342500", "141947.130000", "141947.917500", "141948.707500", "141949.495000", "141950.282500", "141951.070000", "141951.860000", "141952.647500", "141953.435000", "141954.222500", "141955.012500", "141955.800000", "141956.587500", "141957.375000", "141958.165000", "141958.952500", "141959.740000", "142000.527500", "142001.317500", "142002.105000", "142002.892500", "142003.682500", "142004.470000", "142005.257500", "142006.045000", "142006.835000", "142007.622500", "142008.410000", "142009.197500", "142009.987500", "142010.775000", "142011.562500", "142012.350000", "142013.140000", "142013.927500", "142014.715000", "142015.502500", "142016.292500", "142017.080000", "142017.867500", "142018.655000", "142019.445000", "142020.232500", "142021.020000", "142021.810000", "142022.597500", "142023.385000", "142024.172500", "142024.962500", "142025.750000", "142026.537500", "142027.325000", "142028.115000", "142028.902500", "142029.690000", "142030.477500", "142031.267500", "142032.055000", "142032.842500", "142033.630000", "142034.420000", "142035.207500", "142035.995000", "142036.782500", "142037.572500", "142038.360000", "142039.147500", "142039.937500", "142040.725000", "142041.512500", "142042.300000", "142043.090000", "142043.877500", "142044.665000", "142045.452500", "142046.242500", "142047.030000", "142047.817500", "142048.605000", "142049.395000", "142050.182500", "142050.970000", "142051.757500", "142052.547500", "142053.335000", "142054.122500", "142054.910000", "142055.700000", "142056.487500", "142057.275000", "142058.065000", "142058.852500", "142059.640000", "142100.427500", "142101.217500", "142102.005000", "142102.792500", "142103.580000", "142104.370000", "142105.157500", "142105.945000", "142106.732500", "142107.522500", "142108.310000", "142109.097500", "142109.885000", "142110.675000", "142111.462500", "142112.250000", "142113.037500", "142113.827500", "142114.615000", "142115.402500", "142116.192500", "142116.980000", "142117.767500", "142118.555000", "142119.345000", "142120.132500", "142120.920000", "142121.707500", "142122.497500", "142123.285000", "142124.072500", "142124.860000"],
      "ContentTime": ["141421.140000", "141421.140000", "141421.140000", "141421.140000", "141421.140000", "141421.156000", "141421.156000", "141421.156000", "141421.156000", "141421.156000", "141421.156000", "141421.171000", "141421.171000", "141421.171000", "141421.171000", "141421.171000", "141421.187000", "141421.187000", "141421.187000", "141421.187000", "141421.187000", "141421.187000", "141421.187000", "141421.203000", "141421.203000", "141421.203000", "141421.203000", "141421.218000", "141421.218000", "141421.218000", "141421.218000", "141421.234000", "141421.234000", "141421.234000", "141421.234000", "141421.234000", "141421.250000", "141421.250000", "141421.250000", "141441.109000", "141441.109000", "141441.109000", "141441.109000", "141441.109000", "141441.125000", "141441.125000", "141441.125000", "141441.125000", "141441.125000", "141441.125000", "141441.125000", "141441.140000", "141441.140000", "141441.140000", "141441.140000", "141441.156000", "141441.156000", "141441.156000", "141441.156000", "141441.156000", "141441.156000", "141441.156000", "141441.171000", "141441.171000", "141441.171000", "141501.109000", "141501.109000", "141501.109000", "141501.125000", "141501.125000", "141501.125000", "141501.125000", "141501.140000", "141501.140000", "141501.140000", "141501.140000", "141501.140000", "141501.140000", "141501.140000", "141501.156000", "141501.156000", "141501.156000", "141501.156000", "141501.156000", "141501.171000", "141501.171000", "141501.171000", "141501.171000", "141501.171000", "141501.171000", "141521.109000", "141521.109000", "141521.109000", "141521.109000", "141521.109000", "141521.125000", "141521.125000", "141521.125000", "141521.140000", "141521.140000", "141521.140000", "141521.140000", "141521.140000", "141521.140000", "141521.140000", "141521.156000", "141521.156000", "141521.156000", "141521.156000", "141521.156000", "141521.156000", "141521.156000", "141521.171000", "141521.171000", "141521.171000", "141521.171000", "141541.109000", "141541.109000", "141541.109000", "141541.109000", "141541.109000", "141541.125000", "141541.125000", "141541.125000", "141541.125000", "141541.125000", "141541.140000", "141541.140000", "141541.140000", "141541.140000", "141541.140000", "141541.156000", "141541.156000", "141541.156000", "141541.156000", "141541.156000", "141541.156000", "141541.156000", "141541.171000", "141541.171000", "141541.171000", "141601.109000", "141601.109000", "141601.109000", "141601.109000", "141601.109000", "141601.125000", "141601.125000", "141601.125000", "141601.125000", "141601.125000", "141601.125000", "141601.125000", "141601.140000", "141601.140000", "141601.140000", "141601.156000", "141601.156000", "141601.156000", "141601.156000", "141601.156000", "141601.171000", "141601.171000", "141601.171000", "141601.171000", "141601.171000", "141601.171000", "141621.109000", "141621.125000", "141621.125000", "141621.125000", "141621.125000", "141621.125000", "141621.125000", "141621.140000", "141621.140000", "141621.140000", "141621.140000", "141621.140000", "141621.140000", "141621.156000", "141621.156000", "141621.156000", "141621.156000", "141621.171000", "141621.171000", "141621.171000", "141621.187000", "141621.187000", "141621.187000", "141621.187000", "141621.187000", "141641.109000", "141641.109000", "141641.109000", "141641.109000", "141641.125000", "141641.125000", "141641.125000", "141641.140000", "141641.140000", "141641.140000", "141641.140000", "141641.140000", "141641.140000", "141641.140000", "141641.156000", "141641.156000", "141641.156000", "141641.156000", "141641.156000", "141641.156000", "141641.171000", "141641.171000", "141641.171000", "141641.171000", "141641.171000", "141641.171000", "141701.109000", "141701.109000", "141701.109000", "141701.109000", "141701.109000", "141701.125000", "141701.125000", "141701.125000", "141701.140000", "141701.140000", "141701.140000", "141701.140000", "141701.140000", "141701.140000", "141701.140000", "141701.140000", "141701.156000", "141701.156000", "141701.156000", "141701.156000", "141701.156000", "141701.156000", "141701.171000", "141701.171000", "141701.171000", "141721.109000", "141721.109000", "141721.109000", "141721.109000", "141721.109000", "141721.125000", "141721.125000", "141721.125000", "141721.125000", "141721.125000", "141721.125000", "141721.171000", "141721.171000", "141721.171000", "141721.171000", "141721.187000", "141721.187000", "141721.187000", "141721.187000", "141721.187000", "141721.187000", "141721.203000", "141721.203000", "141721.203000", "141721.203000", "141741.109000", "141741.109000", "141741.109000", "141741.109000", "141741.125000", "141741.125000", "141741.125000", "141741.125000", "141741.125000", "141741.125000", "141741.140000", "141741.140000", "141741.140000", "141741.140000", "141741.140000", "141741.140000", "141741.156000", "141741.156000", "141741.156000", "141741.171000", "141741.171000", "141741.171000", "141741.171000", "141741.171000", "141741.171000", "141741.171000", "141801.109000", "141801.109000", "141801.109000", "141801.109000", "141801.125000", "141801.125000", "141801.125000", "141801.125000", "141801.140000", "141801.140000", "141801.140000", "141801.140000", "141801.140000", "141801.140000", "141801.156000", "141801.156000", "141801.156000", "141801.156000", "141801.203000", "141801.203000", "141801.203000", "141801.203000", "141801.203000", "141801.218000", "141801.218000", "141821.109000", "141821.109000", "141821.109000", "141821.109000", "141821.109000", "141821.125000", "141821.125000", "141821.125000", "141821.125000", "141821.140000", "141821.140000", "141821.140000", "141821.140000", "141821.140000", "141821.140000", "141821.140000", "141821.156000", "141821.156000", "141821.156000", "141821.156000", "141821.156000", "141821.156000", "141821.156000", "141821.171000", "141821.171000", "141821.171000", "141841.109000", "141841.109000", "141841.109000", "141841.109000", "141841.109000", "141841.125000", "141841.125000", "141841.125000", "141841.125000", "141841.125000", "141841.125000", "141841.140000", "141841.140000", "141841.140000", "141841.156000", "141841.156000", "141841.156000", "141841.156000", "141841.156000", "141841.171000", "141841.171000", "141841.171000", "141841.171000", "141841.171000", "141841.171000", "141901.109000", "141901.109000", "141901.109000", "141901.109000", "141901.109000", "141901.125000", "141901.125000", "141901.125000", "141901.125000", "141901.125000", "141901.125000", "141901.125000", "141901.140000", "141901.140000", "141901.156000", "141901.156000", "141901.156000", "141901.156000", "141901.156000", "141901.156000", "141901.156000", "141901.171000", "141901.171000", "141901.171000", "141901.171000", "141901.171000", "141921.109000", "141921.109000", "141921.125000", "141921.125000", "141921.125000", "141921.125000", "141921.125000", "141921.125000", "141921.125000", "141921.140000", "141921.140000", "141921.140000", "141921.140000", "141921.140000", "141921.140000", "141921.140000", "141921.156000", "141921.156000", "141921.171000", "141921.171000", "141921.171000", "141921.171000", "141921.171000", "141921.171000", "141921.187000", "141941.109000", "141941.109000", "141941.109000", "141941.109000", "141941.109000", "141941.125000", "141941.125000", "141941.125000", "141941.125000", "141941.140000", "141941.140000", "141941.140000", "141941.140000", "141941.140000", "141941.140000", "141941.156000", "141941.156000", "141941.156000", "141941.156000", "141941.156000", "141941.156000", "141941.171000", "141941.171000", "141941.171000", "141941.171000", "141941.171000", "142001.109000", "142001.109000", "142001.109000", "142001.109000", "142001.109000", "142001.125000", "142001.125000", "142001.125000", "142001.125000", "142001.125000", "142001.140000", "142001.140000", "142001.140000", "142001.140000", "142001.140000", "142001.140000", "142001.140000", "142001.156000", "142001.156000", "142001.156000", "142001.156000", "142001.156000", "142001.156000", "142001.171000", "142001.171000", "142021.109000", "142021.109000", "142021.109000", "142021.109000", "142021.109000", "142021.125000", "142021.125000", "142021.125000", "142021.125000", "142021.125000", "142021.125000", "142021.125000", "142021.140000", "142021.140000", "142021.140000", "142021.140000", "142021.140000", "142021.156000", "142021.156000", "142021.156000", "142021.156000", "142021.156000", "142021.156000", "142021.156000", "142021.171000", "142021.171000", "142041.109000", "142041.109000", "142041.109000", "142041.109000", "142041.109000", "142041.125000", "142041.125000", "142041.125000", "142041.125000", "142041.140000", "142041.140000", "142041.140000", "142041.140000", "142041.140000", "142041.140000", "142041.140000", "142041.156000", "142041.156000", "142041.156000", "142041.171000", "142041.171000", "142041.171000", "142041.171000", "142041.171000", "142041.171000", "142101.109000", "142101.109000", "142101.109000", "142101.125000", "142101.125000", "142101.125000", "142101.125000", "142101.125000", "142101.140000", "142101.140000", "142101.140000", "142101.140000", "142101.140000", "142101.140000", "142101.140000", "142101.156000", "142101.156000", "142101.156000", "142101.156000", "142101.171000", "142101.171000", "142101.171000", "142101.171000", "142101.171000", "142101.171000", "142101.171000", "142121.109000", "142121.109000", "142121.109000", "142121.109000", "142121.109000", "142121.125000", "142121.125000", "142121.140000", "142121.140000", "142121.140000", "142121.140000", "142121.140000", "142121.140000", "142121.140000", "142121.156000", "142121.156000", "142121.156000", "142121.156000", "142121.156000", "142121.156000", "142121.171000", "142121.171000", "142121.171000", "142121.171000", "142121.171000", "142126.156000", "142126.156000", "142126.156000", "142126.156000", "142126.156000", "142126.156000", "142126.171000"],
      "DataSetTrailingPadding": [
