{
  "AcquisitionMatrixPE": 104,
  "AcquisitionNumber": 1,
  "AcquisitionTime": "11:27:12.707500",
  "BandwidthPerPixelPhaseEncode": 13.935,
  "BaseResolution": 104,
  "CoilString": "C:HEA;HEP",
  "ConversionSoftware": "dcm2niix",
  "ConversionSoftwareVersion": "v1.0.20210317",
  "DerivedVendorReportedEchoSpacing": 0.000690017,
  "DeviceSerialNumber": "35450",
  "DwellTime": 2.5e-06,
  "EchoTime": 0.0348,
  "EffectiveEchoSpacing": 0.000690017,
  "FlipAngle": 55,
  "ImageComments": "Unaliased MB8/PE3 (remote)",
  "ImageOrientationPatientDICOM": [0.999506, -0.000273972, 0.0314125, -5.40049e-08, 0.999962, 0.00872313],
  "ImageType": [
    "ORIGINAL",
    "PRIMARY",
    "M",
    "MB",
    "ND",
    "MOSAIC"
],
  "ImagingFrequency": 123.234,
  "InPlanePhaseEncodingDirectionDICOM": "COL",
  "InstitutionAddress": "Univeristy Ave. 197,Newark,North East,US,07102-1814",
  "InstitutionName": "RUBIC",
  "InstitutionalDepartmentName": "Department",
  "MRAcquisitionType": "2D",
  "MagneticFieldStrength": 3,
  "Manufacturer": "Siemens",
  "ManufacturersModelName": "TrioTim",
  "Modality": "MR",
  "MultibandAccelerationFactor": 8,
  "PartialFourier": 0.875,
  "PatientPosition": "HFS",
  "PercentPhaseFOV": 100,
  "PercentSampling": 100,
  "PhaseEncodingDirection": "j-",
  "PhaseEncodingSteps": 91,
  "PhaseResolution": 1,
  "PixelBandwidth": 1923,
  "ProcedureStepDescription": "Cole^Michael",
  "ProtocolName": "cmrr_mbep2d_bold_2mm_MB8_Task_8x",
  "PulseSequenceDetails": "%CustomerSeq%\\cmrr_mbep2d_bold",
  "ReceiveCoilName": "32Ch_Head",
  "ReconMatrixPE": 104,
  "RepetitionTime": 0.785,
  "SAR": 0.128486,
  "ScanOptions": "PFP\\FS",
  "ScanningSequence": "EP",
  "SequenceName": "epfid2d1_104",
  "SequenceVariant": "SK\\SS",
  "SeriesDescription": "cmrr_mbep2d_bold_2mm_MB8_Task_8x",
  "SeriesNumber": 17,
  "ShimSetting": [2128, -382, -7345, 628, -122, -139, 284, -48],
  "SliceThickness": 2,
  "SliceTiming": [0, 0.4375, 0.0875, 0.525, 0.175, 0.6125, 0.2625, 0.7, 0.35, 0, 0.4375, 0.0875, 0.525, 0.175, 0.6125, 0.2625, 0.7, 0.35, 0, 0.4375, 0.0875, 0.525, 0.175, 0.6125, 0.2625, 0.7, 0.35, 0, 0.4375, 0.0875, 0.525, 0.175, 0.6125, 0.2625, 0.7, 0.35, 0, 0.4375, 0.0875, 0.525, 0.175, 0.6125, 0.2625, 0.7, 0.35, 0, 0.4375, 0.0875, 0.525, 0.175, 0.6125, 0.2625, 0.7, 0.35, 0, 0.4375, 0.0875, 0.525, 0.175, 0.6125, 0.2625, 0.7, 0.35, 0, 0.4375, 0.0875, 0.525, 0.175, 0.6125, 0.2625, 0.7, 0.35],
  "SoftwareVersions": "syngo MR B19",
  "SpacingBetweenSlices": 2,
  "StationName": "MRC35450",
  "TaskName": "cpro",
  "TotalReadoutTime": 0.0710717,
  "TxRefAmp": 339.215,
  "dcmmeta_affine": [
    [-1.9990129470825195, -1.0800987126913242e-07, 0.062827467918396, 104.54114532470703],
    [0.0005479442188516259, 1.9999239444732666, 0.017437653616070747, -81.02214813232422],
    [0.06282507628202438, -0.017446260899305344, 1.9989367723464966, -102.02584075927734],
    [0.0, 0.0, 0.0, 1.0]
],
  "dcmmeta_reorient_transform": [
    [0.0, -1.0, 0.0, 103.0],
    [1.0, 0.0, 0.0, 0.0],
    [0.0, 0.0, 1.0, 0.0],
    [0.0, 0.0, 0.0, 1.0]
],
  "dcmmeta_shape": [104, 104, 72, 581],
  "dcmmeta_slice_dim": 2,
  "dcmmeta_version": 0.6,
  "global": {
    "const": {
      "AcquisitionMatrix": [104, 0, 0, 104],
      "AngioFlag": "N",
      "BitsAllocated": 16,
      "BitsStored": 12,
      "Columns": 936,
      "EchoNumbers": 1,
      "EchoTime": 34.8,
      "EchoTrainLength": 1,
      "FlipAngle": 55.0,
      "HighBit": 11,
      "ImageOrientationPatient": [0.99950646687007, -0.0002739721125, 0.03141253928265, -5.4004935e-08, 0.99996195277684, 0.00872313009954],
      "ImagePositionPatient": [-936.13046843851, -956.71041610359, -137.21568344115],
      "ImageType": [
        "ORIGINAL",
        "PRIMARY",
        "M",
        "MB",
        "ND",
        "MOSAIC"
],
      "ImagedNucleus": "1H",
      "ImagingFrequency": 123.234474,
      "InPlanePhaseEncodingDirection": "COL",
      "MRAcquisitionType": "2D",
      "MagneticFieldStrength": 3.0,
      "Manufacturer": "SIEMENS",
      "ManufacturerModelName": "TrioTim",
      "Modality": "MR",
      "NumberOfAverages": 1.0,
      "NumberOfPhaseEncodingSteps": 91,
      "PercentPhaseFieldOfView": 100.0,
      "PercentSampling": 100.0,
      "PerformedProcedureStepStartTime": "102510.640000",
      "PhotometricInterpretation": "MONOCHROME2",
      "PixelBandwidth": 1923.0,
      "PixelRepresentation": 0,
      "PixelSpacing": [2.0, 2.0],
      "ProtocolName": "cmrr_mbep2d_bold_2mm_MB8_Task_8x",
      "RepetitionTime": 785.0,
      "Rows": 936,
      "SAR": 0.12848642899363,
      "SamplesPerPixel": 1,
      "ScanOptions": [
        "PFP",
        "FS"
],
      "ScanningSequence": "EP",
      "SequenceName": "epfid2d1_104",
      "SequenceVariant": [
        "SK",
        "SS"
],
      "SeriesDescription": "cmrr_mbep2d_bold_2mm_MB8_Task_8x",
      "SeriesNumber": 17,
      "SeriesTime": "112733.562000",
      "SliceLocation": -99.393999048507,
      "SliceThickness": 2.0,
      "SmallestImagePixelValue": 0,
      "SoftwareVersions": "syngo MR B19",
      "SpacingBetweenSlices": 1.999999950847,
      "SpecificCharacterSet": "ISO_IR 100",
      "StudyID": "1",
      "StudyTime": "102510.531000",
      "TransmitCoilName": "Body",
      "VariableFlipAngleFlag": "N",
      "WindowCenterWidthExplanation": "Algo1",
      "dBdt": 0.0},
    "slices": {}
  },
  "time": {
    "samples": {
      "AcquisitionNumber": [1, 2, 3, 4, 5, 6, 7, 8, 9, 10, 11, 12, 13, 14, 15, 16, 17, 18, 19, 20, 21, 22, 23, 24, 25, 26, 27, 28, 29, 30, 31, 32, 33, 34, 35, 36, 37, 38, 39, 40, 41, 42, 43, 44, 45, 46, 47, 48, 49, 50, 51, 52, 53, 54, 55, 56, 57, 58, 59, 60, 61, 62, 63, 64, 65, 66, 67, 68, 69, 70, 71, 72, 73, 74, 75, 76, 77, 78, 79, 80, 81, 82, 83, 84, 85, 86, 87, 88, 89, 90, 91, 92, 93, 94, 95, 96, 97, 98, 99, 100, 101, 102, 103, 104, 105, 106, 107, 108, 109, 110, 111, 112, 113, 114, 115, 116, 117, 118, 119, 120, 121, 122, 123, 124, 125, 126, 127, 128, 129, 130, 131, 132, 133, 134, 135, 136, 137, 138, 139, 140, 141, 142, 143, 144, 145, 146, 147, 148, 149, 150, 151, 152, 153, 154, 155, 156, 157, 158, 159, 160, 161, 162, 163, 164, 165, 166, 167, 168, 169, 170, 171, 172, 173, 174, 175, 176, 177, 178, 179, 180, 181, 182, 183, 184, 185, 186, 187, 188, 189, 190, 191, 192, 193, 194, 195, 196, 197, 198, 199, 200, 201, 202, 203, 204, 205, 206, 207, 208, 209, 210, 211, 212, 213, 214, 215, 216, 217, 218, 219, 220, 221, 222, 223, 224, 225, 226, 227, 228, 229, 230, 231, 232, 233, 234, 235, 236, 237, 238, 239, 240, 241, 242, 243, 244, 245, 246, 247, 248, 249, 250, 251, 252, 253, 254, 255, 256, 257, 258, 259, 260, 261, 262, 263, 264, 265, 266, 267, 268, 269, 270, 271, 272, 273, 274, 275, 276, 277, 278, 279, 280, 281, 282, 283, 284, 285, 286, 287, 288, 289, 290, 291, 292, 293, 294, 295, 296, 297, 298, 299, 300, 301, 302, 303, 304, 305, 306, 307, 308, 309, 310, 311, 312, 313, 314, 315, 316, 317, 318, 319, 320, 321, 322, 323, 324, 325, 326, 327, 328, 329, 330, 331, 332, 333, 334, 335, 336, 337, 338, 339, 340, 341, 342, 343, 344, 345, 346, 347, 348, 349, 350, 351, 352, 353, 354, 355, 356, 357, 358, 359, 360, 361, 362, 363, 364, 365, 366, 367, 368, 369, 370, 371, 372, 373, 374, 375, 376, 377, 378, 379, 380, 381, 382, 383, 384, 385, 386, 387, 388, 389, 390, 391, 392, 393, 394, 395, 396, 397, 398, 399, 400, 401, 402, 403, 404, 405, 406, 407, 408, 409, 410, 411, 412, 413, 414, 415, 416, 417, 418, 419, 420, 421, 422, 423, 424, 425, 426, 427, 428, 429, 430, 431, 432, 433, 434, 435, 436, 437, 438, 439, 440, 441, 442, 443, 444, 445, 446, 447, 448, 449, 450, 451, 452, 453, 454, 455, 456, 457, 458, 459, 460, 461, 462, 463, 464, 465, 466, 467, 468, 469, 470, 471, 472, 473, 474, 475, 476, 477, 478, 479, 480, 481, 482, 483, 484, 485, 486, 487, 488, 489, 490, 491, 492, 493, 494, 495, 496, 497, 498, 499, 500, 501, 502, 503, 504, 505, 506, 507, 508, 509, 510, 511, 512, 513, 514, 515, 516, 517, 518, 519, 520, 521, 522, 523, 524, 525, 526, 527, 528, 529, 530, 531, 532, 533, 534, 535, 536, 537, 538, 539, 540, 541, 542, 543, 544, 545, 546, 547, 548, 549, 550, 551, 552, 553, 554, 555, 556, 557, 558, 559, 560, 561, 562, 563, 564, 565, 566, 567, 568, 569, 570, 571, 572, 573, 574, 575, 576, 577, 578, 579, 580, 581],
      "AcquisitionTime": ["112712.707500", "112713.495000", "112714.282500", "112715.070000", "112715.860000", "112716.647500", "112717.435000", "112718.222500", "112719.012500", "112719.800000", "112720.587500", "112721.375000", "112722.165000", "112722.952500", "112723.740000", "112724.530000", "112725.317500", "112726.105000", "112726.892500", "112727.682500", "112728.470000", "112729.257500", "112730.045000", "112730.835000", "112731.622500", "112732.410000", "112733.197500", "112733.987500", "112734.775000", "112735.562500", "112736.350000", "112737.140000", "112737.927500", "112738.715000", "112739.505000", "112740.292500", "112741.080000", "112741.867500", "112742.657500", "112743.445000", "112744.232500", "112745.020000", "112745.810000", "112746.597500", "112747.385000", "112748.172500", "112748.962500", "112749.750000", "112750.537500", "112751.325000", "112752.115000", "112752.902500", "112753.690000", "112754.477500", "112755.267500", "112756.055000", "112756.842500", "112757.632500", "112758.420000", "112759.207500", "112759.995000", "112800.785000", "112801.572500", "112802.360000", "112803.147500", "112803.937500", "112804.725000", "112805.512500", "112806.300000", "112807.090000", "112807.877500", "112808.665000", "112809.452500", "112810.242500", "112811.030000", "112811.817500", "112812.605000", "112813.395000", "112814.182500", "112814.970000", "112815.760000", "112816.547500", "112817.335000", "112818.122500", "112818.912500", "112819.700000", "112820.487500", "112821.275000", "112822.065000", "112822.852500", "112823.640000", "112824.427500", "112825.217500", "112826.005000", "112826.792500", "112827.580000", "112828.370000", "112829.157500", "112829.945000", "112830.732500", "112831.522500", "112832.310000", "112833.097500", "112833.887500", "112834.675000", "112835.462500", "112836.250000", "112837.040000", "112837.827500", "112838.615000", "112839.402500", "112840.192500", "112840.980000", "112841.767500", "112842.555000", "112843.345000", "112844.132500", "112844.920000", "112845.707500", "112846.497500", "112847.285000", "112848.072500", "112848.860000", "112849.650000", "112850.437500", "112851.225000", "112852.015000", "112852.802500", "112853.590000", "112854.377500", "112855.167500", "112855.955000", "112856.742500", "112857.530000", "112858.320000", "112859.107500", "112859.895000", "112900.682500", "112901.472500", "112902.260000", "112903.047500", "112903.835000", "112904.625000", "112905.412500", "112906.200000", "112906.987500", "112907.777500", "112908.565000", "112909.352500", "112910.142500", "112910.930000", "112911.717500", "112912.505000", "112913.295000", "112914.082500", "112914.870000", "112915.657500", "112916.447500", "112917.235000", "112918.022500", "112918.810000", "112919.600000", "112920.387500", "112921.175000", "112921.962500", "112922.752500", "112923.540000", "112924.327500", "112925.115000", "112925.905000", "112926.692500", "112927.480000", "112928.270000", "112929.057500", "112929.845000", "112930.632500", "112931.422500", "112932.210000", "112932.997500", "112933.785000", "112934.575000", "112935.362500", "112936.150000", "112936.937500", "112937.727500", "112938.515000", "112939.302500", "112940.090000", "112940.880000", "112941.667500", "112942.455000", "112943.242500", "112944.032500", "112944.820000", "112945.607500", "112946.397500", "112947.185000", "112947.972500", "112948.760000", "112949.550000", "112950.337500", "112951.125000", "112951.912500", "112952.702500", "112953.490000", "112954.277500", "112955.065000", "112955.855000", "112956.642500", "112957.430000", "112958.217500", "112959.007500", "112959.795000", "113000.582500", "113001.370000", "113002.160000", "113002.947500", "113003.735000", "113004.525000", "113005.312500", "113006.100000", "113006.887500", "113007.677500", "113008.465000", "113009.252500", "113010.040000", "113010.830000", "113011.617500", "113012.405000", "113013.192500", "113013.982500", "113014.770000", "113015.557500", "113016.345000", "113017.135000", "113017.922500", "113018.710000", "113019.497500", "113020.287500", "113021.075000", "113021.862500", "113022.652500", "113023.440000", "113024.227500", "113025.015000", "113025.805000", "113026.592500", "113027.380000", "113028.167500", "113028.957500", "113029.745000", "113030.532500", "113031.320000", "113032.110000", "113032.897500", "113033.685000", "113034.472500", "113035.262500", "113036.050000", "113036.837500", "113037.625000", "113038.415000", "113039.202500", "113039.990000", "113040.780000", "113041.567500", "113042.355000", "113043.142500", "113043.932500", "113044.720000", "113045.507500", "113046.295000", "113047.085000", "113047.872500", "113048.660000", "113049.447500", "113050.237500", "113051.025000", "113051.812500", "113052.600000", "113053.390000", "113054.177500", "113054.965000", "113055.755000", "113056.542500", "113057.330000", "113058.117500", "113058.907500", "113059.695000", "113100.482500", "113101.270000", "113102.060000", "113102.847500", "113103.635000", "113104.422500", "113105.212500", "113106.000000", "113106.787500", "113107.575000", "113108.365000", "113109.152500", "113109.940000", "113110.727500", "113111.517500", "113112.305000", "113113.092500", "113113.882500", "113114.670000", "113115.457500", "113116.245000", "113117.035000", "113117.822500", "113118.610000", "113119.397500", "113120.187500", "113120.975000", "113121.762500", "113122.550000", "113123.340000", "113124.127500", "113124.915000", "113125.702500", "113126.492500", "113127.280000", "113128.067500", "113128.855000", "113129.645000", "113130.432500", "113131.220000", "113132.010000", "113132.797500", "113133.585000", "113134.372500", "113135.162500", "113135.950000", "113136.737500", "113137.525000", "113138.315000", "113139.102500", "113139.890000", "113140.677500", "113141.467500", "113142.255000", "113143.042500", "113143.830000", "113144.620000", "113145.407500", "113146.195000", "113146.982500", "113147.772500", "113148.560000", "113149.347500", "113150.137500", "113150.925000", "113151.712500", "113152.500000", "113153.290000", "113154.077500", "113154.865000", "113155.652500", "113156.442500", "113157.230000", "113158.017500", "113158.805000", "113159.595000", "113200.382500", "113201.170000", "113201.957500", "113202.747500", "113203.535000", "113204.322500", "113205.110000", "113205.900000", "113206.687500", "113207.475000", "113208.265000", "113209.052500", "113209.840000", "113210.627500", "113211.417500", "113212.205000", "113212.992500", "113213.780000", "113214.570000", "113215.357500", "113216.145000", "113216.932500", "113217.722500", "113218.510000", "113219.297500", "113220.085000", "113220.875000", "113221.662500", "113222.450000", "113223.237500", "113224.027500", "113224.815000", "113225.602500", "113226.392500", "113227.180000", "113227.967500", "113228.755000", "113229.545000", "113230.332500", "113231.120000", "113231.907500", "113232.697500", "113233.485000", "113234.272500", "113235.060000", "113235.850000", "113236.637500", "113237.425000", "113238.212500", "113239.002500", "113239.790000", "113240.577500", "113241.365000", "113242.155000", "113242.942500", "113243.730000", "113244.520000", "113245.307500", "113246.095000", "113246.882500", "113247.672500", "113248.460000", "113249.247500", "113250.035000", "113250.825000", "113251.612500", "113252.400000", "113253.187500", "113253.977500", "113254.765000", "113255.552500", "113256.340000", "113257.130000", "113257.917500", "113258.705000", "113259.492500", "113300.282500", "113301.070000", "113301.857500", "113302.647500", "113303.435000", "113304.222500", "113305.010000", "113305.800000", "113306.587500", "113307.375000", "113308.162500", "113308.952500", "113309.740000", "113310.527500", "113311.315000", "113312.105000", "113312.892500", "113313.680000", "113314.467500", "113315.257500", "113316.045000", "113316.832500", "113317.620000", "113318.410000", "113319.197500", "113319.985000", "113320.775000", "113321.562500", "113322.350000", "113323.137500", "113323.927500", "113324.715000", "113325.502500", "113326.290000", "113327.080000", "113327.867500", "113328.655000", "113329.442500", "113330.232500", "113331.020000", "113331.807500", "113332.595000", "113333.385000", "113334.172500", "113334.960000", "113335.747500", "113336.537500", "113337.325000", "113338.112500", "113338.902500", "113339.690000", "113340.477500", "113341.265000", "113342.055000", "113342.842500", "113343.630000", "113344.417500", "113345.207500", "113345.995000", "113346.782500", "113347.570000", "113348.360000", "113349.147500", "113349.935000", "113350.722500", "113351.512500", "113352.300000", "113353.087500", "113353.875000", "113354.665000", "113355.452500", "113356.240000", "113357.030000", "113357.817500", "113358.605000", "113359.392500", "113400.182500", "113400.970000", "113401.757500", "113402.545000", "113403.335000", "113404.122500", "113404.910000", "113405.697500", "113406.487500", "113407.275000", "113408.062500", "113408.850000", "113409.640000", "113410.427500", "113411.215000", "113412.005000", "113412.792500", "113413.580000", "113414.367500", "113415.157500", "113415.945000", "113416.732500", "113417.520000", "113418.310000", "113419.097500", "113419.885000", "113420.672500", "113421.462500", "113422.250000", "113423.037500", "113423.825000", "113424.615000", "113425.402500", "113426.190000", "113426.977500", "113427.767500", "113428.555000", "113429.342500", "113430.132500", "113430.920000", "113431.707500", "113432.495000", "113433.285000", "113434.072500", "113434.860000", "113435.647500", "113436.437500", "113437.225000", "113438.012500", "113438.800000", "113439.590000", "113440.377500", "113441.165000", "113441.952500", "113442.742500", "113443.530000", "113444.317500", "113445.105000", "113445.895000", "113446.682500", "113447.470000", "113448.260000", "113449.047500", "113449.835000"],
      "ContentTime": ["112733.562000", "112733.562000", "112733.562000", "112733.562000", "112733.578000", "112733.578000", "112733.578000", "112733.578000", "112733.578000", "112733.578000", "112733.578000", "112733.593000", "112733.593000", "112733.593000", "112733.593000", "112733.593000", "112733.593000", "112733.593000", "112733.593000", "112733.609000", "112733.609000", "112733.609000", "112733.609000", "112753.531000", "112753.546000", "112753.546000", "112753.546000", "112753.546000", "112753.546000", "112753.546000", "112753.546000", "112753.562000", "112753.562000", "112753.562000", "112753.562000", "112753.562000", "112753.562000", "112753.562000", "112753.562000", "112753.578000", "112753.578000", "112753.578000", "112753.578000", "112753.578000", "112753.578000", "112753.578000", "112753.578000", "112753.593000", "112753.593000", "112813.531000", "112813.546000", "112813.546000", "112813.546000", "112813.546000", "112813.546000", "112813.546000", "112813.546000", "112813.562000", "112813.562000", "112813.562000", "112813.562000", "112813.562000", "112813.562000", "112813.562000", "112813.578000", "112813.578000", "112813.578000", "112813.578000", "112813.578000", "112813.578000", "112813.578000", "112813.593000", "112813.593000", "112813.593000", "112833.531000", "112833.546000", "112833.546000", "112833.546000", "112833.546000", "112833.562000", "112833.562000", "112833.562000", "112833.562000", "112833.562000", "112833.562000", "112833.578000", "112833.578000", "112833.578000", "112833.578000", "112833.578000", "112833.578000", "112833.593000", "112833.593000", "112833.593000", "112833.593000", "112833.593000", "112833.593000", "112833.593000", "112833.609000", "112853.531000", "112853.546000", "112853.546000", "112853.546000", "112853.546000", "112853.546000", "112853.546000", "112853.546000", "112853.562000", "112853.562000", "112853.562000", "112853.562000", "112853.562000", "112853.562000", "112853.562000", "112853.578000", "112853.578000", "112853.578000", "112853.578000", "112853.578000", "112853.578000", "112853.578000", "112853.578000", "112853.593000", "112853.593000", "112853.593000", "112913.531000", "112913.546000", "112913.546000", "112913.546000", "112913.546000", "112913.546000", "112913.546000", "112913.562000", "112913.562000", "112913.562000", "112913.562000", "112913.562000", "112913.562000", "112913.562000", "112913.578000", "112913.578000", "112913.578000", "112913.578000", "112913.578000", "112913.578000", "112913.578000", "112913.593000", "112913.593000", "112913.593000", "112913.593000", "112933.531000", "112933.546000", "112933.546000", "112933.546000", "112933.546000", "112933.546000", "112933.546000", "112933.562000", "112933.562000", "112933.562000", "112933.562000", "112933.562000", "112933.562000", "112933.562000", "112933.578000", "112933.578000", "112933.578000", "112933.578000", "112933.578000", "112933.578000", "112933.578000", "112933.578000", "112933.593000", "112933.593000", "112933.593000", "112933.593000", "112953.531000", "112953.546000", "112953.546000", "112953.546000", "112953.546000", "112953.546000", "112953.546000", "112953.546000", "112953.562000", "112953.562000", "112953.562000", "112953.562000", "112953.562000", "112953.562000", "112953.562000", "112953.562000", "112953.578000", "112953.578000", "112953.578000", "112953.578000", "112953.578000", "112953.593000", "112953.593000", "112953.593000", "112953.593000", "113013.531000", "113013.546000", "113013.546000", "113013.546000", "113013.546000", "113013.546000", "113013.546000", "113013.546000", "113013.562000", "113013.562000", "113013.562000", "113013.562000", "113013.562000", "113013.562000", "113013.562000", "113013.578000", "113013.578000", "113013.578000", "113013.578000", "113013.578000", "113013.578000", "113013.578000", "113013.578000", "113013.593000", "113013.593000", "113013.593000", "113033.531000", "113033.546000", "113033.546000", "113033.546000", "113033.546000", "113033.546000", "113033.546000", "113033.546000", "113033.562000", "113033.562000", "113033.562000", "113033.562000", "113033.562000", "113033.562000", "113033.562000", "113033.578000", "113033.578000", "113033.578000", "113033.578000", "113033.578000", "113033.578000", "113033.578000", "113033.578000", "113033.593000", "113033.593000", "113053.531000", "113053.546000", "113053.546000", "113053.546000", "113053.546000", "113053.546000", "113053.546000", "113053.546000", "113053.562000", "113053.562000", "113053.562000", "113053.562000", "113053.562000", "113053.562000", "113053.562000", "113053.562000", "113053.578000", "113053.578000", "113053.578000", "113053.578000", "113053.578000", "113053.578000", "113053.578000", "113053.593000", "113053.593000", "113053.593000", "113113.531000", "113113.546000", "113113.546000", "113113.546000", "113113.546000", "113113.546000", "113113.546000", "113113.546000", "113113.562000", "113113.562000", "113113.562000", "113113.562000", "113113.562000", "113113.578000", "113113.578000", "113113.578000", "113113.578000", "113113.578000", "113113.578000", "113113.578000", "113113.578000", "113113.593000", "113113.593000", "113113.593000", "113113.593000", "113133.531000", "113133.546000", "113133.546000", "113133.546000", "113133.546000", "113133.546000", "113133.546000", "113133.546000", "113133.562000", "113133.562000", "113133.562000", "113133.562000", "113133.562000", "113133.562000", "113133.562000", "113133.578000", "113133.578000", "113133.578000", "113133.578000", "113133.578000", "113133.593000", "113133.593000", "113133.593000", "113133.593000", "113133.593000", "113133.593000", "113153.531000", "113153.546000", "113153.546000", "113153.546000", "113153.546000", "113153.546000", "113153.546000", "113153.546000", "113153.562000", "113153.578000", "113153.578000", "113153.578000", "113153.578000", "113153.578000", "113153.578000", "113153.578000", "113153.578000", "113153.593000", "113153.593000", "113153.593000", "113153.593000", "113153.593000", "113153.593000", "113153.593000", "113153.609000", "113213.531000", "113213.546000", "113213.546000", "113213.546000", "113213.546000", "113213.546000", "113213.546000", "113213.546000", "113213.562000", "113213.562000", "113213.562000", "113213.562000", "113213.562000", "113213.578000", "113213.578000", "113213.578000", "113213.578000", "113213.578000", "113213.578000", "113213.578000", "113213.578000", "113213.593000", "113213.593000", "113213.593000", "113213.593000", "113213.593000", "113233.531000", "113233.546000", "113233.546000", "113233.546000", "113233.546000", "113233.546000", "113233.546000", "113233.546000", "113233.562000", "113233.562000", "113233.562000", "113233.562000", "113233.562000", "113233.562000", "113233.562000", "113233.578000", "113233.578000", "113233.578000", "113233.578000", "113233.578000", "113233.578000", "113233.578000", "113233.578000", "113233.593000", "113233.593000", "113253.531000", "113253.546000", "113253.546000", "113253.546000", "113253.546000", "113253.546000", "113253.546000", "113253.546000", "113253.562000", "113253.562000", "113253.562000", "113253.562000", "113253.562000", "113253.562000", "113253.562000", "113253.578000", "113253.578000", "113253.578000", "113253.578000", "113253.578000", "113253.578000", "113253.578000", "113253.578000", "113253.593000", "113253.593000", "113253.593000", "113313.531000", "113313.546000", "113313.546000", "113313.546000", "113313.546000", "113313.546000", "113313.546000", "113313.546000", "113313.562000", "113313.562000", "113313.562000", "113313.562000", "113313.562000", "113313.562000", "113313.562000", "113313.578000", "113313.578000", "113313.578000", "113313.578000", "113313.578000", "113313.578000", "113313.578000", "113313.593000", "113313.593000", "113313.593000", "113333.531000", "113333.546000", "113333.546000", "113333.546000", "113333.546000", "113333.546000", "113333.546000", "113333.546000", "113333.562000", "113333.562000", "113333.562000", "113333.562000", "113333.562000", "113333.562000", "113333.562000", "113333.578000", "113333.578000", "113333.578000", "113333.578000", "113333.578000", "113333.578000", "113333.578000", "113333.578000", "113333.593000", "113333.593000", "113333.593000", "113353.531000", "113353.546000", "113353.546000", "113353.546000", "113353.546000", "113353.546000", "113353.546000", "113353.562000", "113353.562000", "113353.562000", "113353.562000", "113353.562000", "113353.562000", "113353.562000", "113353.578000", "113353.578000", "113353.578000", "113353.578000", "113353.578000", "113353.578000", "113353.593000", "113353.593000", "113353.593000", "113353.593000", "113353.593000", "113413.531000", "113413.546000", "113413.546000", "113413.546000", "113413.546000", "113413.546000", "113413.546000", "113413.546000", "113413.562000", "113413.562000", "113413.562000", "113413.562000", "113413.562000", "113413.562000", "113413.562000", "113413.578000", "113413.578000", "113413.578000", "113413.578000", "113413.578000", "113413.578000", "113413.578000", "113413.593000", "113413.593000", "113413.593000", "113413.593000", "113433.531000", "113433.546000", "113433.546000", "113433.546000", "113433.546000", "113433.546000", "113433.546000", "113433.546000", "113433.562000", "113433.562000", "113433.562000", "113433.562000", "113433.562000", "113433.562000", "113433.562000", "113433.578000", "113433.578000", "113433.578000", "113433.578000", "113433.578000", "113433.578000", "113433.578000", "113433.593000", "113433.593000", "113433.593000", "113451.203000", "113451.203000", "113451.203000", "113451.203000", "113451.203000", "113451.218000", "113451.218000", "113451.218000", "113451.218000", "113451.218000", "113451.218000", "113451.218000", "113451.234000", "113451.234000", "113451.234000", "113451.234000", "113451.234000", "113451.234000", "113451.250000", "113451.250000", "113451.250000", "113451.250000", "113451.250000"],
