{
  "AcquisitionMatrixPE": 104,
  "AcquisitionNumber": 1,
  "AcquisitionTime": "12:07:2.725000",
  "BandwidthPerPixelPhaseEncode": 13.935,
  "BaseResolution": 104,
  "CoilString": "C:HEA;HEP",
  "ConversionSoftware": "dcm2niix",
  "ConversionSoftwareVersion": "v1.0.20210317",
  "DerivedVendorReportedEchoSpacing": 0.000690017,
  "DeviceSerialNumber": "35450",
  "DwellTime": 2.5e-06,
  "EchoTime": 0.0348,
  "EffectiveEchoSpacing": 0.000690017,
  "FlipAngle": 55,
  "ImageComments": "Unaliased MB8/PE3 (remote)",
  "ImageOrientationPatientDICOM": [0.999506, -0.000273972, 0.0314125, -5.40049e-08, 0.999962, 0.00872313],
  "ImageType": [
    "ORIGINAL",
    "PRIMARY",
    "M",
    "MB",
    "ND",
    "MOSAIC"
],
  "ImagingFrequency": 123.234,
  "InPlanePhaseEncodingDirectionDICOM": "COL",
  "InstitutionAddress": "Univeristy Ave. 197,Newark,North East,US,07102-1814",
  "InstitutionName": "RUBIC",
  "InstitutionalDepartmentName": "Department",
  "MRAcquisitionType": "2D",
  "MagneticFieldStrength": 3,
  "Manufacturer": "Siemens",
  "ManufacturersModelName": "TrioTim",
  "Modality": "MR",
  "MultibandAccelerationFactor": 8,
  "PartialFourier": 0.875,
  "PatientPosition": "HFS",
  "PercentPhaseFOV": 100,
  "PercentSampling": 100,
  "PhaseEncodingDirection": "j-",
  "PhaseEncodingSteps": 91,
  "PhaseResolution": 1,
  "PixelBandwidth": 1923,
  "ProcedureStepDescription": "Cole^Michael",
  "ProtocolName": "cmrr_mbep2d_bold_2mm_MB8_Task_8x",
  "PulseSequenceDetails": "%CustomerSeq%\\cmrr_mbep2d_bold",
  "ReceiveCoilName": "32Ch_Head",
  "ReconMatrixPE": 104,
  "RepetitionTime": 0.785,
  "SAR": 0.128486,
  "ScanOptions": "PFP\\FS",
  "ScanningSequence": "EP",
  "SequenceName": "epfid2d1_104",
  "SequenceVariant": "SK\\SS",
  "SeriesDescription": "cmrr_mbep2d_bold_2mm_MB8_Task_8x",
  "SeriesNumber": 27,
  "ShimSetting": [2128, -382, -7345, 628, -122, -139, 284, -48],
  "SliceThickness": 2,
  "SliceTiming": [0, 0.4375, 0.0875, 0.525, 0.175, 0.6125, 0.2625, 0.7, 0.35, 0, 0.4375, 0.0875, 0.525, 0.175, 0.6125, 0.2625, 0.7, 0.35, 0, 0.4375, 0.0875, 0.525, 0.175, 0.6125, 0.2625, 0.7, 0.35, 0, 0.4375, 0.0875, 0.525, 0.175, 0.6125, 0.2625, 0.7, 0.35, 0, 0.4375, 0.0875, 0.525, 0.175, 0.6125, 0.2625, 0.7, 0.35, 0, 0.4375, 0.0875, 0.525, 0.175, 0.6125, 0.2625, 0.7, 0.35, 0, 0.4375, 0.0875, 0.525, 0.175, 0.6125, 0.2625, 0.7, 0.35, 0, 0.4375, 0.0875, 0.525, 0.175, 0.6125, 0.2625, 0.7, 0.35],
  "SoftwareVersions": "syngo MR B19",
  "SpacingBetweenSlices": 2,
  "StationName": "MRC35450",
  "TaskName": "cpro",
  "TotalReadoutTime": 0.0710717,
  "TxRefAmp": 339.215,
  "dcmmeta_affine": [
    [-1.9990129470825195, -1.0800987126913242e-07, 0.062827467918396, 104.54114532470703],
    [0.0005479442188516259, 1.9999239444732666, 0.017437653616070747, -81.02214813232422],
    [0.06282507628202438, -0.017446260899305344, 1.9989367723464966, -102.02584075927734],
    [0.0, 0.0, 0.0, 1.0]
],
  "dcmmeta_reorient_transform": [
    [0.0, -1.0, 0.0, 103.0],
    [1.0, 0.0, 0.0, 0.0],
    [0.0, 0.0, 1.0, 0.0],
    [0.0, 0.0, 0.0, 1.0]
],
  "dcmmeta_shape": [104, 104, 72, 581],
  "dcmmeta_slice_dim": 2,
  "dcmmeta_version": 0.6,
  "global": {
    "const": {
      "AcquisitionMatrix": [104, 0, 0, 104],
      "AngioFlag": "N",
      "BitsAllocated": 16,
      "BitsStored": 12,
      "Columns": 936,
      "EchoNumbers": 1,
      "EchoTime": 34.8,
      "EchoTrainLength": 1,
      "FlipAngle": 55.0,
      "HighBit": 11,
      "ImageOrientationPatient": [0.99950646687007, -0.0002739721125, 0.03141253928265, -5.4004935e-08, 0.99996195277684, 0.00872313009954],
      "ImagePositionPatient": [-936.13046843851, -956.71041610359, -137.21568344115],
      "ImageType": [
        "ORIGINAL",
        "PRIMARY",
        "M",
        "MB",
        "ND",
        "MOSAIC"
],
      "ImagedNucleus": "1H",
      "ImagingFrequency": 123.234474,
      "InPlanePhaseEncodingDirection": "COL",
      "MRAcquisitionType": "2D",
      "MagneticFieldStrength": 3.0,
      "Manufacturer": "SIEMENS",
      "ManufacturerModelName": "TrioTim",
      "Modality": "MR",
      "NumberOfAverages": 1.0,
      "NumberOfPhaseEncodingSteps": 91,
      "PercentPhaseFieldOfView": 100.0,
      "PercentSampling": 100.0,
      "PerformedProcedureStepStartTime": "102510.640000",
      "PhotometricInterpretation": "MONOCHROME2",
      "PixelBandwidth": 1923.0,
      "PixelRepresentation": 0,
      "PixelSpacing": [2.0, 2.0],
      "ProtocolName": "cmrr_mbep2d_bold_2mm_MB8_Task_8x",
      "RepetitionTime": 785.0,
      "Rows": 936,
      "SAR": 0.12848642899363,
      "SamplesPerPixel": 1,
      "ScanOptions": [
        "PFP",
        "FS"
],
      "ScanningSequence": "EP",
      "SequenceName": "epfid2d1_104",
      "SequenceVariant": [
        "SK",
        "SS"
],
      "SeriesDescription": "cmrr_mbep2d_bold_2mm_MB8_Task_8x",
      "SeriesNumber": 27,
      "SeriesTime": "120733.593000",
      "SliceLocation": -99.393999048507,
      "SliceThickness": 2.0,
      "SmallestImagePixelValue": 0,
      "SoftwareVersions": "syngo MR B19",
      "SpacingBetweenSlices": 1.999999950847,
      "SpecificCharacterSet": "ISO_IR 100",
      "StudyID": "1",
      "StudyTime": "102510.531000",
      "TransmitCoilName": "Body",
      "VariableFlipAngleFlag": "N",
      "WindowCenterWidthExplanation": "Algo1",
      "dBdt": 0.0},
    "slices": {}
  },
  "time": {
    "samples": {
      "AcquisitionNumber": [1, 2, 3, 4, 5, 6, 7, 8, 9, 10, 11, 12, 13, 14, 15, 16, 17, 18, 19, 20, 21, 22, 23, 24, 25, 26, 27, 28, 29, 30, 31, 32, 33, 34, 35, 36, 37, 38, 39, 40, 41, 42, 43, 44, 45, 46, 47, 48, 49, 50, 51, 52, 53, 54, 55, 56, 57, 58, 59, 60, 61, 62, 63, 64, 65, 66, 67, 68, 69, 70, 71, 72, 73, 74, 75, 76, 77, 78, 79, 80, 81, 82, 83, 84, 85, 86, 87, 88, 89, 90, 91, 92, 93, 94, 95, 96, 97, 98, 99, 100, 101, 102, 103, 104, 105, 106, 107, 108, 109, 110, 111, 112, 113, 114, 115, 116, 117, 118, 119, 120, 121, 122, 123, 124, 125, 126, 127, 128, 129, 130, 131, 132, 133, 134, 135, 136, 137, 138, 139, 140, 141, 142, 143, 144, 145, 146, 147, 148, 149, 150, 151, 152, 153, 154, 155, 156, 157, 158, 159, 160, 161, 162, 163, 164, 165, 166, 167, 168, 169, 170, 171, 172, 173, 174, 175, 176, 177, 178, 179, 180, 181, 182, 183, 184, 185, 186, 187, 188, 189, 190, 191, 192, 193, 194, 195, 196, 197, 198, 199, 200, 201, 202, 203, 204, 205, 206, 207, 208, 209, 210, 211, 212, 213, 214, 215, 216, 217, 218, 219, 220, 221, 222, 223, 224, 225, 226, 227, 228, 229, 230, 231, 232, 233, 234, 235, 236, 237, 238, 239, 240, 241, 242, 243, 244, 245, 246, 247, 248, 249, 250, 251, 252, 253, 254, 255, 256, 257, 258, 259, 260, 261, 262, 263, 264, 265, 266, 267, 268, 269, 270, 271, 272, 273, 274, 275, 276, 277, 278, 279, 280, 281, 282, 283, 284, 285, 286, 287, 288, 289, 290, 291, 292, 293, 294, 295, 296, 297, 298, 299, 300, 301, 302, 303, 304, 305, 306, 307, 308, 309, 310, 311, 312, 313, 314, 315, 316, 317, 318, 319, 320, 321, 322, 323, 324, 325, 326, 327, 328, 329, 330, 331, 332, 333, 334, 335, 336, 337, 338, 339, 340, 341, 342, 343, 344, 345, 346, 347, 348, 349, 350, 351, 352, 353, 354, 355, 356, 357, 358, 359, 360, 361, 362, 363, 364, 365, 366, 367, 368, 369, 370, 371, 372, 373, 374, 375, 376, 377, 378, 379, 380, 381, 382, 383, 384, 385, 386, 387, 388, 389, 390, 391, 392, 393, 394, 395, 396, 397, 398, 399, 400, 401, 402, 403, 404, 405, 406, 407, 408, 409, 410, 411, 412, 413, 414, 415, 416, 417, 418, 419, 420, 421, 422, 423, 424, 425, 426, 427, 428, 429, 430, 431, 432, 433, 434, 435, 436, 437, 438, 439, 440, 441, 442, 443, 444, 445, 446, 447, 448, 449, 450, 451, 452, 453, 454, 455, 456, 457, 458, 459, 460, 461, 462, 463, 464, 465, 466, 467, 468, 469, 470, 471, 472, 473, 474, 475, 476, 477, 478, 479, 480, 481, 482, 483, 484, 485, 486, 487, 488, 489, 490, 491, 492, 493, 494, 495, 496, 497, 498, 499, 500, 501, 502, 503, 504, 505, 506, 507, 508, 509, 510, 511, 512, 513, 514, 515, 516, 517, 518, 519, 520, 521, 522, 523, 524, 525, 526, 527, 528, 529, 530, 531, 532, 533, 534, 535, 536, 537, 538, 539, 540, 541, 542, 543, 544, 545, 546, 547, 548, 549, 550, 551, 552, 553, 554, 555, 556, 557, 558, 559, 560, 561, 562, 563, 564, 565, 566, 567, 568, 569, 570, 571, 572, 573, 574, 575, 576, 577, 578, 579, 580, 581],
      "AcquisitionTime": ["120702.725000", "120703.512500", "120704.300000", "120705.087500", "120705.877500", "120706.665000", "120707.452500", "120708.240000", "120709.030000", "120709.817500", "120710.605000", "120711.392500", "120712.182500", "120712.970000", "120713.757500", "120714.545000", "120715.335000", "120716.122500", "120716.910000", "120717.700000", "120718.487500", "120719.275000", "120720.062500", "120720.852500", "120721.640000", "120722.427500", "120723.215000", "120724.005000", "120724.792500", "120725.580000", "120726.367500", "120727.157500", "120727.945000", "120728.732500", "120729.520000", "120730.310000", "120731.097500", "120731.885000", "120732.672500", "120733.462500", "120734.250000", "120735.037500", "120735.827500", "120736.615000", "120737.402500", "120738.190000", "120738.980000", "120739.767500", "120740.555000", "120741.342500", "120742.132500", "120742.920000", "120743.707500", "120744.495000", "120745.285000", "120746.072500", "120746.860000", "120747.647500", "120748.437500", "120749.225000", "120750.012500", "120750.800000", "120751.590000", "120752.377500", "120753.165000", "120753.955000", "120754.742500", "120755.530000", "120756.317500", "120757.107500", "120757.895000", "120758.682500", "120759.470000", "120800.260000", "120801.047500", "120801.835000", "120802.622500", "120803.412500", "120804.200000", "120804.987500", "120805.775000", "120806.565000", "120807.352500", "120808.140000", "120808.927500", "120809.717500", "120810.505000", "120811.292500", "120812.082500", "120812.870000", "120813.657500", "120814.445000", "120815.235000", "120816.022500", "120816.810000", "120817.597500", "120818.387500", "120819.175000", "120819.962500", "120820.750000", "120821.540000", "120822.327500", "120823.115000", "120823.902500", "120824.692500", "120825.480000", "120826.267500", "120827.055000", "120827.845000", "120828.632500", "120829.420000", "120830.210000", "120830.997500", "120831.785000", "120832.572500", "120833.362500", "120834.150000", "120834.937500", "120835.725000", "120836.515000", "120837.302500", "120838.090000", "120838.877500", "120839.667500", "120840.455000", "120841.242500", "120842.030000", "120842.820000", "120843.607500", "120844.395000", "120845.182500", "120845.972500", "120846.760000", "120847.547500", "120848.337500", "120849.125000", "120849.912500", "120850.700000", "120851.490000", "120852.277500", "120853.065000", "120853.852500", "120854.642500", "120855.430000", "120856.217500", "120857.005000", "120857.795000", "120858.582500", "120859.370000", "120900.157500", "120900.947500", "120901.735000", "120902.522500", "120903.310000", "120904.100000", "120904.887500", "120905.675000", "120906.465000", "120907.252500", "120908.040000", "120908.827500", "120909.617500", "120910.405000", "120911.192500", "120911.980000", "120912.770000", "120913.557500", "120914.345000", "120915.132500", "120915.922500", "120916.710000", "120917.497500", "120918.285000", "120919.075000", "120919.862500", "120920.650000", "120921.437500", "120922.227500", "120923.015000", "120923.802500", "120924.592500", "120925.380000", "120926.167500", "120926.955000", "120927.745000", "120928.532500", "120929.320000", "120930.107500", "120930.897500", "120931.685000", "120932.472500", "120933.260000", "120934.050000", "120934.837500", "120935.625000", "120936.412500", "120937.202500", "120937.990000", "120938.777500", "120939.565000", "120940.355000", "120941.142500", "120941.930000", "120942.720000", "120943.507500", "120944.295000", "120945.082500", "120945.872500", "120946.660000", "120947.447500", "120948.235000", "120949.025000", "120949.812500", "120950.600000", "120951.387500", "120952.177500", "120952.965000", "120953.752500", "120954.540000", "120955.330000", "120956.117500", "120956.905000", "120957.695000", "120958.482500", "120959.270000", "121000.057500", "121000.847500", "121001.635000", "121002.422500", "121003.210000", "121004.000000", "121004.787500", "121005.575000", "121006.362500", "121007.152500", "121007.940000", "121008.727500", "121009.515000", "121010.305000", "121011.092500", "121011.880000", "121012.667500", "121013.457500", "121014.245000", "121015.032500", "121015.822500", "121016.610000", "121017.397500", "121018.185000", "121018.975000", "121019.762500", "121020.550000", "121021.337500", "121022.127500", "121022.915000", "121023.702500", "121024.490000", "121025.280000", "121026.067500", "121026.855000", "121027.642500", "121028.432500", "121029.220000", "121030.007500", "121030.795000", "121031.585000", "121032.372500", "121033.160000", "121033.950000", "121034.737500", "121035.525000", "121036.312500", "121037.102500", "121037.890000", "121038.677500", "121039.465000", "121040.255000", "121041.042500", "121041.830000", "121042.617500", "121043.407500", "121044.195000", "121044.982500", "121045.770000", "121046.560000", "121047.347500", "121048.135000", "121048.922500", "121049.712500", "121050.500000", "121051.287500", "121052.077500", "121052.865000", "121053.652500", "121054.440000", "121055.230000", "121056.017500", "121056.805000", "121057.592500", "121058.382500", "121059.170000", "121059.957500", "121100.745000", "121101.535000", "121102.322500", "121103.110000", "121103.897500", "121104.687500", "121105.475000", "121106.262500", "121107.050000", "121107.840000", "121108.627500", "121109.415000", "121110.205000", "121110.992500", "121111.780000", "121112.567500", "121113.357500", "121114.145000", "121114.932500", "121115.720000", "121116.510000", "121117.297500", "121118.085000", "121118.872500", "121119.662500", "121120.450000", "121121.237500", "121122.025000", "121122.815000", "121123.602500", "121124.390000", "121125.177500", "121125.967500", "121126.755000", "121127.542500", "121128.332500", "121129.120000", "121129.907500", "121130.695000", "121131.485000", "121132.272500", "121133.060000", "121133.847500", "121134.637500", "121135.425000", "121136.212500", "121137.000000", "121137.790000", "121138.577500", "121139.365000", "121140.152500", "121140.942500", "121141.730000", "121142.517500", "121143.305000", "121144.095000", "121144.882500", "121145.670000", "121146.460000", "121147.247500", "121148.035000", "121148.822500", "121149.612500", "121150.400000", "121151.187500", "121151.975000", "121152.765000", "121153.552500", "121154.340000", "121155.127500", "121155.917500", "121156.705000", "121157.492500", "121158.280000", "121159.070000", "121159.857500", "121200.645000", "121201.432500", "121202.222500", "121203.010000", "121203.797500", "121204.587500", "121205.375000", "121206.162500", "121206.950000", "121207.740000", "121208.527500", "121209.315000", "121210.102500", "121210.892500", "121211.680000", "121212.467500", "121213.255000", "121214.045000", "121214.832500", "121215.620000", "121216.407500", "121217.197500", "121217.985000", "121218.772500", "121219.560000", "121220.350000", "121221.137500", "121221.925000", "121222.715000", "121223.502500", "121224.290000", "121225.077500", "121225.867500", "121226.655000", "121227.442500", "121228.230000", "121229.020000", "121229.807500", "121230.595000", "121231.382500", "121232.172500", "121232.960000", "121233.747500", "121234.535000", "121235.325000", "121236.112500", "121236.900000", "121237.687500", "121238.477500", "121239.265000", "121240.052500", "121240.842500", "121241.630000", "121242.417500", "121243.205000", "121243.995000", "121244.782500", "121245.570000", "121246.357500", "121247.147500", "121247.935000", "121248.722500", "121249.510000", "121250.300000", "121251.087500", "121251.875000", "121252.662500", "121253.452500", "121254.240000", "121255.027500", "121255.815000", "121256.605000", "121257.392500", "121258.180000", "121258.970000", "121259.757500", "121300.545000", "121301.332500", "121302.122500", "121302.910000", "121303.697500", "121304.485000", "121305.275000", "121306.062500", "121306.850000", "121307.637500", "121308.427500", "121309.215000", "121310.002500", "121310.790000", "121311.580000", "121312.367500", "121313.155000", "121313.945000", "121314.732500", "121315.520000", "121316.307500", "121317.097500", "121317.885000", "121318.672500", "121319.460000", "121320.250000", "121321.037500", "121321.825000", "121322.612500", "121323.402500", "121324.190000", "121324.977500", "121325.765000", "121326.555000", "121327.342500", "121328.130000", "121328.917500", "121329.707500", "121330.495000", "121331.282500", "121332.072500", "121332.860000", "121333.647500", "121334.435000", "121335.225000", "121336.012500", "121336.800000", "121337.587500", "121338.377500", "121339.165000", "121339.952500", "121340.740000", "121341.530000", "121342.317500", "121343.105000", "121343.892500", "121344.682500", "121345.470000", "121346.257500", "121347.045000", "121347.835000", "121348.622500", "121349.410000", "121350.200000", "121350.987500", "121351.775000", "121352.562500", "121353.352500", "121354.140000", "121354.927500", "121355.715000", "121356.505000", "121357.292500", "121358.080000", "121358.867500", "121359.657500", "121400.445000", "121401.232500", "121402.020000", "121402.810000", "121403.597500", "121404.385000", "121405.172500", "121405.962500", "121406.750000", "121407.537500", "121408.327500", "121409.115000", "121409.902500", "121410.690000", "121411.480000", "121412.267500", "121413.055000", "121413.842500", "121414.632500", "121415.420000", "121416.207500", "121416.995000", "121417.785000", "121418.572500", "121419.360000", "121420.147500", "121420.937500", "121421.725000", "121422.512500", "121423.300000", "121424.090000", "121424.877500", "121425.665000", "121426.455000", "121427.242500", "121428.030000", "121428.817500", "121429.607500", "121430.395000", "121431.182500", "121431.970000", "121432.760000", "121433.547500", "121434.335000", "121435.122500", "121435.912500", "121436.700000", "121437.487500", "121438.275000", "121439.065000", "121439.852500"],
      "ContentTime": ["120733.593000", "120733.593000", "120733.593000", "120733.593000", "120733.609000", "120733.609000", "120733.609000", "120733.609000", "120733.609000", "120733.609000", "120733.609000", "120733.625000", "120733.625000", "120733.625000", "120733.625000", "120733.625000", "120733.625000", "120733.625000", "120733.625000", "120733.640000", "120733.640000", "120733.640000", "120733.640000", "120733.640000", "120733.640000", "120733.640000", "120733.640000", "120733.656000", "120733.656000", "120733.656000", "120733.656000", "120733.656000", "120733.656000", "120733.656000", "120733.671000", "120733.671000", "120753.562000", "120753.578000", "120753.578000", "120753.578000", "120753.578000", "120753.578000", "120753.578000", "120753.578000", "120753.593000", "120753.593000", "120753.593000", "120753.593000", "120753.593000", "120753.593000", "120753.593000", "120753.609000", "120753.609000", "120753.609000", "120753.609000", "120753.609000", "120753.609000", "120753.625000", "120753.625000", "120753.625000", "120753.625000", "120753.625000", "120813.562000", "120813.578000", "120813.578000", "120813.578000", "120813.578000", "120813.578000", "120813.578000", "120813.578000", "120813.593000", "120813.593000", "120813.593000", "120813.593000", "120813.593000", "120813.593000", "120813.593000", "120813.593000", "120813.609000", "120813.609000", "120813.609000", "120813.609000", "120813.609000", "120813.609000", "120813.609000", "120813.625000", "120813.625000", "120833.562000", "120833.578000", "120833.578000", "120833.578000", "120833.578000", "120833.578000", "120833.578000", "120833.578000", "120833.593000", "120833.593000", "120833.593000", "120833.593000", "120833.593000", "120833.593000", "120833.593000", "120833.609000", "120833.609000", "120833.609000", "120833.609000", "120833.609000", "120833.609000", "120833.625000", "120833.625000", "120833.625000", "120833.625000", "120833.625000", "120853.562000", "120853.578000", "120853.578000", "120853.578000", "120853.578000", "120853.578000", "120853.578000", "120853.578000", "120853.593000", "120853.593000", "120853.593000", "120853.593000", "120853.593000", "120853.593000", "120853.593000", "120853.593000", "120853.609000", "120853.609000", "120853.609000", "120853.609000", "120853.609000", "120853.609000", "120853.609000", "120853.625000", "120853.625000", "120913.562000", "120913.578000", "120913.578000", "120913.578000", "120913.578000", "120913.578000", "120913.578000", "120913.578000", "120913.593000", "120913.593000", "120913.593000", "120913.593000", "120913.593000", "120913.593000", "120913.609000", "120913.609000", "120913.609000", "120913.609000", "120913.609000", "120913.609000", "120913.609000", "120913.609000", "120913.625000", "120913.625000", "120913.625000", "120913.625000", "120933.562000", "120933.578000", "120933.578000", "120933.578000", "120933.578000", "120933.578000", "120933.578000", "120933.578000", "120933.593000", "120933.593000", "120933.593000", "120933.593000", "120933.593000", "120933.593000", "120933.593000", "120933.609000", "120933.609000", "120933.609000", "120933.609000", "120933.609000", "120933.609000", "120933.609000", "120933.625000", "120933.625000", "120933.625000", "120953.562000", "120953.578000", "120953.578000", "120953.578000", "120953.578000", "120953.578000", "120953.578000", "120953.578000", "120953.593000", "120953.593000", "120953.593000", "120953.593000", "120953.593000", "120953.593000", "120953.593000", "120953.593000", "120953.609000", "120953.609000", "120953.609000", "120953.609000", "120953.609000", "120953.609000", "120953.609000", "120953.625000", "120953.625000", "120953.625000", "121013.562000", "121013.578000", "121013.578000", "121013.578000", "121013.578000", "121013.578000", "121013.578000", "121013.578000", "121013.593000", "121013.593000", "121013.593000", "121013.593000", "121013.593000", "121013.593000", "121013.593000", "121013.593000", "121013.609000", "121013.609000", "121013.609000", "121013.609000", "121013.609000", "121013.609000", "121013.625000", "121013.625000", "121013.625000", "121033.562000", "121033.578000", "121033.578000", "121033.578000", "121033.578000", "121033.578000", "121033.578000", "121033.578000", "121033.593000", "121033.593000", "121033.593000", "121033.593000", "121033.593000", "121033.593000", "121033.593000", "121033.593000", "121033.609000", "121033.609000", "121033.609000", "121033.609000", "121033.609000", "121033.609000", "121033.625000", "121033.625000", "121033.625000", "121033.625000", "121053.562000", "121053.578000", "121053.578000", "121053.578000", "121053.578000", "121053.578000", "121053.578000", "121053.578000", "121053.593000", "121053.593000", "121053.593000", "121053.593000", "121053.593000", "121053.593000", "121053.593000", "121053.609000", "121053.609000", "121053.609000", "121053.609000", "121053.609000", "121053.625000", "121053.625000", "121053.625000", "121053.625000", "121053.625000", "121113.562000", "121113.578000", "121113.578000", "121113.578000", "121113.578000", "121113.578000", "121113.578000", "121113.578000", "121113.593000", "121113.593000", "121113.593000", "121113.593000", "121113.593000", "121113.593000", "121113.593000", "121113.593000", "121113.609000", "121113.609000", "121113.609000", "121113.609000", "121113.609000", "121113.609000", "121113.625000", "121113.625000", "121113.625000", "121113.625000", "121133.562000", "121133.578000", "121133.578000", "121133.578000", "121133.578000", "121133.578000", "121133.593000", "121133.593000", "121133.593000", "121133.593000", "121133.593000", "121133.593000", "121133.609000", "121133.609000", "121133.609000", "121133.609000", "121133.609000", "121133.609000", "121133.625000", "121133.625000", "121133.625000", "121133.625000", "121133.625000", "121133.640000", "121133.640000", "121153.562000", "121153.578000", "121153.578000", "121153.593000", "121153.593000", "121153.593000", "121153.593000", "121153.593000", "121153.609000", "121153.609000", "121153.609000", "121153.609000", "121153.609000", "121153.609000", "121153.609000", "121153.625000", "121153.625000", "121153.625000", "121153.625000", "121153.625000", "121153.625000", "121153.625000", "121153.640000", "121153.640000", "121153.640000", "121153.640000", "121213.562000", "121213.578000", "121213.578000", "121213.578000", "121213.578000", "121213.578000", "121213.578000", "121213.578000", "121213.593000", "121213.593000", "121213.593000", "121213.593000", "121213.593000", "121213.593000", "121213.593000", "121213.609000", "121213.609000", "121213.609000", "121213.609000", "121213.609000", "121213.609000", "121213.625000", "121213.625000", "121213.625000", "121213.625000", "121233.562000", "121233.578000", "121233.578000", "121233.578000", "121233.578000", "121233.578000", "121233.578000", "121233.578000", "121233.593000", "121233.593000", "121233.593000", "121233.593000", "121233.593000", "121233.593000", "121233.593000", "121233.609000", "121233.609000", "121233.609000", "121233.609000", "121233.609000", "121233.609000", "121233.609000", "121233.625000", "121233.625000", "121233.625000", "121253.562000", "121253.578000", "121253.578000", "121253.578000", "121253.578000", "121253.578000", "121253.578000", "121253.578000", "121253.593000", "121253.593000", "121253.593000", "121253.593000", "121253.593000", "121253.609000", "121253.609000", "121253.609000", "121253.609000", "121253.609000", "121253.625000", "121253.625000", "121253.625000", "121253.625000", "121253.625000", "121253.625000", "121253.625000", "121253.625000", "121313.562000", "121313.578000", "121313.578000", "121313.578000", "121313.578000", "121313.578000", "121313.578000", "121313.593000", "121313.593000", "121313.593000", "121313.593000", "121313.593000", "121313.593000", "121313.593000", "121313.609000", "121313.609000", "121313.609000", "121313.625000", "121313.625000", "121313.625000", "121313.625000", "121313.625000", "121313.625000", "121313.625000", "121313.625000", "121333.562000", "121333.578000", "121333.578000", "121333.578000", "121333.578000", "121333.578000", "121333.578000", "121333.578000", "121333.593000", "121333.593000", "121333.593000", "121333.593000", "121333.593000", "121333.609000", "121333.609000", "121333.609000", "121333.609000", "121333.609000", "121333.609000", "121333.609000", "121333.609000", "121333.625000", "121333.625000", "121333.625000", "121333.625000", "121333.625000", "121353.562000", "121353.578000", "121353.578000", "121353.578000", "121353.578000", "121353.578000", "121353.578000", "121353.578000", "121353.593000", "121353.593000", "121353.593000", "121353.593000", "121353.593000", "121353.593000", "121353.593000", "121353.593000", "121353.609000", "121353.609000", "121353.609000", "121353.609000", "121353.609000", "121353.609000", "121353.609000", "121353.625000", "121353.625000", "121413.562000", "121413.578000", "121413.578000", "121413.578000", "121413.578000", "121413.578000", "121413.578000", "121413.578000", "121413.593000", "121413.593000", "121413.593000", "121413.593000", "121413.593000", "121413.593000", "121413.593000", "121413.593000", "121413.609000", "121413.609000", "121413.609000", "121413.609000", "121413.609000", "121413.609000", "121413.609000", "121413.625000", "121413.625000", "121413.625000", "121433.562000", "121433.578000", "121433.578000", "121433.578000", "121433.578000", "121433.578000", "121433.578000", "121433.578000", "121433.593000", "121433.593000", "121433.593000", "121433.593000", "121433.593000", "121433.593000", "121433.593000", "121433.593000", "121433.609000", "121433.609000", "121433.609000", "121433.609000", "121433.609000", "121433.609000", "121433.609000", "121433.625000", "121433.625000", "121440.859000", "121440.859000", "121440.875000", "121440.875000", "121440.875000", "121440.875000", "121440.875000", "121440.875000", "121440.875000", "121440.875000"],
