{
  "AcquisitionMatrixPE": 104,
  "AcquisitionNumber": 1,
  "AcquisitionTime": "11:51:2.692500",
  "BandwidthPerPixelPhaseEncode": 13.935,
  "BaseResolution": 104,
  "CoilString": "C:HEA;HEP",
  "ConversionSoftware": "dcm2niix",
  "ConversionSoftwareVersion": "v1.0.20210317",
  "DerivedVendorReportedEchoSpacing": 0.000690017,
  "DeviceSerialNumber": "35450",
  "DwellTime": 2.5e-06,
  "EchoTime": 0.0348,
  "EffectiveEchoSpacing": 0.000690017,
  "FlipAngle": 55,
  "ImageComments": "Unaliased MB8/PE3 (remote)",
  "ImageOrientationPatientDICOM": [0.999506, -0.000273972, 0.0314125, -5.40049e-08, 0.999962, 0.00872313],
  "ImageType": [
    "ORIGINAL",
    "PRIMARY",
    "M",
    "MB",
    "ND",
    "MOSAIC"
],
  "ImagingFrequency": 123.234,
  "InPlanePhaseEncodingDirectionDICOM": "COL",
  "InstitutionAddress": "Univeristy Ave. 197,Newark,North East,US,07102-1814",
  "InstitutionName": "RUBIC",
  "InstitutionalDepartmentName": "Department",
  "MRAcquisitionType": "2D",
  "MagneticFieldStrength": 3,
  "Manufacturer": "Siemens",
  "ManufacturersModelName": "TrioTim",
  "Modality": "MR",
  "MultibandAccelerationFactor": 8,
  "PartialFourier": 0.875,
  "PatientPosition": "HFS",
  "PercentPhaseFOV": 100,
  "PercentSampling": 100,
  "PhaseEncodingDirection": "j-",
  "PhaseEncodingSteps": 91,
  "PhaseResolution": 1,
  "PixelBandwidth": 1923,
  "ProcedureStepDescription": "Cole^Michael",
  "ProtocolName": "cmrr_mbep2d_bold_2mm_MB8_Task_8x",
  "PulseSequenceDetails": "%CustomerSeq%\\cmrr_mbep2d_bold",
  "ReceiveCoilName": "32Ch_Head",
  "ReconMatrixPE": 104,
  "RepetitionTime": 0.785,
  "SAR": 0.128486,
  "ScanOptions": "PFP\\FS",
  "ScanningSequence": "EP",
  "SequenceName": "epfid2d1_104",
  "SequenceVariant": "SK\\SS",
  "SeriesDescription": "cmrr_mbep2d_bold_2mm_MB8_Task_8x",
  "SeriesNumber": 23,
  "ShimSetting": [2128, -382, -7345, 628, -122, -139, 284, -48],
  "SliceThickness": 2,
  "SliceTiming": [0, 0.4375, 0.0875, 0.525, 0.175, 0.6125, 0.2625, 0.7, 0.35, 0, 0.4375, 0.0875, 0.525, 0.175, 0.6125, 0.2625, 0.7, 0.35, 0, 0.4375, 0.0875, 0.525, 0.175, 0.6125, 0.2625, 0.7, 0.35, 0, 0.4375, 0.0875, 0.525, 0.175, 0.6125, 0.2625, 0.7, 0.35, 0, 0.4375, 0.0875, 0.525, 0.175, 0.6125, 0.2625, 0.7, 0.35, 0, 0.4375, 0.0875, 0.525, 0.175, 0.6125, 0.2625, 0.7, 0.35, 0, 0.4375, 0.0875, 0.525, 0.175, 0.6125, 0.2625, 0.7, 0.35, 0, 0.4375, 0.0875, 0.525, 0.175, 0.6125, 0.2625, 0.7, 0.35],
  "SoftwareVersions": "syngo MR B19",
  "SpacingBetweenSlices": 2,
  "StationName": "MRC35450",
  "TaskName": "cpro",
  "TotalReadoutTime": 0.0710717,
  "TxRefAmp": 339.215,
  "dcmmeta_affine": [
    [-1.9990129470825195, -1.0800987126913242e-07, 0.062827467918396, 104.54114532470703],
    [0.0005479442188516259, 1.9999239444732666, 0.017437653616070747, -81.02214813232422],
    [0.06282507628202438, -0.017446260899305344, 1.9989367723464966, -102.02584075927734],
    [0.0, 0.0, 0.0, 1.0]
],
  "dcmmeta_reorient_transform": [
    [0.0, -1.0, 0.0, 103.0],
    [1.0, 0.0, 0.0, 0.0],
    [0.0, 0.0, 1.0, 0.0],
    [0.0, 0.0, 0.0, 1.0]
],
  "dcmmeta_shape": [104, 104, 72, 581],
  "dcmmeta_slice_dim": 2,
  "dcmmeta_version": 0.6,
  "global": {
    "const": {
      "AcquisitionMatrix": [104, 0, 0, 104],
      "AngioFlag": "N",
      "BitsAllocated": 16,
      "BitsStored": 12,
      "Columns": 936,
      "EchoNumbers": 1,
      "EchoTime": 34.8,
      "EchoTrainLength": 1,
      "FlipAngle": 55.0,
      "HighBit": 11,
      "ImageOrientationPatient": [0.99950646687007, -0.0002739721125, 0.03141253928265, -5.4004935e-08, 0.99996195277684, 0.00872313009954],
      "ImagePositionPatient": [-936.13046843851, -956.71041610359, -137.21568344115],
      "ImageType": [
        "ORIGINAL",
        "PRIMARY",
        "M",
        "MB",
        "ND",
        "MOSAIC"
],
      "ImagedNucleus": "1H",
      "ImagingFrequency": 123.234474,
      "InPlanePhaseEncodingDirection": "COL",
      "MRAcquisitionType": "2D",
      "MagneticFieldStrength": 3.0,
      "Manufacturer": "SIEMENS",
      "ManufacturerModelName": "TrioTim",
      "Modality": "MR",
      "NumberOfAverages": 1.0,
      "NumberOfPhaseEncodingSteps": 91,
      "PercentPhaseFieldOfView": 100.0,
      "PercentSampling": 100.0,
      "PerformedProcedureStepStartTime": "102510.640000",
      "PhotometricInterpretation": "MONOCHROME2",
      "PixelBandwidth": 1923.0,
      "PixelRepresentation": 0,
      "PixelSpacing": [2.0, 2.0],
      "ProtocolName": "cmrr_mbep2d_bold_2mm_MB8_Task_8x",
      "RepetitionTime": 785.0,
      "Rows": 936,
      "SAR": 0.12848642899363,
      "SamplesPerPixel": 1,
      "ScanOptions": [
        "PFP",
        "FS"
],
      "ScanningSequence": "EP",
      "SequenceName": "epfid2d1_104",
      "SequenceVariant": [
        "SK",
        "SS"
],
      "SeriesDescription": "cmrr_mbep2d_bold_2mm_MB8_Task_8x",
      "SeriesNumber": 23,
      "SeriesTime": "115133.562000",
      "SliceLocation": -99.393999048507,
      "SliceThickness": 2.0,
      "SmallestImagePixelValue": 0,
      "SoftwareVersions": "syngo MR B19",
      "SpacingBetweenSlices": 1.999999950847,
      "SpecificCharacterSet": "ISO_IR 100",
      "StudyID": "1",
      "StudyTime": "102510.531000",
      "TransmitCoilName": "Body",
      "VariableFlipAngleFlag": "N",
      "WindowCenterWidthExplanation": "Algo1",
      "dBdt": 0.0},
    "slices": {}
  },
  "time": {
    "samples": {
      "AcquisitionNumber": [1, 2, 3, 4, 5, 6, 7, 8, 9, 10, 11, 12, 13, 14, 15, 16, 17, 18, 19, 20, 21, 22, 23, 24, 25, 26, 27, 28, 29, 30, 31, 32, 33, 34, 35, 36, 37, 38, 39, 40, 41, 42, 43, 44, 45, 46, 47, 48, 49, 50, 51, 52, 53, 54, 55, 56, 57, 58, 59, 60, 61, 62, 63, 64, 65, 66, 67, 68, 69, 70, 71, 72, 73, 74, 75, 76, 77, 78, 79, 80, 81, 82, 83, 84, 85, 86, 87, 88, 89, 90, 91, 92, 93, 94, 95, 96, 97, 98, 99, 100, 101, 102, 103, 104, 105, 106, 107, 108, 109, 110, 111, 112, 113, 114, 115, 116, 117, 118, 119, 120, 121, 122, 123, 124, 125, 126, 127, 128, 129, 130, 131, 132, 133, 134, 135, 136, 137, 138, 139, 140, 141, 142, 143, 144, 145, 146, 147, 148, 149, 150, 151, 152, 153, 154, 155, 156, 157, 158, 159, 160, 161, 162, 163, 164, 165, 166, 167, 168, 169, 170, 171, 172, 173, 174, 175, 176, 177, 178, 179, 180, 181, 182, 183, 184, 185, 186, 187, 188, 189, 190, 191, 192, 193, 194, 195, 196, 197, 198, 199, 200, 201, 202, 203, 204, 205, 206, 207, 208, 209, 210, 211, 212, 213, 214, 215, 216, 217, 218, 219, 220, 221, 222, 223, 224, 225, 226, 227, 228, 229, 230, 231, 232, 233, 234, 235, 236, 237, 238, 239, 240, 241, 242, 243, 244, 245, 246, 247, 248, 249, 250, 251, 252, 253, 254, 255, 256, 257, 258, 259, 260, 261, 262, 263, 264, 265, 266, 267, 268, 269, 270, 271, 272, 273, 274, 275, 276, 277, 278, 279, 280, 281, 282, 283, 284, 285, 286, 287, 288, 289, 290, 291, 292, 293, 294, 295, 296, 297, 298, 299, 300, 301, 302, 303, 304, 305, 306, 307, 308, 309, 310, 311, 312, 313, 314, 315, 316, 317, 318, 319, 320, 321, 322, 323, 324, 325, 326, 327, 328, 329, 330, 331, 332, 333, 334, 335, 336, 337, 338, 339, 340, 341, 342, 343, 344, 345, 346, 347, 348, 349, 350, 351, 352, 353, 354, 355, 356, 357, 358, 359, 360, 361, 362, 363, 364, 365, 366, 367, 368, 369, 370, 371, 372, 373, 374, 375, 376, 377, 378, 379, 380, 381, 382, 383, 384, 385, 386, 387, 388, 389, 390, 391, 392, 393, 394, 395, 396, 397, 398, 399, 400, 401, 402, 403, 404, 405, 406, 407, 408, 409, 410, 411, 412, 413, 414, 415, 416, 417, 418, 419, 420, 421, 422, 423, 424, 425, 426, 427, 428, 429, 430, 431, 432, 433, 434, 435, 436, 437, 438, 439, 440, 441, 442, 443, 444, 445, 446, 447, 448, 449, 450, 451, 452, 453, 454, 455, 456, 457, 458, 459, 460, 461, 462, 463, 464, 465, 466, 467, 468, 469, 470, 471, 472, 473, 474, 475, 476, 477, 478, 479, 480, 481, 482, 483, 484, 485, 486, 487, 488, 489, 490, 491, 492, 493, 494, 495, 496, 497, 498, 499, 500, 501, 502, 503, 504, 505, 506, 507, 508, 509, 510, 511, 512, 513, 514, 515, 516, 517, 518, 519, 520, 521, 522, 523, 524, 525, 526, 527, 528, 529, 530, 531, 532, 533, 534, 535, 536, 537, 538, 539, 540, 541, 542, 543, 544, 545, 546, 547, 548, 549, 550, 551, 552, 553, 554, 555, 556, 557, 558, 559, 560, 561, 562, 563, 564, 565, 566, 567, 568, 569, 570, 571, 572, 573, 574, 575, 576, 577, 578, 579, 580, 581],
      "AcquisitionTime": ["115102.692500", "115103.480000", "115104.267500", "115105.057500", "115105.845000", "115106.632500", "115107.422500", "115108.210000", "115108.997500", "115109.785000", "115110.575000", "115111.362500", "115112.150000", "115112.937500", "115113.727500", "115114.515000", "115115.302500", "115116.090000", "115116.880000", "115117.667500", "115118.455000", "115119.242500", "115120.032500", "115120.820000", "115121.607500", "115122.395000", "115123.185000", "115123.972500", "115124.760000", "115125.550000", "115126.337500", "115127.125000", "115127.912500", "115128.702500", "115129.490000", "115130.277500", "115131.065000", "115131.855000", "115132.642500", "115133.430000", "115134.217500", "115135.007500", "115135.795000", "115136.582500", "115137.370000", "115138.160000", "115138.947500", "115139.735000", "115140.522500", "115141.312500", "115142.100000", "115142.887500", "115143.677500", "115144.465000", "115145.252500", "115146.040000", "115146.830000", "115147.617500", "115148.405000", "115149.192500", "115149.982500", "115150.770000", "115151.557500", "115152.345000", "115153.135000", "115153.922500", "115154.710000", "115155.497500", "115156.287500", "115157.075000", "115157.862500", "115158.652500", "115159.440000", "115200.227500", "115201.015000", "115201.805000", "115202.592500", "115203.380000", "115204.167500", "115204.957500", "115205.745000", "115206.532500", "115207.320000", "115208.110000", "115208.897500", "115209.685000", "115210.472500", "115211.262500", "115212.050000", "115212.837500", "115213.625000", "115214.415000", "115215.202500", "115215.990000", "115216.780000", "115217.567500", "115218.355000", "115219.142500", "115219.932500", "115220.720000", "115221.507500", "115222.295000", "115223.085000", "115223.872500", "115224.660000", "115225.447500", "115226.237500", "115227.025000", "115227.812500", "115228.600000", "115229.390000", "115230.177500", "115230.965000", "115231.752500", "115232.542500", "115233.330000", "115234.117500", "115234.907500", "115235.695000", "115236.482500", "115237.270000", "115238.060000", "115238.847500", "115239.635000", "115240.422500", "115241.212500", "115242.000000", "115242.787500", "115243.575000", "115244.365000", "115245.152500", "115245.940000", "115246.727500", "115247.517500", "115248.305000", "115249.092500", "115249.880000", "115250.670000", "115251.457500", "115252.245000", "115253.035000", "115253.822500", "115254.610000", "115255.397500", "115256.187500", "115256.975000", "115257.762500", "115258.550000", "115259.340000", "115300.127500", "115300.915000", "115301.702500", "115302.492500", "115303.280000", "115304.067500", "115304.855000", "115305.645000", "115306.432500", "115307.220000", "115308.007500", "115308.797500", "115309.585000", "115310.372500", "115311.162500", "115311.950000", "115312.737500", "115313.525000", "115314.315000", "115315.102500", "115315.890000", "115316.677500", "115317.467500", "115318.255000", "115319.042500", "115319.830000", "115320.620000", "115321.407500", "115322.195000", "115322.982500", "115323.772500", "115324.560000", "115325.347500", "115326.135000", "115326.925000", "115327.712500", "115328.500000", "115329.290000", "115330.077500", "115330.865000", "115331.652500", "115332.442500", "115333.230000", "115334.017500", "115334.805000", "115335.595000", "115336.382500", "115337.170000", "115337.957500", "115338.747500", "115339.535000", "115340.322500", "115341.110000", "115341.900000", "115342.687500", "115343.475000", "115344.262500", "115345.052500", "115345.840000", "115346.627500", "115347.417500", "115348.205000", "115348.992500", "115349.780000", "115350.570000", "115351.357500", "115352.145000", "115352.932500", "115353.722500", "115354.510000", "115355.297500", "115356.085000", "115356.875000", "115357.662500", "115358.450000", "115359.237500", "115400.027500", "115400.815000", "115401.602500", "115402.390000", "115403.180000", "115403.967500", "115404.755000", "115405.545000", "115406.332500", "115407.120000", "115407.907500", "115408.697500", "115409.485000", "115410.272500", "115411.060000", "115411.850000", "115412.637500", "115413.425000", "115414.212500", "115415.002500", "115415.790000", "115416.577500", "115417.365000", "115418.155000", "115418.942500", "115419.730000", "115420.517500", "115421.307500", "115422.095000", "115422.882500", "115423.672500", "115424.460000", "115425.247500", "115426.035000", "115426.825000", "115427.612500", "115428.400000", "115429.187500", "115429.977500", "115430.765000", "115431.552500", "115432.340000", "115433.130000", "115433.917500", "115434.705000", "115435.492500", "115436.282500", "115437.070000", "115437.857500", "115438.645000", "115439.435000", "115440.222500", "115441.010000", "115441.800000", "115442.587500", "115443.375000", "115444.162500", "115444.952500", "115445.740000", "115446.527500", "115447.315000", "115448.105000", "115448.892500", "115449.680000", "115450.467500", "115451.257500", "115452.045000", "115452.832500", "115453.620000", "115454.410000", "115455.197500", "115455.985000", "115456.772500", "115457.562500", "115458.350000", "115459.137500", "115459.927500", "115500.715000", "115501.502500", "115502.290000", "115503.080000", "115503.867500", "115504.655000", "115505.442500", "115506.232500", "115507.020000", "115507.807500", "115508.595000", "115509.385000", "115510.172500", "115510.960000", "115511.747500", "115512.537500", "115513.325000", "115514.112500", "115514.902500", "115515.690000", "115516.477500", "115517.265000", "115518.055000", "115518.842500", "115519.630000", "115520.417500", "115521.207500", "115521.995000", "115522.782500", "115523.570000", "115524.360000", "115525.147500", "115525.935000", "115526.722500", "115527.512500", "115528.300000", "115529.087500", "115529.875000", "115530.665000", "115531.452500", "115532.240000", "115533.030000", "115533.817500", "115534.605000", "115535.392500", "115536.182500", "115536.970000", "115537.757500", "115538.545000", "115539.335000", "115540.122500", "115540.910000", "115541.697500", "115542.487500", "115543.275000", "115544.062500", "115544.850000", "115545.640000", "115546.427500", "115547.215000", "115548.002500", "115548.792500", "115549.580000", "115550.367500", "115551.157500", "115551.945000", "115552.732500", "115553.520000", "115554.310000", "115555.097500", "115555.885000", "115556.672500", "115557.462500", "115558.250000", "115559.037500", "115559.825000", "115600.615000", "115601.402500", "115602.190000", "115602.977500", "115603.767500", "115604.555000", "115605.342500", "115606.130000", "115606.920000", "115607.707500", "115608.495000", "115609.285000", "115610.072500", "115610.860000", "115611.647500", "115612.437500", "115613.225000", "115614.012500", "115614.800000", "115615.590000", "115616.377500", "115617.165000", "115617.952500", "115618.742500", "115619.530000", "115620.317500", "115621.105000", "115621.895000", "115622.682500", "115623.470000", "115624.257500", "115625.047500", "115625.835000", "115626.622500", "115627.412500", "115628.200000", "115628.987500", "115629.775000", "115630.565000", "115631.352500", "115632.140000", "115632.927500", "115633.717500", "115634.505000", "115635.292500", "115636.080000", "115636.870000", "115637.657500", "115638.445000", "115639.232500", "115640.022500", "115640.810000", "115641.597500", "115642.385000", "115643.175000", "115643.962500", "115644.750000", "115645.540000", "115646.327500", "115647.115000", "115647.902500", "115648.692500", "115649.480000", "115650.267500", "115651.055000", "115651.845000", "115652.632500", "115653.420000", "115654.207500", "115654.997500", "115655.785000", "115656.572500", "115657.360000", "115658.150000", "115658.937500", "115659.725000", "115700.512500", "115701.302500", "115702.090000", "115702.877500", "115703.667500", "115704.455000", "115705.242500", "115706.030000", "115706.820000", "115707.607500", "115708.395000", "115709.182500", "115709.972500", "115710.760000", "115711.547500", "115712.335000", "115713.125000", "115713.912500", "115714.700000", "115715.487500", "115716.277500", "115717.065000", "115717.852500", "115718.640000", "115719.430000", "115720.217500", "115721.005000", "115721.795000", "115722.582500", "115723.370000", "115724.157500", "115724.947500", "115725.735000", "115726.522500", "115727.310000", "115728.100000", "115728.887500", "115729.675000", "115730.462500", "115731.252500", "115732.040000", "115732.827500", "115733.615000", "115734.405000", "115735.192500", "115735.980000", "115736.767500", "115737.557500", "115738.345000", "115739.132500", "115739.922500", "115740.710000", "115741.497500", "115742.285000", "115743.075000", "115743.862500", "115744.650000", "115745.437500", "115746.227500", "115747.015000", "115747.802500", "115748.590000", "115749.380000", "115750.167500", "115750.955000", "115751.742500", "115752.532500", "115753.320000", "115754.107500", "115754.895000", "115755.685000", "115756.472500", "115757.260000", "115758.050000", "115758.837500", "115759.625000", "115800.412500", "115801.202500", "115801.990000", "115802.777500", "115803.565000", "115804.355000", "115805.142500", "115805.930000", "115806.717500", "115807.507500", "115808.295000", "115809.082500", "115809.870000", "115810.660000", "115811.447500", "115812.235000", "115813.022500", "115813.812500", "115814.600000", "115815.387500", "115816.177500", "115816.965000", "115817.752500", "115818.540000", "115819.330000", "115820.117500", "115820.905000", "115821.692500", "115822.482500", "115823.270000", "115824.057500", "115824.845000", "115825.635000", "115826.422500", "115827.210000", "115827.997500", "115828.787500", "115829.575000", "115830.362500", "115831.152500", "115831.940000", "115832.727500", "115833.515000", "115834.305000", "115835.092500", "115835.880000", "115836.667500", "115837.457500", "115838.245000", "115839.032500", "115839.820000"],
      "ContentTime": ["115133.562000", "115133.562000", "115133.578000", "115133.578000", "115133.578000", "115133.578000", "115133.578000", "115133.578000", "115133.593000", "115133.593000", "115133.593000", "115133.593000", "115133.593000", "115133.609000", "115133.609000", "115133.609000", "115133.609000", "115133.609000", "115133.609000", "115133.625000", "115133.625000", "115133.625000", "115133.625000", "115133.625000", "115133.625000", "115133.640000", "115133.640000", "115133.656000", "115133.656000", "115133.656000", "115133.656000", "115133.671000", "115133.671000", "115133.671000", "115133.671000", "115133.671000", "115153.531000", "115153.546000", "115153.546000", "115153.546000", "115153.546000", "115153.546000", "115153.546000", "115153.546000", "115153.562000", "115153.562000", "115153.562000", "115153.562000", "115153.562000", "115153.562000", "115153.562000", "115153.562000", "115153.578000", "115153.578000", "115153.578000", "115153.578000", "115153.578000", "115153.578000", "115153.578000", "115153.593000", "115153.593000", "115153.593000", "115213.531000", "115213.546000", "115213.546000", "115213.546000", "115213.546000", "115213.546000", "115213.546000", "115213.546000", "115213.562000", "115213.562000", "115213.562000", "115213.562000", "115213.562000", "115213.562000", "115213.562000", "115213.562000", "115213.578000", "115213.578000", "115213.578000", "115213.578000", "115213.578000", "115213.593000", "115213.593000", "115213.593000", "115213.593000", "115233.531000", "115233.546000", "115233.546000", "115233.546000", "115233.546000", "115233.546000", "115233.546000", "115233.546000", "115233.562000", "115233.562000", "115233.562000", "115233.562000", "115233.562000", "115233.578000", "115233.578000", "115233.578000", "115233.578000", "115233.578000", "115233.593000", "115233.593000", "115233.593000", "115233.593000", "115233.593000", "115233.593000", "115233.609000", "115233.609000", "115253.531000", "115253.546000", "115253.546000", "115253.546000", "115253.546000", "115253.562000", "115253.562000", "115253.562000", "115253.562000", "115253.562000", "115253.562000", "115253.578000", "115253.578000", "115253.578000", "115253.578000", "115253.578000", "115253.593000", "115253.593000", "115253.593000", "115253.593000", "115253.593000", "115253.593000", "115253.593000", "115253.609000", "115253.609000", "115313.531000", "115313.546000", "115313.546000", "115313.546000", "115313.546000", "115313.546000", "115313.546000", "115313.546000", "115313.562000", "115313.562000", "115313.562000", "115313.562000", "115313.562000", "115313.562000", "115313.562000", "115313.578000", "115313.578000", "115313.578000", "115313.578000", "115313.578000", "115313.578000", "115313.578000", "115313.578000", "115313.593000", "115313.593000", "115313.593000", "115333.531000", "115333.546000", "115333.546000", "115333.546000", "115333.546000", "115333.546000", "115333.546000", "115333.546000", "115333.562000", "115333.562000", "115333.562000", "115333.562000", "115333.562000", "115333.578000", "115333.578000", "115333.578000", "115333.578000", "115333.578000", "115333.578000", "115333.578000", "115333.578000", "115333.593000", "115333.593000", "115333.593000", "115333.593000", "115353.531000", "115353.546000", "115353.546000", "115353.546000", "115353.546000", "115353.546000", "115353.546000", "115353.546000", "115353.562000", "115353.562000", "115353.562000", "115353.562000", "115353.562000", "115353.562000", "115353.562000", "115353.562000", "115353.578000", "115353.578000", "115353.578000", "115353.578000", "115353.578000", "115353.593000", "115353.593000", "115353.593000", "115353.593000", "115353.593000", "115413.531000", "115413.546000", "115413.546000", "115413.546000", "115413.546000", "115413.546000", "115413.546000", "115413.562000", "115413.562000", "115413.562000", "115413.562000", "115413.562000", "115413.562000", "115413.578000", "115413.578000", "115413.578000", "115413.578000", "115413.578000", "115413.578000", "115413.578000", "115413.593000", "115413.593000", "115413.593000", "115413.593000", "115413.593000", "115433.531000", "115433.546000", "115433.546000", "115433.546000", "115433.546000", "115433.546000", "115433.546000", "115433.546000", "115433.562000", "115433.562000", "115433.562000", "115433.562000", "115433.562000", "115433.562000", "115433.562000", "115433.578000", "115433.578000", "115433.578000", "115433.578000", "115433.578000", "115433.578000", "115433.578000", "115433.578000", "115433.593000", "115433.593000", "115433.593000", "115453.531000", "115453.546000", "115453.546000", "115453.546000", "115453.546000", "115453.546000", "115453.546000", "115453.546000", "115453.562000", "115453.562000", "115453.562000", "115453.562000", "115453.562000", "115453.562000", "115453.578000", "115453.578000", "115453.578000", "115453.578000", "115453.593000", "115453.593000", "115453.593000", "115453.593000", "115453.593000", "115453.593000", "115453.593000", "115513.531000", "115513.546000", "115513.546000", "115513.546000", "115513.546000", "115513.546000", "115513.546000", "115513.546000", "115513.562000", "115513.562000", "115513.562000", "115513.562000", "115513.562000", "115513.562000", "115513.562000", "115513.562000", "115513.578000", "115513.578000", "115513.578000", "115513.578000", "115513.578000", "115513.578000", "115513.578000", "115513.593000", "115513.593000", "115513.593000", "115533.531000", "115533.546000", "115533.546000", "115533.546000", "115533.546000", "115533.546000", "115533.546000", "115533.562000", "115533.562000", "115533.562000", "115533.562000", "115533.562000", "115533.562000", "115533.578000", "115533.578000", "115533.578000", "115533.578000", "115533.578000", "115533.578000", "115533.578000", "115533.578000", "115533.593000", "115533.593000", "115533.593000", "115533.593000", "115553.531000", "115553.546000", "115553.546000", "115553.546000", "115553.546000", "115553.546000", "115553.546000", "115553.546000", "115553.562000", "115553.562000", "115553.562000", "115553.562000", "115553.562000", "115553.562000", "115553.562000", "115553.562000", "115553.578000", "115553.578000", "115553.578000", "115553.578000", "115553.578000", "115553.578000", "115553.578000", "115553.593000", "115553.593000", "115553.593000", "115613.531000", "115613.546000", "115613.546000", "115613.546000", "115613.546000", "115613.546000", "115613.546000", "115613.546000", "115613.562000", "115613.562000", "115613.562000", "115613.562000", "115613.562000", "115613.562000", "115613.562000", "115613.562000", "115613.578000", "115613.578000", "115613.578000", "115613.578000", "115613.578000", "115613.578000", "115613.578000", "115613.593000", "115613.593000", "115633.531000", "115633.546000", "115633.546000", "115633.546000", "115633.546000", "115633.546000", "115633.546000", "115633.546000", "115633.562000", "115633.562000", "115633.562000", "115633.562000", "115633.562000", "115633.562000", "115633.562000", "115633.562000", "115633.578000", "115633.578000", "115633.578000", "115633.578000", "115633.578000", "115633.578000", "115633.578000", "115633.593000", "115633.593000", "115633.593000", "115653.531000", "115653.546000", "115653.546000", "115653.546000", "115653.546000", "115653.546000", "115653.546000", "115653.546000", "115653.562000", "115653.562000", "115653.562000", "115653.562000", "115653.562000", "115653.562000", "115653.562000", "115653.562000", "115653.578000", "115653.578000", "115653.578000", "115653.578000", "115653.578000", "115653.578000", "115653.578000", "115653.593000", "115653.593000", "115713.531000", "115713.546000", "115713.578000", "115713.578000", "115713.578000", "115713.578000", "115713.578000", "115713.593000", "115713.593000", "115713.593000", "115713.593000", "115713.593000", "115713.593000", "115713.593000", "115713.609000", "115713.609000", "115713.609000", "115713.609000", "115713.609000", "115713.609000", "115713.609000", "115713.609000", "115713.625000", "115713.625000", "115713.625000", "115733.531000", "115733.546000", "115733.546000", "115733.546000", "115733.546000", "115733.546000", "115733.546000", "115733.546000", "115733.562000", "115733.562000", "115733.562000", "115733.562000", "115733.562000", "115733.562000", "115733.562000", "115733.562000", "115733.578000", "115733.578000", "115733.578000", "115733.578000", "115733.593000", "115733.593000", "115733.593000", "115733.593000", "115733.593000", "115733.593000", "115753.531000", "115753.546000", "115753.546000", "115753.546000", "115753.546000", "115753.546000", "115753.562000", "115753.562000", "115753.562000", "115753.562000", "115753.562000", "115753.562000", "115753.562000", "115753.578000", "115753.578000", "115753.578000", "115753.578000", "115753.578000", "115753.578000", "115753.578000", "115753.578000", "115753.593000", "115753.593000", "115753.593000", "115753.593000", "115813.531000", "115813.546000", "115813.546000", "115813.546000", "115813.546000", "115813.546000", "115813.546000", "115813.546000", "115813.562000", "115813.562000", "115813.562000", "115813.562000", "115813.562000", "115813.562000", "115813.562000", "115813.562000", "115813.578000", "115813.578000", "115813.578000", "115813.578000", "115813.578000", "115813.578000", "115813.578000", "115813.593000", "115813.593000", "115813.593000", "115833.531000", "115833.546000", "115833.546000", "115833.546000", "115833.546000", "115833.546000", "115833.546000", "115833.546000", "115833.562000", "115833.562000", "115833.562000", "115833.562000", "115833.562000", "115833.578000", "115833.578000", "115833.578000", "115833.578000", "115833.578000", "115833.578000", "115833.593000", "115833.593000", "115833.593000", "115833.593000", "115833.593000", "115833.593000", "115840.750000", "115840.750000", "115840.750000", "115840.750000", "115840.750000", "115840.750000", "115840.750000", "115840.765000", "115840.765000", "115840.765000"],
