{
  "AcquisitionMatrixPE": 104,
  "AcquisitionNumber": 1,
  "AcquisitionTime": "10:48:50.115000",
  "BandwidthPerPixelPhaseEncode": 13.935,
  "BaseResolution": 104,
  "CoilString": "C:HEA;HEP",
  "ConversionSoftware": "dcm2niix",
  "ConversionSoftwareVersion": "v1.0.20210317",
  "DerivedVendorReportedEchoSpacing": 0.000690017,
  "DeviceSerialNumber": "35450",
  "DwellTime": 2.5e-06,
  "EchoTime": 0.0348,
  "EffectiveEchoSpacing": 0.000690017,
  "FlipAngle": 55,
  "ImageComments": "Unaliased MB8/PE3 (remote)",
  "ImageOrientationPatientDICOM": [0.999506, -0.000273972, 0.0314125, -5.40049e-08, 0.999962, 0.00872313],
  "ImageType": [
    "ORIGINAL",
    "PRIMARY",
    "M",
    "MB",
    "ND",
    "MOSAIC"
],
  "ImagingFrequency": 123.234,
  "InPlanePhaseEncodingDirectionDICOM": "COL",
  "InstitutionAddress": "Univeristy Ave. 197,Newark,North East,US,07102-1814",
  "InstitutionName": "RUBIC",
  "InstitutionalDepartmentName": "Department",
  "MRAcquisitionType": "2D",
  "MagneticFieldStrength": 3,
  "Manufacturer": "Siemens",
  "ManufacturersModelName": "TrioTim",
  "Modality": "MR",
  "MultibandAccelerationFactor": 8,
  "PartialFourier": 0.875,
  "PatientPosition": "HFS",
  "PercentPhaseFOV": 100,
  "PercentSampling": 100,
  "PhaseEncodingDirection": "j-",
  "PhaseEncodingSteps": 91,
  "PhaseResolution": 1,
  "PixelBandwidth": 1923,
  "ProcedureStepDescription": "Cole^Michael",
  "ProtocolName": "cmrr_mbep2d_bold_2mm_MB8_Rest",
  "PulseSequenceDetails": "%CustomerSeq%\\cmrr_mbep2d_bold",
  "ReceiveCoilName": "32Ch_Head",
  "ReconMatrixPE": 104,
  "RepetitionTime": 0.785,
  "SAR": 0.121875,
  "ScanOptions": "PFP\\FS",
  "ScanningSequence": "EP",
  "SequenceName": "epfid2d1_104",
  "SequenceVariant": "SK\\SS",
  "SeriesDescription": "cmrr_mbep2d_bold_2mm_MB8_Rest",
  "SeriesNumber": 9,
  "ShimSetting": [2128, -382, -7345, 628, -122, -139, 284, -48],
  "SliceThickness": 2,
  "SliceTiming": [0, 0.4375, 0.0875, 0.525, 0.175, 0.6125, 0.2625, 0.7, 0.35, 0, 0.4375, 0.0875, 0.525, 0.175, 0.6125, 0.2625, 0.7, 0.35, 0, 0.4375, 0.0875, 0.525, 0.175, 0.6125, 0.2625, 0.7, 0.35, 0, 0.4375, 0.0875, 0.525, 0.175, 0.6125, 0.2625, 0.7, 0.35, 0, 0.4375, 0.0875, 0.525, 0.175, 0.6125, 0.2625, 0.7, 0.35, 0, 0.4375, 0.0875, 0.525, 0.175, 0.6125, 0.2625, 0.7, 0.35, 0, 0.4375, 0.0875, 0.525, 0.175, 0.6125, 0.2625, 0.7, 0.35, 0, 0.4375, 0.0875, 0.525, 0.175, 0.6125, 0.2625, 0.7, 0.35],
  "SoftwareVersions": "syngo MR B19",
  "SpacingBetweenSlices": 2,
  "StationName": "MRC35450",
  "TaskName": "rest",
  "TotalReadoutTime": 0.0710717,
  "TxRefAmp": 339.215,
  "dcmmeta_affine": [
    [-1.9990129470825195, -1.0800987126913242e-07, 0.062827467918396, 104.54114532470703],
    [0.0005479442188516259, 1.9999239444732666, 0.017437653616070747, -81.02214813232422],
    [0.06282507628202438, -0.017446260899305344, 1.9989367723464966, -102.02584075927734],
    [0.0, 0.0, 0.0, 1.0]
],
  "dcmmeta_reorient_transform": [
    [0.0, -1.0, 0.0, 103.0],
    [1.0, 0.0, 0.0, 0.0],
    [0.0, 0.0, 1.0, 0.0],
    [0.0, 0.0, 0.0, 1.0]
],
  "dcmmeta_shape": [104, 104, 72, 1070],
  "dcmmeta_slice_dim": 2,
  "dcmmeta_version": 0.6,
  "global": {
    "const": {
      "AcquisitionMatrix": [104, 0, 0, 104],
      "AngioFlag": "N",
      "BitsAllocated": 16,
      "BitsStored": 12,
      "Columns": 936,
      "EchoNumbers": 1,
      "EchoTime": 34.8,
      "EchoTrainLength": 1,
      "FlipAngle": 55.0,
      "HighBit": 11,
      "ImageOrientationPatient": [0.99950646687007, -0.0002739721125, 0.03141253928265, -5.4004935e-08, 0.99996195277684, 0.00872313009954],
      "ImagePositionPatient": [-936.13046843851, -956.71041610359, -137.21568344115],
      "ImageType": [
        "ORIGINAL",
        "PRIMARY",
        "M",
        "MB",
        "ND",
        "MOSAIC"
],
      "ImagedNucleus": "1H",
      "ImagingFrequency": 123.234412,
      "InPlanePhaseEncodingDirection": "COL",
      "MRAcquisitionType": "2D",
      "MagneticFieldStrength": 3.0,
      "Manufacturer": "SIEMENS",
      "ManufacturerModelName": "TrioTim",
      "Modality": "MR",
      "NumberOfAverages": 1.0,
      "NumberOfPhaseEncodingSteps": 91,
      "PercentPhaseFieldOfView": 100.0,
      "PercentSampling": 100.0,
      "PerformedProcedureStepStartTime": "102510.640000",
      "PhotometricInterpretation": "MONOCHROME2",
      "PixelBandwidth": 1923.0,
      "PixelRepresentation": 0,
      "PixelSpacing": [2.0, 2.0],
      "ProtocolName": "cmrr_mbep2d_bold_2mm_MB8_Rest",
      "RepetitionTime": 785.0,
      "Rows": 936,
      "SAR": 0.12187476166379,
      "SamplesPerPixel": 1,
      "ScanOptions": [
        "PFP",
        "FS"
],
      "ScanningSequence": "EP",
      "SequenceName": "epfid2d1_104",
      "SequenceVariant": [
        "SK",
        "SS"
],
      "SeriesDescription": "cmrr_mbep2d_bold_2mm_MB8_Rest",
      "SeriesNumber": 9,
      "SeriesTime": "104913.593000",
      "SliceLocation": -99.393999048507,
      "SliceThickness": 2.0,
      "SmallestImagePixelValue": 0,
      "SoftwareVersions": "syngo MR B19",
      "SpacingBetweenSlices": 1.999999950847,
      "SpecificCharacterSet": "ISO_IR 100",
      "StudyID": "1",
      "StudyTime": "102510.531000",
      "TransmitCoilName": "Body",
      "VariableFlipAngleFlag": "N",
      "WindowCenterWidthExplanation": "Algo1",
      "dBdt": 0.0},
    "slices": {}
  },
  "time": {
    "samples": {
      "AcquisitionNumber": [1, 2, 3, 4, 5, 6, 7, 8, 9, 10, 11, 12, 13, 14, 15, 16, 17, 18, 19, 20, 21, 22, 23, 24, 25, 26, 27, 28, 29, 30, 31, 32, 33, 34, 35, 36, 37, 38, 39, 40, 41, 42, 43, 44, 45, 46, 47, 48, 49, 50, 51, 52, 53, 54, 55, 56, 57, 58, 59, 60, 61, 62, 63, 64, 65, 66, 67, 68, 69, 70, 71, 72, 73, 74, 75, 76, 77, 78, 79, 80, 81, 82, 83, 84, 85, 86, 87, 88, 89, 90, 91, 92, 93, 94, 95, 96, 97, 98, 99, 100, 101, 102, 103, 104, 105, 106, 107, 108, 109, 110, 111, 112, 113, 114, 115, 116, 117, 118, 119, 120, 121, 122, 123, 124, 125, 126, 127, 128, 129, 130, 131, 132, 133, 134, 135, 136, 137, 138, 139, 140, 141, 142, 143, 144, 145, 146, 147, 148, 149, 150, 151, 152, 153, 154, 155, 156, 157, 158, 159, 160, 161, 162, 163, 164, 165, 166, 167, 168, 169, 170, 171, 172, 173, 174, 175, 176, 177, 178, 179, 180, 181, 182, 183, 184, 185, 186, 187, 188, 189, 190, 191, 192, 193, 194, 195, 196, 197, 198, 199, 200, 201, 202, 203, 204, 205, 206, 207, 208, 209, 210, 211, 212, 213, 214, 215, 216, 217, 218, 219, 220, 221, 222, 223, 224, 225, 226, 227, 228, 229, 230, 231, 232, 233, 234, 235, 236, 237, 238, 239, 240, 241, 242, 243, 244, 245, 246, 247, 248, 249, 250, 251, 252, 253, 254, 255, 256, 257, 258, 259, 260, 261, 262, 263, 264, 265, 266, 267, 268, 269, 270, 271, 272, 273, 274, 275, 276, 277, 278, 279, 280, 281, 282, 283, 284, 285, 286, 287, 288, 289, 290, 291, 292, 293, 294, 295, 296, 297, 298, 299, 300, 301, 302, 303, 304, 305, 306, 307, 308, 309, 310, 311, 312, 313, 314, 315, 316, 317, 318, 319, 320, 321, 322, 323, 324, 325, 326, 327, 328, 329, 330, 331, 332, 333, 334, 335, 336, 337, 338, 339, 340, 341, 342, 343, 344, 345, 346, 347, 348, 349, 350, 351, 352, 353, 354, 355, 356, 357, 358, 359, 360, 361, 362, 363, 364, 365, 366, 367, 368, 369, 370, 371, 372, 373, 374, 375, 376, 377, 378, 379, 380, 381, 382, 383, 384, 385, 386, 387, 388, 389, 390, 391, 392, 393, 394, 395, 396, 397, 398, 399, 400, 401, 402, 403, 404, 405, 406, 407, 408, 409, 410, 411, 412, 413, 414, 415, 416, 417, 418, 419, 420, 421, 422, 423, 424, 425, 426, 427, 428, 429, 430, 431, 432, 433, 434, 435, 436, 437, 438, 439, 440, 441, 442, 443, 444, 445, 446, 447, 448, 449, 450, 451, 452, 453, 454, 455, 456, 457, 458, 459, 460, 461, 462, 463, 464, 465, 466, 467, 468, 469, 470, 471, 472, 473, 474, 475, 476, 477, 478, 479, 480, 481, 482, 483, 484, 485, 486, 487, 488, 489, 490, 491, 492, 493, 494, 495, 496, 497, 498, 499, 500, 501, 502, 503, 504, 505, 506, 507, 508, 509, 510, 511, 512, 513, 514, 515, 516, 517, 518, 519, 520, 521, 522, 523, 524, 525, 526, 527, 528, 529, 530, 531, 532, 533, 534, 535, 536, 537, 538, 539, 540, 541, 542, 543, 544, 545, 546, 547, 548, 549, 550, 551, 552, 553, 554, 555, 556, 557, 558, 559, 560, 561, 562, 563, 564, 565, 566, 567, 568, 569, 570, 571, 572, 573, 574, 575, 576, 577, 578, 579, 580, 581, 582, 583, 584, 585, 586, 587, 588, 589, 590, 591, 592, 593, 594, 595, 596, 597, 598, 599, 600, 601, 602, 603, 604, 605, 606, 607, 608, 609, 610, 611, 612, 613, 614, 615, 616, 617, 618, 619, 620, 621, 622, 623, 624, 625, 626, 627, 628, 629, 630, 631, 632, 633, 634, 635, 636, 637, 638, 639, 640, 641, 642, 643, 644, 645, 646, 647, 648, 649, 650, 651, 652, 653, 654, 655, 656, 657, 658, 659, 660, 661, 662, 663, 664, 665, 666, 667, 668, 669, 670, 671, 672, 673, 674, 675, 676, 677, 678, 679, 680, 681, 682, 683, 684, 685, 686, 687, 688, 689, 690, 691, 692, 693, 694, 695, 696, 697, 698, 699, 700, 701, 702, 703, 704, 705, 706, 707, 708, 709, 710, 711, 712, 713, 714, 715, 716, 717, 718, 719, 720, 721, 722, 723, 724, 725, 726, 727, 728, 729, 730, 731, 732, 733, 734, 735, 736, 737, 738, 739, 740, 741, 742, 743, 744, 745, 746, 747, 748, 749, 750, 751, 752, 753, 754, 755, 756, 757, 758, 759, 760, 761, 762, 763, 764, 765, 766, 767, 768, 769, 770, 771, 772, 773, 774, 775, 776, 777, 778, 779, 780, 781, 782, 783, 784, 785, 786, 787, 788, 789, 790, 791, 792, 793, 794, 795, 796, 797, 798, 799, 800, 801, 802, 803, 804, 805, 806, 807, 808, 809, 810, 811, 812, 813, 814, 815, 816, 817, 818, 819, 820, 821, 822, 823, 824, 825, 826, 827, 828, 829, 830, 831, 832, 833, 834, 835, 836, 837, 838, 839, 840, 841, 842, 843, 844, 845, 846, 847, 848, 849, 850, 851, 852, 853, 854, 855, 856, 857, 858, 859, 860, 861, 862, 863, 864, 865, 866, 867, 868, 869, 870, 871, 872, 873, 874, 875, 876, 877, 878, 879, 880, 881, 882, 883, 884, 885, 886, 887, 888, 889, 890, 891, 892, 893, 894, 895, 896, 897, 898, 899, 900, 901, 902, 903, 904, 905, 906, 907, 908, 909, 910, 911, 912, 913, 914, 915, 916, 917, 918, 919, 920, 921, 922, 923, 924, 925, 926, 927, 928, 929, 930, 931, 932, 933, 934, 935, 936, 937, 938, 939, 940, 941, 942, 943, 944, 945, 946, 947, 948, 949, 950, 951, 952, 953, 954, 955, 956, 957, 958, 959, 960, 961, 962, 963, 964, 965, 966, 967, 968, 969, 970, 971, 972, 973, 974, 975, 976, 977, 978, 979, 980, 981, 982, 983, 984, 985, 986, 987, 988, 989, 990, 991, 992, 993, 994, 995, 996, 997, 998, 999, 1000, 1001, 1002, 1003, 1004, 1005, 1006, 1007, 1008, 1009, 1010, 1011, 1012, 1013, 1014, 1015, 1016, 1017, 1018, 1019, 1020, 1021, 1022, 1023, 1024, 1025, 1026, 1027, 1028, 1029, 1030, 1031, 1032, 1033, 1034, 1035, 1036, 1037, 1038, 1039, 1040, 1041, 1042, 1043, 1044, 1045, 1046, 1047, 1048, 1049, 1050, 1051, 1052, 1053, 1054, 1055, 1056, 1057, 1058, 1059, 1060, 1061, 1062, 1063, 1064, 1065, 1066, 1067, 1068, 1069, 1070],
      "AcquisitionTime": ["104850.115000", "104850.902500", "104851.690000", "104852.477500", "104853.267500", "104854.055000", "104854.842500", "104855.630000", "104856.420000", "104857.207500", "104857.995000", "104858.782500", "104859.572500", "104900.360000", "104901.147500", "104901.935000", "104902.725000", "104903.512500", "104904.300000", "104905.087500", "104905.877500", "104906.665000", "104907.452500", "104908.242500", "104909.030000", "104909.817500", "104910.605000", "104911.395000", "104912.182500", "104912.970000", "104913.757500", "104914.547500", "104915.335000", "104916.122500", "104916.910000", "104917.700000", "104918.487500", "104919.275000", "104920.062500", "104920.852500", "104921.640000", "104922.427500", "104923.215000", "104924.005000", "104924.792500", "104925.580000", "104926.370000", "104927.157500", "104927.945000", "104928.732500", "104929.522500", "104930.310000", "104931.097500", "104931.885000", "104932.675000", "104933.462500", "104934.250000", "104935.037500", "104935.827500", "104936.615000", "104937.402500", "104938.190000", "104938.980000", "104939.767500", "104940.555000", "104941.345000", "104942.132500", "104942.920000", "104943.707500", "104944.497500", "104945.285000", "104946.072500", "104946.860000", "104947.650000", "104948.437500", "104949.225000", "104950.012500", "104950.802500", "104951.590000", "104952.377500", "104953.165000", "104953.955000", "104954.742500", "104955.530000", "104956.317500", "104957.107500", "104957.895000", "104958.682500", "104959.472500", "105000.260000", "105001.047500", "105001.835000", "105002.625000", "105003.412500", "105004.200000", "105004.987500", "105005.777500", "105006.565000", "105007.352500", "105008.140000", "105008.930000", "105009.717500", "105010.505000", "105011.292500", "105012.082500", "105012.870000", "105013.657500", "105014.445000", "105015.235000", "105016.022500", "105016.810000", "105017.600000", "105018.387500", "105019.175000", "105019.962500", "105020.752500", "105021.540000", "105022.327500", "105023.115000", "105023.905000", "105024.692500", "105025.480000", "105026.267500", "105027.057500", "105027.845000", "105028.632500", "105029.420000", "105030.210000", "105030.997500", "105031.785000", "105032.572500", "105033.362500", "105034.150000", "105034.937500", "105035.727500", "105036.515000", "105037.302500", "105038.090000", "105038.880000", "105039.667500", "105040.455000", "105041.242500", "105042.032500", "105042.820000", "105043.607500", "105044.395000", "105045.185000", "105045.972500", "105046.760000", "105047.547500", "105048.337500", "105049.125000", "105049.912500", "105050.700000", "105051.490000", "105052.277500", "105053.065000", "105053.855000", "105054.642500", "105055.430000", "105056.217500", "105057.007500", "105057.795000", "105058.582500", "105059.370000", "105100.160000", "105100.947500", "105101.735000", "105102.522500", "105103.312500", "105104.100000", "105104.887500", "105105.675000", "105106.465000", "105107.252500", "105108.040000", "105108.827500", "105109.617500", "105110.405000", "105111.192500", "105111.982500", "105112.770000", "105113.557500", "105114.345000", "105115.135000", "105115.922500", "105116.710000", "105117.497500", "105118.287500", "105119.075000", "105119.862500", "105120.650000", "105121.440000", "105122.227500", "105123.015000", "105123.802500", "105124.592500", "105125.380000", "105126.167500", "105126.955000", "105127.745000", "105128.532500", "105129.320000", "105130.110000", "105130.897500", "105131.685000", "105132.472500", "105133.262500", "105134.050000", "105134.837500", "105135.625000", "105136.415000", "105137.202500", "105137.990000", "105138.777500", "105139.567500", "105140.355000", "105141.142500", "105141.930000", "105142.720000", "105143.507500", "105144.295000", "105145.082500", "105145.872500", "105146.660000", "105147.447500", "105148.237500", "105149.025000", "105149.812500", "105150.600000", "105151.390000", "105152.177500", "105152.965000", "105153.752500", "105154.542500", "105155.330000", "105156.117500", "105156.905000", "105157.695000", "105158.482500", "105159.270000", "105200.057500", "105200.847500", "105201.635000", "105202.422500", "105203.210000", "105204.000000", "105204.787500", "105205.575000", "105206.365000", "105207.152500", "105207.940000", "105208.727500", "105209.517500", "105210.305000", "105211.092500", "105211.880000", "105212.670000", "105213.457500", "105214.245000", "105215.032500", "105215.822500", "105216.610000", "105217.397500", "105218.185000", "105218.975000", "105219.762500", "105220.550000", "105221.337500", "105222.127500", "105222.915000", "105223.702500", "105224.492500", "105225.280000", "105226.067500", "105226.855000", "105227.645000", "105228.432500", "105229.220000", "105230.007500", "105230.797500", "105231.585000", "105232.372500", "105233.160000", "105233.950000", "105234.737500", "105235.525000", "105236.312500", "105237.102500", "105237.890000", "105238.677500", "105239.465000", "105240.255000", "105241.042500", "105241.830000", "105242.620000", "105243.407500", "105244.195000", "105244.982500", "105245.772500", "105246.560000", "105247.347500", "105248.135000", "105248.925000", "105249.712500", "105250.500000", "105251.287500", "105252.077500", "105252.865000", "105253.652500", "105254.440000", "105255.230000", "105256.017500", "105256.805000", "105257.595000", "105258.382500", "105259.170000", "105259.957500", "105300.747500", "105301.535000", "105302.322500", "105303.110000", "105303.900000", "105304.687500", "105305.475000", "105306.262500", "105307.052500", "105307.840000", "105308.627500", "105309.415000", "105310.205000", "105310.992500", "105311.780000", "105312.567500", "105313.357500", "105314.145000", "105314.932500", "105315.722500", "105316.510000", "105317.297500", "105318.085000", "105318.875000", "105319.662500", "105320.450000", "105321.237500", "105322.027500", "105322.815000", "105323.602500", "105324.390000", "105325.180000", "105325.967500", "105326.755000", "105327.542500", "105328.332500", "105329.120000", "105329.907500", "105330.695000", "105331.485000", "105332.272500", "105333.060000", "105333.850000", "105334.637500", "105335.425000", "105336.212500", "105337.002500", "105337.790000", "105338.577500", "105339.365000", "105340.155000", "105340.942500", "105341.730000", "105342.517500", "105343.307500", "105344.095000", "105344.882500", "105345.670000", "105346.460000", "105347.247500", "105348.035000", "105348.822500", "105349.612500", "105350.400000", "105351.187500", "105351.977500", "105352.765000", "105353.552500", "105354.340000", "105355.130000", "105355.917500", "105356.705000", "105357.492500", "105358.282500", "105359.070000", "105359.857500", "105400.645000", "105401.435000", "105402.222500", "105403.010000", "105403.797500", "105404.587500", "105405.375000", "105406.162500", "105406.950000", "105407.740000", "105408.527500", "105409.315000", "105410.105000", "105410.892500", "105411.680000", "105412.467500", "105413.257500", "105414.045000", "105414.832500", "105415.620000", "105416.410000", "105417.197500", "105417.985000", "105418.772500", "105419.562500", "105420.350000", "105421.137500", "105421.925000", "105422.715000", "105423.502500", "105424.290000", "105425.077500", "105425.867500", "105426.655000", "105427.442500", "105428.232500", "105429.020000", "105429.807500", "105430.595000", "105431.385000", "105432.172500", "105432.960000", "105433.747500", "105434.537500", "105435.325000", "105436.112500", "105436.900000", "105437.690000", "105438.477500", "105439.265000", "105440.052500", "105440.842500", "105441.630000", "105442.417500", "105443.205000", "105443.995000", "105444.782500", "105445.570000", "105446.360000", "105447.147500", "105447.935000", "105448.722500", "105449.512500", "105450.300000", "105451.087500", "105451.875000", "105452.665000", "105453.452500", "105454.240000", "105455.027500", "105455.817500", "105456.605000", "105457.392500", "105458.180000", "105458.970000", "105459.757500", "105500.545000", "105501.332500", "105502.122500", "105502.910000", "105503.697500", "105504.487500", "105505.275000", "105506.062500", "105506.850000", "105507.640000", "105508.427500", "105509.215000", "105510.002500", "105510.792500", "105511.580000", "105512.367500", "105513.155000", "105513.945000", "105514.732500", "105515.520000", "105516.307500", "105517.097500", "105517.885000", "105518.672500", "105519.460000", "105520.250000", "105521.037500", "105521.825000", "105522.615000", "105523.402500", "105524.190000", "105524.977500", "105525.767500", "105526.555000", "105527.342500", "105528.130000", "105528.920000", "105529.707500", "105530.495000", "105531.282500", "105532.072500", "105532.860000", "105533.647500", "105534.435000", "105535.225000", "105536.012500", "105536.800000", "105537.587500", "105538.377500", "105539.165000", "105539.952500", "105540.742500", "105541.530000", "105542.317500", "105543.105000", "105543.895000", "105544.682500", "105545.470000", "105546.257500", "105547.047500", "105547.835000", "105548.622500", "105549.410000", "105550.200000", "105550.987500", "105551.775000", "105552.562500", "105553.352500", "105554.140000", "105554.927500", "105555.715000", "105556.505000", "105557.292500", "105558.080000", "105558.870000", "105559.657500", "105600.445000", "105601.232500", "105602.022500", "105602.810000", "105603.597500", "105604.385000", "105605.175000", "105605.962500", "105606.750000", "105607.537500", "105608.327500", "105609.115000", "105609.902500", "105610.690000", "105611.480000", "105612.267500", "105613.055000", "105613.845000", "105614.632500", "105615.420000", "105616.207500", "105616.997500", "105617.785000", "105618.572500", "105619.360000", "105620.150000", "105620.937500", "105621.725000", "105622.512500", "105623.302500", "105624.090000", "105624.877500", "105625.665000", "105626.455000", "105627.242500", "105628.030000", "105628.817500", "105629.607500", "105630.395000", "105631.182500", "105631.972500", "105632.760000", "105633.547500", "105634.335000", "105635.125000", "105635.912500", "105636.700000", "105637.487500", "105638.277500", "105639.065000", "105639.852500", "105640.640000", "105641.430000", "105642.217500", "105643.005000", "105643.792500", "105644.582500", "105645.370000", "105646.157500", "105646.945000", "105647.735000", "105648.522500", "105649.310000", "105650.100000", "105650.887500", "105651.675000", "105652.462500", "105653.252500", "105654.040000", "105654.827500", "105655.615000", "105656.405000", "105657.192500", "105657.980000", "105658.767500", "105659.557500", "105700.345000", "105701.132500", "105701.920000", "105702.710000", "105703.497500", "105704.285000", "105705.072500", "105705.862500", "105706.650000", "105707.437500", "105708.227500", "105709.015000", "105709.802500", "105710.590000", "105711.380000", "105712.167500", "105712.955000", "105713.742500", "105714.532500", "105715.320000", "105716.107500", "105716.895000", "105717.685000", "105718.472500", "105719.260000", "105720.047500", "105720.837500", "105721.625000", "105722.412500", "105723.200000", "105723.990000", "105724.777500", "105725.565000", "105726.355000", "105727.142500", "105727.930000", "105728.717500", "105729.507500", "105730.295000", "105731.082500", "105731.870000", "105732.660000", "105733.447500", "105734.235000", "105735.022500", "105735.812500", "105736.600000", "105737.387500", "105738.175000", "105738.965000", "105739.752500", "105740.540000", "105741.327500", "105742.117500", "105742.905000", "105743.692500", "105744.482500", "105745.270000", "105746.057500", "105746.845000", "105747.635000", "105748.422500", "105749.210000", "105749.997500", "105750.787500", "105751.575000", "105752.362500", "105753.150000", "105753.940000", "105754.727500", "105755.515000", "105756.302500", "105757.092500", "105757.880000", "105758.667500", "105759.455000", "105800.245000", "105801.032500", "105801.820000", "105802.610000", "105803.397500", "105804.185000", "105804.972500", "105805.762500", "105806.550000", "105807.337500", "105808.125000", "105808.915000", "105809.702500", "105810.490000", "105811.277500", "105812.067500", "105812.855000", "105813.642500", "105814.430000", "105815.220000", "105816.007500", "105816.795000", "105817.582500", "105818.372500", "105819.160000", "105819.947500", "105820.737500", "105821.525000", "105822.312500", "105823.100000", "105823.890000", "105824.677500", "105825.465000", "105826.252500", "105827.042500", "105827.830000", "105828.617500", "105829.405000", "105830.195000", "105830.982500", "105831.770000", "105832.557500", "105833.347500", "105834.135000", "105834.922500", "105835.710000", "105836.500000", "105837.287500", "105838.075000", "105838.865000", "105839.652500", "105840.440000", "105841.227500", "105842.017500", "105842.805000", "105843.592500", "105844.380000", "105845.170000", "105845.957500", "105846.745000", "105847.532500", "105848.322500", "105849.110000", "105849.897500", "105850.685000", "105851.475000", "105852.262500", "105853.050000", "105853.837500", "105854.627500", "105855.415000", "105856.202500", "105856.992500", "105857.780000", "105858.567500", "105859.355000", "105900.145000", "105900.932500", "105901.720000", "105902.507500", "105903.297500", "105904.085000", "105904.872500", "105905.660000", "105906.450000", "105907.237500", "105908.025000", "105908.812500", "105909.602500", "105910.390000", "105911.177500", "105911.965000", "105912.755000", "105913.542500", "105914.330000", "105915.120000", "105915.907500", "105916.695000", "105917.482500", "105918.272500", "105919.060000", "105919.847500", "105920.635000", "105921.425000", "105922.212500", "105923.000000", "105923.787500", "105924.577500", "105925.365000", "105926.152500", "105926.940000", "105927.730000", "105928.517500", "105929.305000", "105930.095000", "105930.882500", "105931.670000", "105932.457500", "105933.247500", "105934.035000", "105934.822500", "105935.610000", "105936.400000", "105937.187500", "105937.975000", "105938.762500", "105939.552500", "105940.340000", "105941.127500", "105941.915000", "105942.705000", "105943.492500", "105944.280000", "105945.067500", "105945.857500", "105946.645000", "105947.432500", "105948.222500", "105949.010000", "105949.797500", "105950.585000", "105951.375000", "105952.162500", "105952.950000", "105953.737500", "105954.527500", "105955.315000", "105956.102500", "105956.890000", "105957.680000", "105958.467500", "105959.255000", "110000.042500", "110000.832500", "110001.620000", "110002.407500", "110003.195000", "110003.985000", "110004.772500", "110005.560000", "110006.350000", "110007.137500", "110007.925000", "110008.712500", "110009.502500", "110010.290000", "110011.077500", "110011.865000", "110012.655000", "110013.442500", "110014.230000", "110015.017500", "110015.807500", "110016.595000", "110017.382500", "110018.170000", "110018.960000", "110019.747500", "110020.535000", "110021.322500", "110022.112500", "110022.900000", "110023.687500", "110024.477500", "110025.265000", "110026.052500", "110026.840000", "110027.630000", "110028.417500", "110029.205000", "110029.992500", "110030.782500", "110031.570000", "110032.357500", "110033.145000", "110033.935000", "110034.722500", "110035.510000", "110036.297500", "110037.087500", "110037.875000", "110038.662500", "110039.450000", "110040.240000", "110041.027500", "110041.815000", "110042.605000", "110043.392500", "110044.180000", "110044.967500", "110045.757500", "110046.545000", "110047.332500", "110048.120000", "110048.910000", "110049.697500", "110050.485000", "110051.272500", "110052.062500", "110052.850000", "110053.637500", "110054.425000", "110055.215000", "110056.002500", "110056.790000", "110057.577500", "110058.367500", "110059.155000", "110059.942500", "110100.732500", "110101.520000", "110102.307500", "110103.095000", "110103.885000", "110104.672500", "110105.460000", "110106.247500", "110107.037500", "110107.825000", "110108.612500", "110109.400000", "110110.190000", "110110.977500", "110111.765000", "110112.552500", "110113.342500", "110114.130000", "110114.917500", "110115.705000", "110116.495000", "110117.282500", "110118.070000", "110118.860000", "110119.647500", "110120.435000", "110121.222500", "110122.012500", "110122.800000", "110123.587500", "110124.375000", "110125.165000", "110125.952500", "110126.740000", "110127.527500", "110128.317500", "110129.105000", "110129.892500", "110130.680000", "110131.470000", "110132.257500", "110133.045000", "110133.832500", "110134.622500", "110135.410000", "110136.197500", "110136.987500", "110137.775000", "110138.562500", "110139.350000", "110140.140000", "110140.927500", "110141.715000", "110142.502500", "110143.292500", "110144.080000", "110144.867500", "110145.655000", "110146.445000", "110147.232500", "110148.020000", "110148.807500", "110149.597500", "110150.385000", "110151.172500", "110151.960000", "110152.750000", "110153.537500", "110154.325000", "110155.115000", "110155.902500", "110156.690000", "110157.477500", "110158.267500", "110159.055000", "110159.842500", "110200.630000", "110201.420000", "110202.207500", "110202.995000", "110203.782500", "110204.572500", "110205.360000", "110206.147500", "110206.935000", "110207.725000", "110208.512500", "110209.300000", "110210.087500", "110210.877500", "110211.665000", "110212.452500", "110213.242500", "110214.030000", "110214.817500", "110215.605000", "110216.395000", "110217.182500", "110217.970000", "110218.757500", "110219.547500", "110220.335000", "110221.122500", "110221.910000", "110222.700000", "110223.487500", "110224.275000", "110225.062500", "110225.852500", "110226.640000", "110227.427500", "110228.215000", "110229.005000", "110229.792500", "110230.580000", "110231.370000", "110232.157500", "110232.945000", "110233.732500", "110234.522500", "110235.310000", "110236.097500", "110236.885000", "110237.675000", "110238.462500", "110239.250000", "110240.037500", "110240.827500", "110241.615000", "110242.402500", "110243.190000", "110243.980000", "110244.767500", "110245.555000", "110246.345000", "110247.132500", "110247.920000", "110248.707500", "110249.497500", "110250.285000", "110251.072500", "110251.860000", "110252.650000"],
