{
  "AcquisitionMatrixPE": 104,
  "AcquisitionNumber": 1,
  "AcquisitionTime": "11:35:10.725000",
  "BandwidthPerPixelPhaseEncode": 13.935,
  "BaseResolution": 104,
  "CoilString": "C:HEA;HEP",
  "ConversionSoftware": "dcm2niix",
  "ConversionSoftwareVersion": "v1.0.20210317",
  "DerivedVendorReportedEchoSpacing": 0.000690017,
  "DeviceSerialNumber": "35450",
  "DwellTime": 2.5e-06,
  "EchoTime": 0.0348,
  "EffectiveEchoSpacing": 0.000690017,
  "FlipAngle": 55,
  "ImageComments": "Unaliased MB8/PE3 (remote)",
  "ImageOrientationPatientDICOM": [0.999506, -0.000273972, 0.0314125, -5.40049e-08, 0.999962, 0.00872313],
  "ImageType": [
    "ORIGINAL",
    "PRIMARY",
    "M",
    "MB",
    "ND",
    "MOSAIC"
],
  "ImagingFrequency": 123.234,
  "InPlanePhaseEncodingDirectionDICOM": "COL",
  "InstitutionAddress": "Univeristy Ave. 197,Newark,North East,US,07102-1814",
  "InstitutionName": "RUBIC",
  "InstitutionalDepartmentName": "Department",
  "MRAcquisitionType": "2D",
  "MagneticFieldStrength": 3,
  "Manufacturer": "Siemens",
  "ManufacturersModelName": "TrioTim",
  "Modality": "MR",
  "MultibandAccelerationFactor": 8,
  "PartialFourier": 0.875,
  "PatientPosition": "HFS",
  "PercentPhaseFOV": 100,
  "PercentSampling": 100,
  "PhaseEncodingDirection": "j-",
  "PhaseEncodingSteps": 91,
  "PhaseResolution": 1,
  "PixelBandwidth": 1923,
  "ProcedureStepDescription": "Cole^Michael",
  "ProtocolName": "cmrr_mbep2d_bold_2mm_MB8_Task_8x",
  "PulseSequenceDetails": "%CustomerSeq%\\cmrr_mbep2d_bold",
  "ReceiveCoilName": "32Ch_Head",
  "ReconMatrixPE": 104,
  "RepetitionTime": 0.785,
  "SAR": 0.128486,
  "ScanOptions": "PFP\\FS",
  "ScanningSequence": "EP",
  "SequenceName": "epfid2d1_104",
  "SequenceVariant": "SK\\SS",
  "SeriesDescription": "cmrr_mbep2d_bold_2mm_MB8_Task_8x",
  "SeriesNumber": 19,
  "ShimSetting": [2128, -382, -7345, 628, -122, -139, 284, -48],
  "SliceThickness": 2,
  "SliceTiming": [0, 0.4375, 0.0875, 0.525, 0.175, 0.6125, 0.2625, 0.7, 0.35, 0, 0.4375, 0.0875, 0.525, 0.175, 0.6125, 0.2625, 0.7, 0.35, 0, 0.4375, 0.0875, 0.525, 0.175, 0.6125, 0.2625, 0.7, 0.35, 0, 0.4375, 0.0875, 0.525, 0.175, 0.6125, 0.2625, 0.7, 0.35, 0, 0.4375, 0.0875, 0.525, 0.175, 0.6125, 0.2625, 0.7, 0.35, 0, 0.4375, 0.0875, 0.525, 0.175, 0.6125, 0.2625, 0.7, 0.35, 0, 0.4375, 0.0875, 0.525, 0.175, 0.6125, 0.2625, 0.7, 0.35, 0, 0.4375, 0.0875, 0.525, 0.175, 0.6125, 0.2625, 0.7, 0.35],
  "SoftwareVersions": "syngo MR B19",
  "SpacingBetweenSlices": 2,
  "StationName": "MRC35450",
  "TaskName": "cpro",
  "TotalReadoutTime": 0.0710717,
  "TxRefAmp": 339.215,
  "dcmmeta_affine": [
    [-1.9990129470825195, -1.0800987126913242e-07, 0.062827467918396, 104.54114532470703],
    [0.0005479442188516259, 1.9999239444732666, 0.017437653616070747, -81.02214813232422],
    [0.06282507628202438, -0.017446260899305344, 1.9989367723464966, -102.02584075927734],
    [0.0, 0.0, 0.0, 1.0]
],
  "dcmmeta_reorient_transform": [
    [0.0, -1.0, 0.0, 103.0],
    [1.0, 0.0, 0.0, 0.0],
    [0.0, 0.0, 1.0, 0.0],
    [0.0, 0.0, 0.0, 1.0]
],
  "dcmmeta_shape": [104, 104, 72, 581],
  "dcmmeta_slice_dim": 2,
  "dcmmeta_version": 0.6,
  "global": {
    "const": {
      "AcquisitionMatrix": [104, 0, 0, 104],
      "AngioFlag": "N",
      "BitsAllocated": 16,
      "BitsStored": 12,
      "Columns": 936,
      "EchoNumbers": 1,
      "EchoTime": 34.8,
      "EchoTrainLength": 1,
      "FlipAngle": 55.0,
      "HighBit": 11,
      "ImageOrientationPatient": [0.99950646687007, -0.0002739721125, 0.03141253928265, -5.4004935e-08, 0.99996195277684, 0.00872313009954],
      "ImagePositionPatient": [-936.13046843851, -956.71041610359, -137.21568344115],
      "ImageType": [
        "ORIGINAL",
        "PRIMARY",
        "M",
        "MB",
        "ND",
        "MOSAIC"
],
      "ImagedNucleus": "1H",
      "ImagingFrequency": 123.234474,
      "InPlanePhaseEncodingDirection": "COL",
      "MRAcquisitionType": "2D",
      "MagneticFieldStrength": 3.0,
      "Manufacturer": "SIEMENS",
      "ManufacturerModelName": "TrioTim",
      "Modality": "MR",
      "NumberOfAverages": 1.0,
      "NumberOfPhaseEncodingSteps": 91,
      "PercentPhaseFieldOfView": 100.0,
      "PercentSampling": 100.0,
      "PerformedProcedureStepStartTime": "102510.640000",
      "PhotometricInterpretation": "MONOCHROME2",
      "PixelBandwidth": 1923.0,
      "PixelRepresentation": 0,
      "PixelSpacing": [2.0, 2.0],
      "ProtocolName": "cmrr_mbep2d_bold_2mm_MB8_Task_8x",
      "RepetitionTime": 785.0,
      "Rows": 936,
      "SAR": 0.12848642899363,
      "SamplesPerPixel": 1,
      "ScanOptions": [
        "PFP",
        "FS"
],
      "ScanningSequence": "EP",
      "SequenceName": "epfid2d1_104",
      "SequenceVariant": [
        "SK",
        "SS"
],
      "SeriesDescription": "cmrr_mbep2d_bold_2mm_MB8_Task_8x",
      "SeriesNumber": 19,
      "SeriesTime": "113534.515000",
      "SliceLocation": -99.393999048507,
      "SliceThickness": 2.0,
      "SmallestImagePixelValue": 0,
      "SoftwareVersions": "syngo MR B19",
      "SpacingBetweenSlices": 1.999999950847,
      "SpecificCharacterSet": "ISO_IR 100",
      "StudyID": "1",
      "StudyTime": "102510.531000",
      "TransmitCoilName": "Body",
      "VariableFlipAngleFlag": "N",
      "WindowCenterWidthExplanation": "Algo1",
      "dBdt": 0.0},
    "slices": {}
  },
  "time": {
    "samples": {
      "AcquisitionNumber": [1, 2, 3, 4, 5, 6, 7, 8, 9, 10, 11, 12, 13, 14, 15, 16, 17, 18, 19, 20, 21, 22, 23, 24, 25, 26, 27, 28, 29, 30, 31, 32, 33, 34, 35, 36, 37, 38, 39, 40, 41, 42, 43, 44, 45, 46, 47, 48, 49, 50, 51, 52, 53, 54, 55, 56, 57, 58, 59, 60, 61, 62, 63, 64, 65, 66, 67, 68, 69, 70, 71, 72, 73, 74, 75, 76, 77, 78, 79, 80, 81, 82, 83, 84, 85, 86, 87, 88, 89, 90, 91, 92, 93, 94, 95, 96, 97, 98, 99, 100, 101, 102, 103, 104, 105, 106, 107, 108, 109, 110, 111, 112, 113, 114, 115, 116, 117, 118, 119, 120, 121, 122, 123, 124, 125, 126, 127, 128, 129, 130, 131, 132, 133, 134, 135, 136, 137, 138, 139, 140, 141, 142, 143, 144, 145, 146, 147, 148, 149, 150, 151, 152, 153, 154, 155, 156, 157, 158, 159, 160, 161, 162, 163, 164, 165, 166, 167, 168, 169, 170, 171, 172, 173, 174, 175, 176, 177, 178, 179, 180, 181, 182, 183, 184, 185, 186, 187, 188, 189, 190, 191, 192, 193, 194, 195, 196, 197, 198, 199, 200, 201, 202, 203, 204, 205, 206, 207, 208, 209, 210, 211, 212, 213, 214, 215, 216, 217, 218, 219, 220, 221, 222, 223, 224, 225, 226, 227, 228, 229, 230, 231, 232, 233, 234, 235, 236, 237, 238, 239, 240, 241, 242, 243, 244, 245, 246, 247, 248, 249, 250, 251, 252, 253, 254, 255, 256, 257, 258, 259, 260, 261, 262, 263, 264, 265, 266, 267, 268, 269, 270, 271, 272, 273, 274, 275, 276, 277, 278, 279, 280, 281, 282, 283, 284, 285, 286, 287, 288, 289, 290, 291, 292, 293, 294, 295, 296, 297, 298, 299, 300, 301, 302, 303, 304, 305, 306, 307, 308, 309, 310, 311, 312, 313, 314, 315, 316, 317, 318, 319, 320, 321, 322, 323, 324, 325, 326, 327, 328, 329, 330, 331, 332, 333, 334, 335, 336, 337, 338, 339, 340, 341, 342, 343, 344, 345, 346, 347, 348, 349, 350, 351, 352, 353, 354, 355, 356, 357, 358, 359, 360, 361, 362, 363, 364, 365, 366, 367, 368, 369, 370, 371, 372, 373, 374, 375, 376, 377, 378, 379, 380, 381, 382, 383, 384, 385, 386, 387, 388, 389, 390, 391, 392, 393, 394, 395, 396, 397, 398, 399, 400, 401, 402, 403, 404, 405, 406, 407, 408, 409, 410, 411, 412, 413, 414, 415, 416, 417, 418, 419, 420, 421, 422, 423, 424, 425, 426, 427, 428, 429, 430, 431, 432, 433, 434, 435, 436, 437, 438, 439, 440, 441, 442, 443, 444, 445, 446, 447, 448, 449, 450, 451, 452, 453, 454, 455, 456, 457, 458, 459, 460, 461, 462, 463, 464, 465, 466, 467, 468, 469, 470, 471, 472, 473, 474, 475, 476, 477, 478, 479, 480, 481, 482, 483, 484, 485, 486, 487, 488, 489, 490, 491, 492, 493, 494, 495, 496, 497, 498, 499, 500, 501, 502, 503, 504, 505, 506, 507, 508, 509, 510, 511, 512, 513, 514, 515, 516, 517, 518, 519, 520, 521, 522, 523, 524, 525, 526, 527, 528, 529, 530, 531, 532, 533, 534, 535, 536, 537, 538, 539, 540, 541, 542, 543, 544, 545, 546, 547, 548, 549, 550, 551, 552, 553, 554, 555, 556, 557, 558, 559, 560, 561, 562, 563, 564, 565, 566, 567, 568, 569, 570, 571, 572, 573, 574, 575, 576, 577, 578, 579, 580, 581],
      "AcquisitionTime": ["113510.725000", "113511.515000", "113512.302500", "113513.090000", "113513.877500", "113514.667500", "113515.455000", "113516.242500", "113517.030000", "113517.820000", "113518.607500", "113519.395000", "113520.182500", "113520.972500", "113521.760000", "113522.547500", "113523.335000", "113524.125000", "113524.912500", "113525.700000", "113526.490000", "113527.277500", "113528.065000", "113528.852500", "113529.642500", "113530.430000", "113531.217500", "113532.005000", "113532.795000", "113533.582500", "113534.370000", "113535.157500", "113535.947500", "113536.735000", "113537.522500", "113538.310000", "113539.100000", "113539.887500", "113540.675000", "113541.462500", "113542.252500", "113543.040000", "113543.827500", "113544.617500", "113545.405000", "113546.192500", "113546.980000", "113547.770000", "113548.557500", "113549.345000", "113550.132500", "113550.922500", "113551.710000", "113552.497500", "113553.285000", "113554.075000", "113554.862500", "113555.650000", "113556.437500", "113557.227500", "113558.015000", "113558.802500", "113559.590000", "113600.380000", "113601.167500", "113601.955000", "113602.745000", "113603.532500", "113604.320000", "113605.107500", "113605.897500", "113606.685000", "113607.472500", "113608.260000", "113609.050000", "113609.837500", "113610.625000", "113611.412500", "113612.202500", "113612.990000", "113613.777500", "113614.565000", "113615.355000", "113616.142500", "113616.930000", "113617.717500", "113618.507500", "113619.295000", "113620.082500", "113620.872500", "113621.660000", "113622.447500", "113623.235000", "113624.025000", "113624.812500", "113625.600000", "113626.387500", "113627.177500", "113627.965000", "113628.752500", "113629.540000", "113630.330000", "113631.117500", "113631.905000", "113632.692500", "113633.482500", "113634.270000", "113635.057500", "113635.845000", "113636.635000", "113637.422500", "113638.210000", "113639.000000", "113639.787500", "113640.575000", "113641.362500", "113642.152500", "113642.940000", "113643.727500", "113644.515000", "113645.305000", "113646.092500", "113646.880000", "113647.667500", "113648.457500", "113649.245000", "113650.032500", "113650.820000", "113651.610000", "113652.397500", "113653.185000", "113653.972500", "113654.762500", "113655.550000", "113656.337500", "113657.127500", "113657.915000", "113658.702500", "113659.490000", "113700.280000", "113701.067500", "113701.855000", "113702.642500", "113703.432500", "113704.220000", "113705.007500", "113705.795000", "113706.585000", "113707.372500", "113708.160000", "113708.947500", "113709.737500", "113710.525000", "113711.312500", "113712.100000", "113712.890000", "113713.677500", "113714.465000", "113715.255000", "113716.042500", "113716.830000", "113717.617500", "113718.407500", "113719.195000", "113719.982500", "113720.770000", "113721.560000", "113722.347500", "113723.135000", "113723.922500", "113724.712500", "113725.500000", "113726.287500", "113727.075000", "113727.865000", "113728.652500", "113729.440000", "113730.227500", "113731.017500", "113731.805000", "113732.592500", "113733.382500", "113734.170000", "113734.957500", "113735.745000", "113736.535000", "113737.322500", "113738.110000", "113738.897500", "113739.687500", "113740.475000", "113741.262500", "113742.050000", "113742.840000", "113743.627500", "113744.415000", "113745.202500", "113745.992500", "113746.780000", "113747.567500", "113748.355000", "113749.145000", "113749.932500", "113750.720000", "113751.510000", "113752.297500", "113753.085000", "113753.872500", "113754.662500", "113755.450000", "113756.237500", "113757.025000", "113757.815000", "113758.602500", "113759.390000", "113800.177500", "113800.967500", "113801.755000", "113802.542500", "113803.330000", "113804.120000", "113804.907500", "113805.695000", "113806.485000", "113807.272500", "113808.060000", "113808.847500", "113809.637500", "113810.425000", "113811.212500", "113812.000000", "113812.790000", "113813.577500", "113814.365000", "113815.152500", "113815.942500", "113816.730000", "113817.517500", "113818.305000", "113819.095000", "113819.882500", "113820.670000", "113821.457500", "113822.247500", "113823.035000", "113823.822500", "113824.612500", "113825.400000", "113826.187500", "113826.975000", "113827.765000", "113828.552500", "113829.340000", "113830.127500", "113830.917500", "113831.705000", "113832.492500", "113833.280000", "113834.070000", "113834.857500", "113835.645000", "113836.432500", "113837.222500", "113838.010000", "113838.797500", "113839.585000", "113840.375000", "113841.162500", "113841.950000", "113842.740000", "113843.527500", "113844.315000", "113845.102500", "113845.892500", "113846.680000", "113847.467500", "113848.255000", "113849.045000", "113849.832500", "113850.620000", "113851.407500", "113852.197500", "113852.985000", "113853.772500", "113854.560000", "113855.350000", "113856.137500", "113856.925000", "113857.712500", "113858.502500", "113859.290000", "113900.077500", "113900.867500", "113901.655000", "113902.442500", "113903.230000", "113904.020000", "113904.807500", "113905.595000", "113906.382500", "113907.172500", "113907.960000", "113908.747500", "113909.535000", "113910.325000", "113911.112500", "113911.900000", "113912.687500", "113913.477500", "113914.265000", "113915.052500", "113915.840000", "113916.630000", "113917.417500", "113918.205000", "113918.995000", "113919.782500", "113920.570000", "113921.357500", "113922.147500", "113922.935000", "113923.722500", "113924.510000", "113925.300000", "113926.087500", "113926.875000", "113927.662500", "113928.452500", "113929.240000", "113930.027500", "113930.815000", "113931.605000", "113932.392500", "113933.180000", "113933.967500", "113934.757500", "113935.545000", "113936.332500", "113937.122500", "113937.910000", "113938.697500", "113939.485000", "113940.275000", "113941.062500", "113941.850000", "113942.637500", "113943.427500", "113944.215000", "113945.002500", "113945.790000", "113946.580000", "113947.367500", "113948.155000", "113948.942500", "113949.732500", "113950.520000", "113951.307500", "113952.095000", "113952.885000", "113953.672500", "113954.460000", "113955.250000", "113956.037500", "113956.825000", "113957.612500", "113958.402500", "113959.190000", "113959.977500", "114000.765000", "114001.555000", "114002.342500", "114003.130000", "114003.917500", "114004.707500", "114005.495000", "114006.282500", "114007.070000", "114007.860000", "114008.647500", "114009.435000", "114010.222500", "114011.012500", "114011.800000", "114012.587500", "114013.377500", "114014.165000", "114014.952500", "114015.740000", "114016.530000", "114017.317500", "114018.105000", "114018.892500", "114019.682500", "114020.470000", "114021.257500", "114022.045000", "114022.835000", "114023.622500", "114024.410000", "114025.197500", "114025.987500", "114026.775000", "114027.562500", "114028.350000", "114029.140000", "114029.927500", "114030.715000", "114031.505000", "114032.292500", "114033.080000", "114033.867500", "114034.657500", "114035.445000", "114036.232500", "114037.020000", "114037.810000", "114038.597500", "114039.385000", "114040.172500", "114040.962500", "114041.750000", "114042.537500", "114043.325000", "114044.115000", "114044.902500", "114045.690000", "114046.477500", "114047.267500", "114048.055000", "114048.842500", "114049.632500", "114050.420000", "114051.207500", "114051.995000", "114052.785000", "114053.572500", "114054.360000", "114055.147500", "114055.937500", "114056.725000", "114057.512500", "114058.300000", "114059.090000", "114059.877500", "114100.665000", "114101.452500", "114102.242500", "114103.030000", "114103.817500", "114104.605000", "114105.395000", "114106.182500", "114106.970000", "114107.760000", "114108.547500", "114109.335000", "114110.122500", "114110.912500", "114111.700000", "114112.487500", "114113.275000", "114114.065000", "114114.852500", "114115.640000", "114116.427500", "114117.217500", "114118.005000", "114118.792500", "114119.580000", "114120.370000", "114121.157500", "114121.945000", "114122.735000", "114123.522500", "114124.310000", "114125.097500", "114125.887500", "114126.675000", "114127.462500", "114128.250000", "114129.040000", "114129.827500", "114130.615000", "114131.402500", "114132.192500", "114132.980000", "114133.767500", "114134.555000", "114135.345000", "114136.132500", "114136.920000", "114137.707500", "114138.497500", "114139.285000", "114140.072500", "114140.862500", "114141.650000", "114142.437500", "114143.225000", "114144.015000", "114144.802500", "114145.590000", "114146.377500", "114147.167500", "114147.955000", "114148.742500", "114149.530000", "114150.320000", "114151.107500", "114151.895000", "114152.682500", "114153.472500", "114154.260000", "114155.047500", "114155.835000", "114156.625000", "114157.412500", "114158.200000", "114158.990000", "114159.777500", "114200.565000", "114201.352500", "114202.142500", "114202.930000", "114203.717500", "114204.505000", "114205.295000", "114206.082500", "114206.870000", "114207.657500", "114208.447500", "114209.235000", "114210.022500", "114210.810000", "114211.600000", "114212.387500", "114213.175000", "114213.962500", "114214.752500", "114215.540000", "114216.327500", "114217.117500", "114217.905000", "114218.692500", "114219.480000", "114220.270000", "114221.057500", "114221.845000", "114222.632500", "114223.422500", "114224.210000", "114224.997500", "114225.785000", "114226.575000", "114227.362500", "114228.150000", "114228.937500", "114229.727500", "114230.515000", "114231.302500", "114232.090000", "114232.880000", "114233.667500", "114234.455000", "114235.245000", "114236.032500", "114236.820000", "114237.607500", "114238.397500", "114239.185000", "114239.972500", "114240.760000", "114241.550000", "114242.337500", "114243.125000", "114243.912500", "114244.702500", "114245.490000", "114246.277500", "114247.065000", "114247.855000"],
      "ContentTime": ["113534.515000", "113534.515000", "113534.515000", "113534.531000", "113534.531000", "113534.531000", "113534.531000", "113534.531000", "113534.531000", "113534.531000", "113534.531000", "113534.546000", "113534.546000", "113534.546000", "113534.546000", "113534.546000", "113534.546000", "113534.546000", "113534.546000", "113534.562000", "113534.562000", "113534.562000", "113534.562000", "113534.562000", "113534.562000", "113534.562000", "113534.578000", "113534.578000", "113554.484000", "113554.500000", "113554.500000", "113554.500000", "113554.500000", "113554.500000", "113554.500000", "113554.500000", "113554.515000", "113554.515000", "113554.515000", "113554.515000", "113554.515000", "113554.515000", "113554.515000", "113554.531000", "113554.531000", "113554.531000", "113554.531000", "113554.531000", "113554.531000", "113554.531000", "113554.531000", "113554.546000", "113554.546000", "113614.484000", "113614.500000", "113614.500000", "113614.500000", "113614.500000", "113614.500000", "113614.500000", "113614.500000", "113614.515000", "113614.515000", "113614.515000", "113614.515000", "113614.515000", "113614.515000", "113614.515000", "113614.515000", "113614.531000", "113614.531000", "113614.531000", "113614.531000", "113614.531000", "113614.531000", "113614.531000", "113614.546000", "113614.546000", "113614.546000", "113634.484000", "113634.500000", "113634.500000", "113634.500000", "113634.500000", "113634.500000", "113634.500000", "113634.500000", "113634.515000", "113634.515000", "113634.515000", "113634.515000", "113634.515000", "113634.515000", "113634.515000", "113634.515000", "113634.531000", "113634.531000", "113634.531000", "113634.531000", "113634.531000", "113634.531000", "113634.531000", "113634.531000", "113634.546000", "113654.484000", "113654.500000", "113654.500000", "113654.500000", "113654.500000", "113654.500000", "113654.500000", "113654.500000", "113654.515000", "113654.515000", "113654.515000", "113654.515000", "113654.515000", "113654.515000", "113654.515000", "113654.515000", "113654.531000", "113654.531000", "113654.531000", "113654.531000", "113654.531000", "113654.531000", "113654.531000", "113654.546000", "113654.546000", "113714.484000", "113714.500000", "113714.500000", "113714.500000", "113714.500000", "113714.500000", "113714.500000", "113714.500000", "113714.515000", "113714.515000", "113714.515000", "113714.515000", "113714.515000", "113714.515000", "113714.515000", "113714.515000", "113714.531000", "113714.531000", "113714.531000", "113714.531000", "113714.531000", "113714.531000", "113714.546000", "113714.546000", "113714.546000", "113714.546000", "113734.484000", "113734.500000", "113734.500000", "113734.500000", "113734.500000", "113734.500000", "113734.500000", "113734.500000", "113734.515000", "113734.515000", "113734.515000", "113734.515000", "113734.515000", "113734.515000", "113734.531000", "113734.531000", "113734.531000", "113734.531000", "113734.531000", "113734.531000", "113734.531000", "113734.531000", "113734.546000", "113734.546000", "113734.546000", "113754.484000", "113754.500000", "113754.500000", "113754.500000", "113754.500000", "113754.500000", "113754.500000", "113754.500000", "113754.515000", "113754.515000", "113754.515000", "113754.515000", "113754.515000", "113754.515000", "113754.515000", "113754.515000", "113754.531000", "113754.531000", "113754.531000", "113754.531000", "113754.531000", "113754.531000", "113754.531000", "113754.531000", "113754.546000", "113754.546000", "113814.484000", "113814.500000", "113814.500000", "113814.500000", "113814.500000", "113814.500000", "113814.500000", "113814.500000", "113814.515000", "113814.515000", "113814.515000", "113814.515000", "113814.515000", "113814.515000", "113814.515000", "113814.515000", "113814.531000", "113814.531000", "113814.531000", "113814.531000", "113814.531000", "113814.531000", "113814.531000", "113814.546000", "113814.546000", "113834.484000", "113834.500000", "113834.500000", "113834.500000", "113834.500000", "113834.500000", "113834.500000", "113834.500000", "113834.515000", "113834.515000", "113834.515000", "113834.515000", "113834.515000", "113834.515000", "113834.531000", "113834.531000", "113834.531000", "113834.531000", "113834.531000", "113834.531000", "113834.531000", "113834.531000", "113834.546000", "113834.546000", "113834.546000", "113834.546000", "113854.484000", "113854.500000", "113854.500000", "113854.500000", "113854.500000", "113854.500000", "113854.500000", "113854.500000", "113854.515000", "113854.515000", "113854.515000", "113854.515000", "113854.515000", "113854.515000", "113854.515000", "113854.515000", "113854.531000", "113854.531000", "113854.531000", "113854.531000", "113854.531000", "113854.546000", "113854.546000", "113854.546000", "113854.546000", "113914.484000", "113914.500000", "113914.500000", "113914.500000", "113914.500000", "113914.500000", "113914.500000", "113914.500000", "113914.515000", "113914.515000", "113914.515000", "113914.531000", "113914.531000", "113914.531000", "113914.531000", "113914.546000", "113914.546000", "113914.546000", "113914.546000", "113914.546000", "113914.546000", "113914.546000", "113914.562000", "113914.562000", "113914.562000", "113914.562000", "113934.484000", "113934.500000", "113934.500000", "113934.500000", "113934.500000", "113934.500000", "113934.515000", "113934.515000", "113934.515000", "113934.515000", "113934.515000", "113934.515000", "113934.515000", "113934.531000", "113934.531000", "113934.531000", "113934.531000", "113934.531000", "113934.531000", "113934.531000", "113934.546000", "113934.546000", "113934.546000", "113934.546000", "113934.546000", "113954.484000", "113954.500000", "113954.500000", "113954.500000", "113954.500000", "113954.500000", "113954.500000", "113954.500000", "113954.515000", "113954.515000", "113954.515000", "113954.515000", "113954.515000", "113954.515000", "113954.515000", "113954.515000", "113954.531000", "113954.531000", "113954.531000", "113954.531000", "113954.531000", "113954.531000", "113954.531000", "113954.546000", "113954.546000", "113954.546000", "114014.484000", "114014.500000", "114014.500000", "114014.500000", "114014.500000", "114014.500000", "114014.500000", "114014.500000", "114014.515000", "114014.515000", "114014.515000", "114014.515000", "114014.515000", "114014.515000", "114014.531000", "114014.531000", "114014.531000", "114014.531000", "114014.531000", "114014.531000", "114014.531000", "114014.546000", "114014.546000", "114014.546000", "114014.546000", "114034.484000", "114034.500000", "114034.500000", "114034.500000", "114034.500000", "114034.500000", "114034.500000", "114034.500000", "114034.515000", "114034.515000", "114034.515000", "114034.515000", "114034.515000", "114034.515000", "114034.515000", "114034.515000", "114034.531000", "114034.531000", "114034.531000", "114034.531000", "114034.531000", "114034.531000", "114034.531000", "114034.546000", "114034.546000", "114034.546000", "114054.484000", "114054.500000", "114054.500000", "114054.500000", "114054.500000", "114054.500000", "114054.500000", "114054.500000", "114054.515000", "114054.515000", "114054.515000", "114054.515000", "114054.515000", "114054.515000", "114054.515000", "114054.515000", "114054.531000", "114054.531000", "114054.531000", "114054.531000", "114054.531000", "114054.531000", "114054.531000", "114054.531000", "114054.546000", "114114.484000", "114114.500000", "114114.500000", "114114.500000", "114114.500000", "114114.500000", "114114.500000", "114114.500000", "114114.515000", "114114.515000", "114114.515000", "114114.515000", "114114.515000", "114114.515000", "114114.515000", "114114.515000", "114114.531000", "114114.531000", "114114.531000", "114114.531000", "114114.531000", "114114.531000", "114114.531000", "114114.531000", "114114.546000", "114114.546000", "114134.484000", "114134.500000", "114134.500000", "114134.500000", "114134.500000", "114134.500000", "114134.500000", "114134.500000", "114134.515000", "114134.515000", "114134.515000", "114134.515000", "114134.515000", "114134.515000", "114134.515000", "114134.515000", "114134.531000", "114134.531000", "114134.531000", "114134.531000", "114134.531000", "114134.531000", "114134.531000", "114134.546000", "114134.546000", "114154.484000", "114154.500000", "114154.500000", "114154.500000", "114154.500000", "114154.500000", "114154.500000", "114154.500000", "114154.515000", "114154.515000", "114154.515000", "114154.515000", "114154.515000", "114154.515000", "114154.515000", "114154.531000", "114154.531000", "114154.531000", "114154.531000", "114154.531000", "114154.531000", "114154.531000", "114154.531000", "114154.546000", "114154.546000", "114154.546000", "114214.484000", "114214.500000", "114214.500000", "114214.500000", "114214.500000", "114214.500000", "114214.500000", "114214.500000", "114214.515000", "114214.515000", "114214.515000", "114214.515000", "114214.515000", "114214.515000", "114214.515000", "114214.531000", "114214.531000", "114214.531000", "114214.531000", "114214.531000", "114214.531000", "114214.531000", "114214.546000", "114214.546000", "114214.546000", "114234.484000", "114234.500000", "114234.500000", "114234.500000", "114234.500000", "114234.500000", "114234.515000", "114234.515000", "114234.515000", "114234.515000", "114234.515000", "114234.515000", "114234.515000", "114234.531000", "114234.531000", "114234.531000", "114234.531000", "114234.531000", "114234.546000", "114234.546000", "114234.546000", "114234.546000", "114234.546000", "114234.546000", "114234.546000", "114234.546000", "114248.656000", "114248.656000", "114248.656000", "114248.656000", "114248.656000", "114248.656000", "114248.656000", "114248.656000", "114248.671000", "114248.671000", "114248.671000", "114248.671000", "114248.671000", "114248.671000", "114248.671000", "114248.687000", "114248.687000", "114248.687000"],
