{
  "AcquisitionMatrixPE": 104,
  "AcquisitionNumber": 1,
  "AcquisitionTime": "11:11:17.152500",
  "BandwidthPerPixelPhaseEncode": 13.935,
  "BaseResolution": 104,
  "CoilString": "C:HEA;HEP",
  "ConversionSoftware": "dcm2niix",
  "ConversionSoftwareVersion": "v1.0.20210317",
  "DerivedVendorReportedEchoSpacing": 0.000690017,
  "DeviceSerialNumber": "35450",
  "DwellTime": 2.5e-06,
  "EchoTime": 0.0348,
  "EffectiveEchoSpacing": 0.000690017,
  "FlipAngle": 55,
  "ImageComments": "Unaliased MB8/PE3 (remote)",
  "ImageOrientationPatientDICOM": [0.999506, -0.000273972, 0.0314125, -5.40049e-08, 0.999962, 0.00872313],
  "ImageType": [
    "ORIGINAL",
    "PRIMARY",
    "M",
    "MB",
    "ND",
    "MOSAIC"
],
  "ImagingFrequency": 123.234,
  "InPlanePhaseEncodingDirectionDICOM": "COL",
  "InstitutionAddress": "Univeristy Ave. 197,Newark,North East,US,07102-1814",
  "InstitutionName": "RUBIC",
  "InstitutionalDepartmentName": "Department",
  "MRAcquisitionType": "2D",
  "MagneticFieldStrength": 3,
  "Manufacturer": "Siemens",
  "ManufacturersModelName": "TrioTim",
  "Modality": "MR",
  "MultibandAccelerationFactor": 8,
  "PartialFourier": 0.875,
  "PatientPosition": "HFS",
  "PercentPhaseFOV": 100,
  "PercentSampling": 100,
  "PhaseEncodingDirection": "j-",
  "PhaseEncodingSteps": 91,
  "PhaseResolution": 1,
  "PixelBandwidth": 1923,
  "ProcedureStepDescription": "Cole^Michael",
  "ProtocolName": "cmrr_mbep2d_bold_2mm_MB8_Task_8x",
  "PulseSequenceDetails": "%CustomerSeq%\\cmrr_mbep2d_bold",
  "ReceiveCoilName": "32Ch_Head",
  "ReconMatrixPE": 104,
  "RepetitionTime": 0.785,
  "SAR": 0.12621,
  "ScanOptions": "PFP\\FS",
  "ScanningSequence": "EP",
  "SequenceName": "epfid2d1_104",
  "SequenceVariant": "SK\\SS",
  "SeriesDescription": "cmrr_mbep2d_bold_2mm_MB8_Task_8x",
  "SeriesNumber": 13,
  "ShimSetting": [2128, -382, -7345, 628, -122, -139, 284, -48],
  "SliceThickness": 2,
  "SliceTiming": [0, 0.4375, 0.0875, 0.525, 0.175, 0.6125, 0.2625, 0.7, 0.35, 0, 0.4375, 0.0875, 0.525, 0.175, 0.6125, 0.2625, 0.7, 0.35, 0, 0.4375, 0.0875, 0.525, 0.175, 0.6125, 0.2625, 0.7, 0.35, 0, 0.4375, 0.0875, 0.525, 0.175, 0.6125, 0.2625, 0.7, 0.35, 0, 0.4375, 0.0875, 0.525, 0.175, 0.6125, 0.2625, 0.7, 0.35, 0, 0.4375, 0.0875, 0.525, 0.175, 0.6125, 0.2625, 0.7, 0.35, 0, 0.4375, 0.0875, 0.525, 0.175, 0.6125, 0.2625, 0.7, 0.35, 0, 0.4375, 0.0875, 0.525, 0.175, 0.6125, 0.2625, 0.7, 0.35],
  "SoftwareVersions": "syngo MR B19",
  "SpacingBetweenSlices": 2,
  "StationName": "MRC35450",
  "TaskName": "cpro",
  "TotalReadoutTime": 0.0710717,
  "TxRefAmp": 339.215,
  "dcmmeta_affine": [
    [-1.9990129470825195, -1.0800987126913242e-07, 0.062827467918396, 104.54114532470703],
    [0.0005479442188516259, 1.9999239444732666, 0.017437653616070747, -81.02214813232422],
    [0.06282507628202438, -0.017446260899305344, 1.9989367723464966, -102.02584075927734],
    [0.0, 0.0, 0.0, 1.0]
],
  "dcmmeta_reorient_transform": [
    [0.0, -1.0, 0.0, 103.0],
    [1.0, 0.0, 0.0, 0.0],
    [0.0, 0.0, 1.0, 0.0],
    [0.0, 0.0, 0.0, 1.0]
],
  "dcmmeta_shape": [104, 104, 72, 581],
  "dcmmeta_slice_dim": 2,
  "dcmmeta_version": 0.6,
  "global": {
    "const": {
      "AcquisitionMatrix": [104, 0, 0, 104],
      "AngioFlag": "N",
      "BitsAllocated": 16,
      "BitsStored": 12,
      "Columns": 936,
      "EchoNumbers": 1,
      "EchoTime": 34.8,
      "EchoTrainLength": 1,
      "FlipAngle": 55.0,
      "HighBit": 11,
      "ImageOrientationPatient": [0.99950646687007, -0.0002739721125, 0.03141253928265, -5.4004935e-08, 0.99996195277684, 0.00872313009954],
      "ImagePositionPatient": [-936.13046843851, -956.71041610359, -137.21568344115],
      "ImageType": [
        "ORIGINAL",
        "PRIMARY",
        "M",
        "MB",
        "ND",
        "MOSAIC"
],
      "ImagedNucleus": "1H",
      "ImagingFrequency": 123.234474,
      "InPlanePhaseEncodingDirection": "COL",
      "MRAcquisitionType": "2D",
      "MagneticFieldStrength": 3.0,
      "Manufacturer": "SIEMENS",
      "ManufacturerModelName": "TrioTim",
      "Modality": "MR",
      "NumberOfAverages": 1.0,
      "NumberOfPhaseEncodingSteps": 91,
      "PercentPhaseFieldOfView": 100.0,
      "PercentSampling": 100.0,
      "PerformedProcedureStepStartTime": "102510.640000",
      "PhotometricInterpretation": "MONOCHROME2",
      "PixelBandwidth": 1923.0,
      "PixelRepresentation": 0,
      "PixelSpacing": [2.0, 2.0],
      "ProtocolName": "cmrr_mbep2d_bold_2mm_MB8_Task_8x",
      "RepetitionTime": 785.0,
      "Rows": 936,
      "SAR": 0.12620958232942,
      "SamplesPerPixel": 1,
      "ScanOptions": [
        "PFP",
        "FS"
],
      "ScanningSequence": "EP",
      "SequenceName": "epfid2d1_104",
      "SequenceVariant": [
        "SK",
        "SS"
],
      "SeriesDescription": "cmrr_mbep2d_bold_2mm_MB8_Task_8x",
      "SeriesNumber": 13,
      "SeriesTime": "111134.515000",
      "SliceLocation": -99.393999048507,
      "SliceThickness": 2.0,
      "SmallestImagePixelValue": 0,
      "SoftwareVersions": "syngo MR B19",
      "SpacingBetweenSlices": 1.999999950847,
      "SpecificCharacterSet": "ISO_IR 100",
      "StudyID": "1",
      "StudyTime": "102510.531000",
      "TransmitCoilName": "Body",
      "VariableFlipAngleFlag": "N",
      "WindowCenterWidthExplanation": "Algo1",
      "dBdt": 0.0},
    "slices": {}
  },
  "time": {
    "samples": {
      "AcquisitionNumber": [1, 2, 3, 4, 5, 6, 7, 8, 9, 10, 11, 12, 13, 14, 15, 16, 17, 18, 19, 20, 21, 22, 23, 24, 25, 26, 27, 28, 29, 30, 31, 32, 33, 34, 35, 36, 37, 38, 39, 40, 41, 42, 43, 44, 45, 46, 47, 48, 49, 50, 51, 52, 53, 54, 55, 56, 57, 58, 59, 60, 61, 62, 63, 64, 65, 66, 67, 68, 69, 70, 71, 72, 73, 74, 75, 76, 77, 78, 79, 80, 81, 82, 83, 84, 85, 86, 87, 88, 89, 90, 91, 92, 93, 94, 95, 96, 97, 98, 99, 100, 101, 102, 103, 104, 105, 106, 107, 108, 109, 110, 111, 112, 113, 114, 115, 116, 117, 118, 119, 120, 121, 122, 123, 124, 125, 126, 127, 128, 129, 130, 131, 132, 133, 134, 135, 136, 137, 138, 139, 140, 141, 142, 143, 144, 145, 146, 147, 148, 149, 150, 151, 152, 153, 154, 155, 156, 157, 158, 159, 160, 161, 162, 163, 164, 165, 166, 167, 168, 169, 170, 171, 172, 173, 174, 175, 176, 177, 178, 179, 180, 181, 182, 183, 184, 185, 186, 187, 188, 189, 190, 191, 192, 193, 194, 195, 196, 197, 198, 199, 200, 201, 202, 203, 204, 205, 206, 207, 208, 209, 210, 211, 212, 213, 214, 215, 216, 217, 218, 219, 220, 221, 222, 223, 224, 225, 226, 227, 228, 229, 230, 231, 232, 233, 234, 235, 236, 237, 238, 239, 240, 241, 242, 243, 244, 245, 246, 247, 248, 249, 250, 251, 252, 253, 254, 255, 256, 257, 258, 259, 260, 261, 262, 263, 264, 265, 266, 267, 268, 269, 270, 271, 272, 273, 274, 275, 276, 277, 278, 279, 280, 281, 282, 283, 284, 285, 286, 287, 288, 289, 290, 291, 292, 293, 294, 295, 296, 297, 298, 299, 300, 301, 302, 303, 304, 305, 306, 307, 308, 309, 310, 311, 312, 313, 314, 315, 316, 317, 318, 319, 320, 321, 322, 323, 324, 325, 326, 327, 328, 329, 330, 331, 332, 333, 334, 335, 336, 337, 338, 339, 340, 341, 342, 343, 344, 345, 346, 347, 348, 349, 350, 351, 352, 353, 354, 355, 356, 357, 358, 359, 360, 361, 362, 363, 364, 365, 366, 367, 368, 369, 370, 371, 372, 373, 374, 375, 376, 377, 378, 379, 380, 381, 382, 383, 384, 385, 386, 387, 388, 389, 390, 391, 392, 393, 394, 395, 396, 397, 398, 399, 400, 401, 402, 403, 404, 405, 406, 407, 408, 409, 410, 411, 412, 413, 414, 415, 416, 417, 418, 419, 420, 421, 422, 423, 424, 425, 426, 427, 428, 429, 430, 431, 432, 433, 434, 435, 436, 437, 438, 439, 440, 441, 442, 443, 444, 445, 446, 447, 448, 449, 450, 451, 452, 453, 454, 455, 456, 457, 458, 459, 460, 461, 462, 463, 464, 465, 466, 467, 468, 469, 470, 471, 472, 473, 474, 475, 476, 477, 478, 479, 480, 481, 482, 483, 484, 485, 486, 487, 488, 489, 490, 491, 492, 493, 494, 495, 496, 497, 498, 499, 500, 501, 502, 503, 504, 505, 506, 507, 508, 509, 510, 511, 512, 513, 514, 515, 516, 517, 518, 519, 520, 521, 522, 523, 524, 525, 526, 527, 528, 529, 530, 531, 532, 533, 534, 535, 536, 537, 538, 539, 540, 541, 542, 543, 544, 545, 546, 547, 548, 549, 550, 551, 552, 553, 554, 555, 556, 557, 558, 559, 560, 561, 562, 563, 564, 565, 566, 567, 568, 569, 570, 571, 572, 573, 574, 575, 576, 577, 578, 579, 580, 581],
      "AcquisitionTime": ["111117.152500", "111117.942500", "111118.730000", "111119.517500", "111120.305000", "111121.095000", "111121.882500", "111122.670000", "111123.457500", "111124.247500", "111125.035000", "111125.822500", "111126.610000", "111127.400000", "111128.187500", "111128.975000", "111129.765000", "111130.552500", "111131.340000", "111132.127500", "111132.917500", "111133.705000", "111134.492500", "111135.280000", "111136.070000", "111136.857500", "111137.645000", "111138.432500", "111139.222500", "111140.010000", "111140.797500", "111141.585000", "111142.375000", "111143.162500", "111143.950000", "111144.737500", "111145.527500", "111146.315000", "111147.102500", "111147.892500", "111148.680000", "111149.467500", "111150.255000", "111151.045000", "111151.832500", "111152.620000", "111153.407500", "111154.197500", "111154.985000", "111155.772500", "111156.560000", "111157.350000", "111158.137500", "111158.925000", "111159.712500", "111200.502500", "111201.290000", "111202.077500", "111202.865000", "111203.655000", "111204.442500", "111205.230000", "111206.020000", "111206.807500", "111207.595000", "111208.382500", "111209.172500", "111209.960000", "111210.747500", "111211.535000", "111212.325000", "111213.112500", "111213.900000", "111214.687500", "111215.477500", "111216.265000", "111217.052500", "111217.840000", "111218.630000", "111219.417500", "111220.205000", "111220.992500", "111221.782500", "111222.570000", "111223.357500", "111224.147500", "111224.935000", "111225.722500", "111226.510000", "111227.300000", "111228.087500", "111228.875000", "111229.662500", "111230.452500", "111231.240000", "111232.027500", "111232.815000", "111233.605000", "111234.392500", "111235.180000", "111235.967500", "111236.757500", "111237.545000", "111238.332500", "111239.120000", "111239.910000", "111240.697500", "111241.485000", "111242.275000", "111243.062500", "111243.850000", "111244.637500", "111245.427500", "111246.215000", "111247.002500", "111247.790000", "111248.580000", "111249.367500", "111250.155000", "111250.942500", "111251.732500", "111252.520000", "111253.307500", "111254.095000", "111254.885000", "111255.672500", "111256.460000", "111257.247500", "111258.037500", "111258.825000", "111259.612500", "111300.402500", "111301.190000", "111301.977500", "111302.765000", "111303.555000", "111304.342500", "111305.130000", "111305.917500", "111306.707500", "111307.495000", "111308.282500", "111309.070000", "111309.860000", "111310.647500", "111311.435000", "111312.222500", "111313.012500", "111313.800000", "111314.587500", "111315.375000", "111316.165000", "111316.952500", "111317.740000", "111318.530000", "111319.317500", "111320.105000", "111320.892500", "111321.682500", "111322.470000", "111323.257500", "111324.045000", "111324.835000", "111325.622500", "111326.410000", "111327.197500", "111327.987500", "111328.775000", "111329.562500", "111330.350000", "111331.140000", "111331.927500", "111332.715000", "111333.502500", "111334.292500", "111335.080000", "111335.867500", "111336.657500", "111337.445000", "111338.232500", "111339.020000", "111339.810000", "111340.597500", "111341.385000", "111342.172500", "111342.962500", "111343.750000", "111344.537500", "111345.325000", "111346.115000", "111346.902500", "111347.690000", "111348.477500", "111349.267500", "111350.055000", "111350.842500", "111351.630000", "111352.420000", "111353.207500", "111353.995000", "111354.785000", "111355.572500", "111356.360000", "111357.147500", "111357.937500", "111358.725000", "111359.512500", "111400.300000", "111401.090000", "111401.877500", "111402.665000", "111403.452500", "111404.242500", "111405.030000", "111405.817500", "111406.605000", "111407.395000", "111408.182500", "111408.970000", "111409.757500", "111410.547500", "111411.335000", "111412.122500", "111412.912500", "111413.700000", "111414.487500", "111415.275000", "111416.065000", "111416.852500", "111417.640000", "111418.427500", "111419.217500", "111420.005000", "111420.792500", "111421.580000", "111422.370000", "111423.157500", "111423.945000", "111424.732500", "111425.522500", "111426.310000", "111427.097500", "111427.887500", "111428.675000", "111429.462500", "111430.250000", "111431.040000", "111431.827500", "111432.615000", "111433.402500", "111434.192500", "111434.980000", "111435.767500", "111436.555000", "111437.345000", "111438.132500", "111438.920000", "111439.707500", "111440.497500", "111441.285000", "111442.072500", "111442.860000", "111443.650000", "111444.437500", "111445.225000", "111446.015000", "111446.802500", "111447.590000", "111448.377500", "111449.167500", "111449.955000", "111450.742500", "111451.530000", "111452.320000", "111453.107500", "111453.895000", "111454.682500", "111455.472500", "111456.260000", "111457.047500", "111457.835000", "111458.625000", "111459.412500", "111500.200000", "111500.987500", "111501.777500", "111502.565000", "111503.352500", "111504.142500", "111504.930000", "111505.717500", "111506.505000", "111507.295000", "111508.082500", "111508.870000", "111509.657500", "111510.447500", "111511.235000", "111512.022500", "111512.810000", "111513.600000", "111514.387500", "111515.175000", "111515.962500", "111516.752500", "111517.540000", "111518.327500", "111519.115000", "111519.905000", "111520.692500", "111521.480000", "111522.270000", "111523.057500", "111523.845000", "111524.632500", "111525.422500", "111526.210000", "111526.997500", "111527.785000", "111528.575000", "111529.362500", "111530.150000", "111530.937500", "111531.727500", "111532.515000", "111533.302500", "111534.090000", "111534.880000", "111535.667500", "111536.455000", "111537.242500", "111538.032500", "111538.820000", "111539.607500", "111540.397500", "111541.185000", "111541.972500", "111542.760000", "111543.550000", "111544.337500", "111545.125000", "111545.912500", "111546.702500", "111547.490000", "111548.277500", "111549.065000", "111549.855000", "111550.642500", "111551.430000", "111552.217500", "111553.007500", "111553.795000", "111554.582500", "111555.370000", "111556.160000", "111556.947500", "111557.735000", "111558.525000", "111559.312500", "111600.100000", "111600.887500", "111601.677500", "111602.465000", "111603.252500", "111604.040000", "111604.830000", "111605.617500", "111606.405000", "111607.192500", "111607.982500", "111608.770000", "111609.557500", "111610.345000", "111611.135000", "111611.922500", "111612.710000", "111613.497500", "111614.287500", "111615.075000", "111615.862500", "111616.652500", "111617.440000", "111618.227500", "111619.015000", "111619.805000", "111620.592500", "111621.380000", "111622.167500", "111622.957500", "111623.745000", "111624.532500", "111625.320000", "111626.110000", "111626.897500", "111627.685000", "111628.472500", "111629.262500", "111630.050000", "111630.837500", "111631.625000", "111632.415000", "111633.202500", "111633.990000", "111634.780000", "111635.567500", "111636.355000", "111637.142500", "111637.932500", "111638.720000", "111639.507500", "111640.295000", "111641.085000", "111641.872500", "111642.660000", "111643.447500", "111644.237500", "111645.025000", "111645.812500", "111646.600000", "111647.390000", "111648.177500", "111648.965000", "111649.752500", "111650.542500", "111651.330000", "111652.117500", "111652.907500", "111653.695000", "111654.482500", "111655.270000", "111656.060000", "111656.847500", "111657.635000", "111658.422500", "111659.212500", "111700.000000", "111700.787500", "111701.575000", "111702.365000", "111703.152500", "111703.940000", "111704.727500", "111705.517500", "111706.305000", "111707.092500", "111707.880000", "111708.670000", "111709.457500", "111710.245000", "111711.035000", "111711.822500", "111712.610000", "111713.397500", "111714.187500", "111714.975000", "111715.762500", "111716.550000", "111717.340000", "111718.127500", "111718.915000", "111719.702500", "111720.492500", "111721.280000", "111722.067500", "111722.855000", "111723.645000", "111724.432500", "111725.220000", "111726.007500", "111726.797500", "111727.585000", "111728.372500", "111729.162500", "111729.950000", "111730.737500", "111731.525000", "111732.315000", "111733.102500", "111733.890000", "111734.677500", "111735.467500", "111736.255000", "111737.042500", "111737.830000", "111738.620000", "111739.407500", "111740.195000", "111740.982500", "111741.772500", "111742.560000", "111743.347500", "111744.137500", "111744.925000", "111745.712500", "111746.500000", "111747.290000", "111748.077500", "111748.865000", "111749.652500", "111750.442500", "111751.230000", "111752.017500", "111752.805000", "111753.595000", "111754.382500", "111755.170000", "111755.957500", "111756.747500", "111757.535000", "111758.322500", "111759.110000", "111759.900000", "111800.687500", "111801.475000", "111802.265000", "111803.052500", "111803.840000", "111804.627500", "111805.417500", "111806.205000", "111806.992500", "111807.780000", "111808.570000", "111809.357500", "111810.145000", "111810.932500", "111811.722500", "111812.510000", "111813.297500", "111814.085000", "111814.875000", "111815.662500", "111816.450000", "111817.237500", "111818.027500", "111818.815000", "111819.602500", "111820.392500", "111821.180000", "111821.967500", "111822.755000", "111823.545000", "111824.332500", "111825.120000", "111825.907500", "111826.697500", "111827.485000", "111828.272500", "111829.060000", "111829.850000", "111830.637500", "111831.425000", "111832.212500", "111833.002500", "111833.790000", "111834.577500", "111835.365000", "111836.155000", "111836.942500", "111837.730000", "111838.520000", "111839.307500", "111840.095000", "111840.882500", "111841.672500", "111842.460000", "111843.247500", "111844.035000", "111844.825000", "111845.612500", "111846.400000", "111847.187500", "111847.977500", "111848.765000", "111849.552500", "111850.340000", "111851.130000", "111851.917500", "111852.705000", "111853.492500", "111854.282500"],
      "ContentTime": ["111134.515000", "111134.515000", "111134.515000", "111134.515000", "111134.515000", "111134.531000", "111134.531000", "111134.531000", "111134.531000", "111134.531000", "111134.531000", "111134.531000", "111134.546000", "111134.546000", "111134.546000", "111134.546000", "111134.546000", "111134.546000", "111134.546000", "111134.546000", "111154.484000", "111154.500000", "111154.500000", "111154.500000", "111154.500000", "111154.500000", "111154.500000", "111154.500000", "111154.515000", "111154.515000", "111154.515000", "111154.515000", "111154.515000", "111154.515000", "111154.515000", "111154.515000", "111154.531000", "111154.531000", "111154.531000", "111154.531000", "111154.531000", "111154.546000", "111154.546000", "111154.546000", "111154.546000", "111154.546000", "111214.484000", "111214.500000", "111214.500000", "111214.500000", "111214.500000", "111214.500000", "111214.500000", "111214.500000", "111214.515000", "111214.515000", "111214.515000", "111214.515000", "111214.515000", "111214.515000", "111214.515000", "111214.531000", "111214.531000", "111214.531000", "111214.531000", "111214.531000", "111214.531000", "111214.531000", "111214.546000", "111214.546000", "111214.546000", "111234.484000", "111234.500000", "111234.500000", "111234.500000", "111234.500000", "111234.500000", "111234.500000", "111234.500000", "111234.515000", "111234.515000", "111234.515000", "111234.515000", "111234.515000", "111234.515000", "111234.515000", "111234.515000", "111234.531000", "111234.531000", "111234.531000", "111234.531000", "111234.531000", "111234.531000", "111234.531000", "111234.546000", "111234.546000", "111234.546000", "111254.484000", "111254.500000", "111254.500000", "111254.500000", "111254.500000", "111254.500000", "111254.500000", "111254.500000", "111254.515000", "111254.515000", "111254.515000", "111254.515000", "111254.515000", "111254.515000", "111254.515000", "111254.531000", "111254.531000", "111254.531000", "111254.531000", "111254.531000", "111254.531000", "111254.531000", "111254.531000", "111254.578000", "111254.578000", "111314.484000", "111314.500000", "111314.500000", "111314.500000", "111314.500000", "111314.500000", "111314.500000", "111314.500000", "111314.515000", "111314.515000", "111314.515000", "111314.515000", "111314.515000", "111314.515000", "111314.515000", "111314.531000", "111314.531000", "111314.531000", "111314.531000", "111314.531000", "111314.546000", "111314.546000", "111314.546000", "111314.546000", "111314.546000", "111314.546000", "111334.484000", "111334.500000", "111334.500000", "111334.500000", "111334.500000", "111334.500000", "111334.500000", "111334.500000", "111334.515000", "111334.515000", "111334.515000", "111334.515000", "111334.515000", "111334.515000", "111334.515000", "111334.531000", "111334.531000", "111334.531000", "111334.531000", "111334.531000", "111334.531000", "111334.531000", "111334.546000", "111334.546000", "111334.546000", "111354.484000", "111354.500000", "111354.500000", "111354.500000", "111354.500000", "111354.500000", "111354.500000", "111354.500000", "111354.515000", "111354.515000", "111354.515000", "111354.515000", "111354.515000", "111354.515000", "111354.515000", "111354.515000", "111354.531000", "111354.531000", "111354.531000", "111354.531000", "111354.531000", "111354.531000", "111354.531000", "111354.546000", "111354.546000", "111354.546000", "111414.484000", "111414.500000", "111414.500000", "111414.500000", "111414.500000", "111414.500000", "111414.500000", "111414.500000", "111414.515000", "111414.515000", "111414.515000", "111414.515000", "111414.515000", "111414.515000", "111414.515000", "111414.515000", "111414.531000", "111414.531000", "111414.531000", "111414.531000", "111414.531000", "111414.531000", "111414.531000", "111414.546000", "111414.546000", "111434.484000", "111434.500000", "111434.500000", "111434.500000", "111434.500000", "111434.500000", "111434.500000", "111434.500000", "111434.515000", "111434.515000", "111434.515000", "111434.515000", "111434.515000", "111434.515000", "111434.531000", "111434.531000", "111434.531000", "111434.531000", "111434.531000", "111434.531000", "111434.531000", "111434.546000", "111434.546000", "111434.546000", "111434.546000", "111454.484000", "111454.500000", "111454.500000", "111454.500000", "111454.500000", "111454.500000", "111454.500000", "111454.500000", "111454.515000", "111454.515000", "111454.515000", "111454.515000", "111454.515000", "111454.515000", "111454.515000", "111454.515000", "111454.531000", "111454.531000", "111454.531000", "111454.531000", "111454.531000", "111454.531000", "111454.546000", "111454.546000", "111454.546000", "111454.546000", "111514.484000", "111514.500000", "111514.500000", "111514.500000", "111514.500000", "111514.500000", "111514.500000", "111514.500000", "111514.515000", "111514.515000", "111514.515000", "111514.515000", "111514.531000", "111514.531000", "111514.531000", "111514.546000", "111514.546000", "111514.546000", "111514.546000", "111514.546000", "111514.546000", "111514.562000", "111514.562000", "111514.562000", "111514.562000", "111534.484000", "111534.500000", "111534.500000", "111534.500000", "111534.500000", "111534.500000", "111534.500000", "111534.500000", "111534.515000", "111534.515000", "111534.515000", "111534.515000", "111534.515000", "111534.515000", "111534.515000", "111534.531000", "111534.531000", "111534.531000", "111534.531000", "111534.531000", "111534.531000", "111534.531000", "111534.546000", "111534.546000", "111534.546000", "111534.546000", "111554.484000", "111554.500000", "111554.500000", "111554.500000", "111554.500000", "111554.500000", "111554.500000", "111554.500000", "111554.515000", "111554.515000", "111554.515000", "111554.515000", "111554.515000", "111554.515000", "111554.515000", "111554.531000", "111554.531000", "111554.531000", "111554.531000", "111554.531000", "111554.531000", "111554.531000", "111554.531000", "111554.546000", "111554.546000", "111614.484000", "111614.500000", "111614.500000", "111614.500000", "111614.500000", "111614.500000", "111614.500000", "111614.500000", "111614.515000", "111614.515000", "111614.515000", "111614.515000", "111614.515000", "111614.515000", "111614.515000", "111614.515000", "111614.531000", "111614.531000", "111614.531000", "111614.531000", "111614.531000", "111614.531000", "111614.531000", "111614.531000", "111614.546000", "111614.546000", "111634.484000", "111634.500000", "111634.500000", "111634.500000", "111634.500000", "111634.500000", "111634.515000", "111634.515000", "111634.515000", "111634.515000", "111634.515000", "111634.515000", "111634.531000", "111634.531000", "111634.531000", "111634.531000", "111634.531000", "111634.531000", "111634.531000", "111634.531000", "111634.546000", "111634.546000", "111634.546000", "111634.546000", "111634.546000", "111654.484000", "111654.500000", "111654.500000", "111654.500000", "111654.500000", "111654.500000", "111654.500000", "111654.515000", "111654.515000", "111654.515000", "111654.515000", "111654.515000", "111654.515000", "111654.515000", "111654.515000", "111654.531000", "111654.531000", "111654.531000", "111654.531000", "111654.531000", "111654.546000", "111654.546000", "111654.546000", "111654.546000", "111654.546000", "111654.546000", "111714.484000", "111714.500000", "111714.500000", "111714.500000", "111714.500000", "111714.500000", "111714.500000", "111714.500000", "111714.515000", "111714.515000", "111714.515000", "111714.515000", "111714.515000", "111714.515000", "111714.515000", "111714.531000", "111714.531000", "111714.531000", "111714.531000", "111714.531000", "111714.531000", "111714.531000", "111714.531000", "111714.546000", "111714.546000", "111734.484000", "111734.500000", "111734.500000", "111734.500000", "111734.500000", "111734.500000", "111734.500000", "111734.500000", "111734.515000", "111734.515000", "111734.515000", "111734.515000", "111734.515000", "111734.515000", "111734.515000", "111734.515000", "111734.531000", "111734.531000", "111734.531000", "111734.531000", "111734.531000", "111734.546000", "111734.546000", "111734.546000", "111734.546000", "111734.546000", "111754.484000", "111754.500000", "111754.500000", "111754.500000", "111754.500000", "111754.500000", "111754.500000", "111754.500000", "111754.515000", "111754.515000", "111754.515000", "111754.515000", "111754.515000", "111754.515000", "111754.515000", "111754.531000", "111754.531000", "111754.531000", "111754.531000", "111754.531000", "111754.531000", "111754.531000", "111754.531000", "111754.546000", "111754.546000", "111814.484000", "111814.500000", "111814.500000", "111814.500000", "111814.500000", "111814.500000", "111814.500000", "111814.500000", "111814.515000", "111814.515000", "111814.515000", "111814.515000", "111814.515000", "111814.515000", "111814.515000", "111814.515000", "111814.531000", "111814.531000", "111814.531000", "111814.531000", "111814.531000", "111814.531000", "111814.531000", "111814.546000", "111814.546000", "111814.546000", "111834.484000", "111834.500000", "111834.500000", "111834.500000", "111834.500000", "111834.500000", "111834.500000", "111834.500000", "111834.515000", "111834.515000", "111834.515000", "111834.515000", "111834.515000", "111834.515000", "111834.515000", "111834.515000", "111834.531000", "111834.531000", "111834.531000", "111834.531000", "111834.531000", "111834.531000", "111834.531000", "111834.546000", "111834.546000", "111854.406000", "111854.421000", "111854.421000", "111854.421000", "111854.421000", "111854.421000", "111854.421000", "111854.421000", "111854.437000", "111854.437000", "111854.437000", "111854.437000", "111854.437000", "111854.437000", "111854.453000", "111854.453000", "111854.453000", "111854.453000", "111854.453000", "111854.453000", "111854.453000", "111854.468000", "111854.468000", "111854.468000", "111854.468000", "111854.468000"],
