{
  "AcquisitionMatrixPE": 104,
  "AcquisitionNumber": 1,
  "AcquisitionTime": "11:35:15.702500",
  "BandwidthPerPixelPhaseEncode": 13.935,
  "BaseResolution": 104,
  "CoilString": "C:HEA;HEP",
  "ConversionSoftware": "dcm2niix",
  "ConversionSoftwareVersion": "v1.0.20210317",
  "DerivedVendorReportedEchoSpacing": 0.000690017,
  "DeviceSerialNumber": "35450",
  "DwellTime": 2.5e-06,
  "EchoTime": 0.0348,
  "EffectiveEchoSpacing": 0.000690017,
  "FlipAngle": 55,
  "ImageComments": "Unaliased MB8/PE3 (remote)",
  "ImageOrientationPatientDICOM": [0.999962, -0.000563132, -0.00870835, -1.16843e-08, 0.997916, -0.0645323],
  "ImageType": [
    "ORIGINAL",
    "PRIMARY",
    "M",
    "MB",
    "ND",
    "MOSAIC"
],
  "ImagingFrequency": 123.235,
  "InPlanePhaseEncodingDirectionDICOM": "COL",
  "InstitutionAddress": "Univeristy Ave. 197,Newark,North East,US,07102-1814",
  "InstitutionName": "RUBIC",
  "InstitutionalDepartmentName": "Department",
  "MRAcquisitionType": "2D",
  "MagneticFieldStrength": 3,
  "Manufacturer": "Siemens",
  "ManufacturersModelName": "TrioTim",
  "Modality": "MR",
  "MultibandAccelerationFactor": 8,
  "PartialFourier": 0.875,
  "PatientPosition": "HFS",
  "PercentPhaseFOV": 100,
  "PercentSampling": 100,
  "PhaseEncodingDirection": "j-",
  "PhaseEncodingSteps": 91,
  "PhaseResolution": 1,
  "PixelBandwidth": 1923,
  "ProcedureStepDescription": "Cole^Michael",
  "ProtocolName": "cmrr_mbep2d_bold_2mm_MB8_Task_8x",
  "PulseSequenceDetails": "%CustomerSeq%\\cmrr_mbep2d_bold",
  "ReceiveCoilName": "32Ch_Head",
  "ReconMatrixPE": 104,
  "RepetitionTime": 0.785,
  "SAR": 0.119698,
  "ScanOptions": "PFP\\FS",
  "ScanningSequence": "EP",
  "SequenceName": "epfid2d1_104",
  "SequenceVariant": "SK\\SS",
  "SeriesDescription": "cmrr_mbep2d_bold_2mm_MB8_Task_8x",
  "SeriesNumber": 15,
  "ShimSetting": [2106, -393, -7307, 618, -28, -7, 14, 84],
  "SliceThickness": 2,
  "SliceTiming": [0, 0.4375, 0.0875, 0.525, 0.175, 0.6125, 0.2625, 0.7, 0.35, 0, 0.4375, 0.0875, 0.525, 0.175, 0.6125, 0.2625, 0.7, 0.35, 0, 0.4375, 0.0875, 0.525, 0.175, 0.6125, 0.2625, 0.7, 0.35, 0, 0.4375, 0.0875, 0.525, 0.175, 0.6125, 0.2625, 0.7, 0.35, 0, 0.4375, 0.0875, 0.525, 0.175, 0.6125, 0.2625, 0.7, 0.35, 0, 0.4375, 0.0875, 0.525, 0.175, 0.6125, 0.2625, 0.7, 0.35, 0, 0.4375, 0.0875, 0.525, 0.175, 0.6125, 0.2625, 0.7, 0.35, 0, 0.4375, 0.0875, 0.525, 0.175, 0.6125, 0.2625, 0.7, 0.35],
  "SoftwareVersions": "syngo MR B19",
  "SpacingBetweenSlices": 2,
  "StationName": "MRC35450",
  "TaskName": "cpro",
  "TotalReadoutTime": 0.0710717,
  "TxRefAmp": 346.353,
  "dcmmeta_affine": [
    [-1.999923825263977, -2.3368540880142064e-08, -0.017453067004680634, 104.6156234741211],
    [0.0011262634070590138, 1.9958312511444092, -0.12905970215797424, -79.98506164550781],
    [-0.017416691407561302, 0.1290646195411682, 1.9957551956176758, -104.05133819580078],
    [0.0, 0.0, 0.0, 1.0]
],
  "dcmmeta_reorient_transform": [
    [0.0, -1.0, 0.0, 103.0],
    [1.0, 0.0, 0.0, 0.0],
    [0.0, 0.0, 1.0, 0.0],
    [0.0, 0.0, 0.0, 1.0]
],
  "dcmmeta_shape": [104, 104, 72, 581],
  "dcmmeta_slice_dim": 2,
  "dcmmeta_version": 0.6,
  "global": {
    "const": {
      "AcquisitionMatrix": [104, 0, 0, 104],
      "AngioFlag": "N",
      "BitsAllocated": 16,
      "BitsStored": 12,
      "Columns": 936,
      "EchoNumbers": 1,
      "EchoTime": 34.8,
      "EchoTrainLength": 1,
      "FlipAngle": 55.0,
      "HighBit": 11,
      "ImageOrientationPatient": [0.99996192307697, -0.0005631317143, -0.0087083453584, -1.168427e-08, 0.99791561834852, -0.0645323070724],
      "ImagePositionPatient": [-936.58393308752, -955.38282646114, -29.821459407812],
      "ImageType": [
        "ORIGINAL",
        "PRIMARY",
        "M",
        "MB",
        "ND",
        "MOSAIC"
],
      "ImagedNucleus": "1H",
      "ImagingFrequency": 123.234513,
      "InPlanePhaseEncodingDirection": "COL",
      "MRAcquisitionType": "2D",
      "MagneticFieldStrength": 3.0,
      "Manufacturer": "SIEMENS",
      "ManufacturerModelName": "TrioTim",
      "Modality": "MR",
      "NumberOfAverages": 1.0,
      "NumberOfPhaseEncodingSteps": 91,
      "PercentPhaseFieldOfView": 100.0,
      "PercentSampling": 100.0,
      "PerformedProcedureStepStartTime": "102451.109000",
      "PhotometricInterpretation": "MONOCHROME2",
      "PixelBandwidth": 1923.0,
      "PixelRepresentation": 0,
      "PixelSpacing": [2.0, 2.0],
      "ProtocolName": "cmrr_mbep2d_bold_2mm_MB8_Task_8x",
      "RepetitionTime": 785.0,
      "Rows": 936,
      "SAR": 0.11969770658937,
      "SamplesPerPixel": 1,
      "ScanOptions": [
        "PFP",
        "FS"
],
      "ScanningSequence": "EP",
      "SequenceName": "epfid2d1_104",
      "SequenceVariant": [
        "SK",
        "SS"
],
      "SeriesDescription": "cmrr_mbep2d_bold_2mm_MB8_Task_8x",
      "SeriesNumber": 15,
      "SeriesTime": "113537.890000",
      "SliceLocation": -99.582008995307,
      "SliceThickness": 2.0,
      "SmallestImagePixelValue": 0,
      "SoftwareVersions": "syngo MR B19",
      "SpacingBetweenSlices": 1.9999999674173,
      "SpecificCharacterSet": "ISO_IR 100",
      "StudyID": "1",
      "StudyTime": "102451.062000",
      "TransmitCoilName": "Body",
      "VariableFlipAngleFlag": "N",
      "WindowCenterWidthExplanation": "Algo1",
      "dBdt": 0.0},
    "slices": {}
  },
  "time": {
    "samples": {
      "AcquisitionNumber": [1, 2, 3, 4, 5, 6, 7, 8, 9, 10, 11, 12, 13, 14, 15, 16, 17, 18, 19, 20, 21, 22, 23, 24, 25, 26, 27, 28, 29, 30, 31, 32, 33, 34, 35, 36, 37, 38, 39, 40, 41, 42, 43, 44, 45, 46, 47, 48, 49, 50, 51, 52, 53, 54, 55, 56, 57, 58, 59, 60, 61, 62, 63, 64, 65, 66, 67, 68, 69, 70, 71, 72, 73, 74, 75, 76, 77, 78, 79, 80, 81, 82, 83, 84, 85, 86, 87, 88, 89, 90, 91, 92, 93, 94, 95, 96, 97, 98, 99, 100, 101, 102, 103, 104, 105, 106, 107, 108, 109, 110, 111, 112, 113, 114, 115, 116, 117, 118, 119, 120, 121, 122, 123, 124, 125, 126, 127, 128, 129, 130, 131, 132, 133, 134, 135, 136, 137, 138, 139, 140, 141, 142, 143, 144, 145, 146, 147, 148, 149, 150, 151, 152, 153, 154, 155, 156, 157, 158, 159, 160, 161, 162, 163, 164, 165, 166, 167, 168, 169, 170, 171, 172, 173, 174, 175, 176, 177, 178, 179, 180, 181, 182, 183, 184, 185, 186, 187, 188, 189, 190, 191, 192, 193, 194, 195, 196, 197, 198, 199, 200, 201, 202, 203, 204, 205, 206, 207, 208, 209, 210, 211, 212, 213, 214, 215, 216, 217, 218, 219, 220, 221, 222, 223, 224, 225, 226, 227, 228, 229, 230, 231, 232, 233, 234, 235, 236, 237, 238, 239, 240, 241, 242, 243, 244, 245, 246, 247, 248, 249, 250, 251, 252, 253, 254, 255, 256, 257, 258, 259, 260, 261, 262, 263, 264, 265, 266, 267, 268, 269, 270, 271, 272, 273, 274, 275, 276, 277, 278, 279, 280, 281, 282, 283, 284, 285, 286, 287, 288, 289, 290, 291, 292, 293, 294, 295, 296, 297, 298, 299, 300, 301, 302, 303, 304, 305, 306, 307, 308, 309, 310, 311, 312, 313, 314, 315, 316, 317, 318, 319, 320, 321, 322, 323, 324, 325, 326, 327, 328, 329, 330, 331, 332, 333, 334, 335, 336, 337, 338, 339, 340, 341, 342, 343, 344, 345, 346, 347, 348, 349, 350, 351, 352, 353, 354, 355, 356, 357, 358, 359, 360, 361, 362, 363, 364, 365, 366, 367, 368, 369, 370, 371, 372, 373, 374, 375, 376, 377, 378, 379, 380, 381, 382, 383, 384, 385, 386, 387, 388, 389, 390, 391, 392, 393, 394, 395, 396, 397, 398, 399, 400, 401, 402, 403, 404, 405, 406, 407, 408, 409, 410, 411, 412, 413, 414, 415, 416, 417, 418, 419, 420, 421, 422, 423, 424, 425, 426, 427, 428, 429, 430, 431, 432, 433, 434, 435, 436, 437, 438, 439, 440, 441, 442, 443, 444, 445, 446, 447, 448, 449, 450, 451, 452, 453, 454, 455, 456, 457, 458, 459, 460, 461, 462, 463, 464, 465, 466, 467, 468, 469, 470, 471, 472, 473, 474, 475, 476, 477, 478, 479, 480, 481, 482, 483, 484, 485, 486, 487, 488, 489, 490, 491, 492, 493, 494, 495, 496, 497, 498, 499, 500, 501, 502, 503, 504, 505, 506, 507, 508, 509, 510, 511, 512, 513, 514, 515, 516, 517, 518, 519, 520, 521, 522, 523, 524, 525, 526, 527, 528, 529, 530, 531, 532, 533, 534, 535, 536, 537, 538, 539, 540, 541, 542, 543, 544, 545, 546, 547, 548, 549, 550, 551, 552, 553, 554, 555, 556, 557, 558, 559, 560, 561, 562, 563, 564, 565, 566, 567, 568, 569, 570, 571, 572, 573, 574, 575, 576, 577, 578, 579, 580, 581],
      "AcquisitionTime": ["113515.702500", "113516.492500", "113517.280000", "113518.067500", "113518.855000", "113519.645000", "113520.432500", "113521.220000", "113522.007500", "113522.797500", "113523.585000", "113524.372500", "113525.160000", "113525.950000", "113526.737500", "113527.525000", "113528.312500", "113529.102500", "113529.890000", "113530.677500", "113531.467500", "113532.255000", "113533.042500", "113533.830000", "113534.620000", "113535.407500", "113536.195000", "113536.982500", "113537.772500", "113538.560000", "113539.347500", "113540.135000", "113540.925000", "113541.712500", "113542.500000", "113543.287500", "113544.077500", "113544.865000", "113545.652500", "113546.440000", "113547.230000", "113548.017500", "113548.805000", "113549.595000", "113550.382500", "113551.170000", "113551.957500", "113552.747500", "113553.535000", "113554.322500", "113555.110000", "113555.900000", "113556.687500", "113557.475000", "113558.262500", "113559.052500", "113559.840000", "113600.627500", "113601.415000", "113602.205000", "113602.992500", "113603.780000", "113604.567500", "113605.357500", "113606.145000", "113606.932500", "113607.722500", "113608.510000", "113609.297500", "113610.085000", "113610.875000", "113611.662500", "113612.450000", "113613.237500", "113614.027500", "113614.815000", "113615.602500", "113616.390000", "113617.180000", "113617.967500", "113618.755000", "113619.542500", "113620.332500", "113621.120000", "113621.907500", "113622.697500", "113623.485000", "113624.272500", "113625.060000", "113625.850000", "113626.637500", "113627.425000", "113628.212500", "113629.002500", "113629.790000", "113630.577500", "113631.365000", "113632.155000", "113632.942500", "113633.730000", "113634.517500", "113635.307500", "113636.095000", "113636.882500", "113637.670000", "113638.460000", "113639.247500", "113640.035000", "113640.825000", "113641.612500", "113642.400000", "113643.187500", "113643.977500", "113644.765000", "113645.552500", "113646.340000", "113647.130000", "113647.917500", "113648.705000", "113649.492500", "113650.282500", "113651.070000", "113651.857500", "113652.645000", "113653.435000", "113654.222500", "113655.010000", "113655.797500", "113656.587500", "113657.375000", "113658.162500", "113658.952500", "113659.740000", "113700.527500", "113701.315000", "113702.105000", "113702.892500", "113703.680000", "113704.467500", "113705.257500", "113706.045000", "113706.832500", "113707.620000", "113708.410000", "113709.197500", "113709.985000", "113710.772500", "113711.562500", "113712.350000", "113713.137500", "113713.925000", "113714.715000", "113715.502500", "113716.290000", "113717.080000", "113717.867500", "113718.655000", "113719.442500", "113720.232500", "113721.020000", "113721.807500", "113722.595000", "113723.385000", "113724.172500", "113724.960000", "113725.747500", "113726.537500", "113727.325000", "113728.112500", "113728.900000", "113729.690000", "113730.477500", "113731.265000", "113732.052500", "113732.842500", "113733.630000", "113734.417500", "113735.207500", "113735.995000", "113736.782500", "113737.570000", "113738.360000", "113739.147500", "113739.935000", "113740.722500", "113741.512500", "113742.300000", "113743.087500", "113743.875000", "113744.665000", "113745.452500", "113746.240000", "113747.027500", "113747.817500", "113748.605000", "113749.392500", "113750.180000", "113750.970000", "113751.757500", "113752.545000", "113753.335000", "113754.122500", "113754.910000", "113755.697500", "113756.487500", "113757.275000", "113758.062500", "113758.850000", "113759.640000", "113800.427500", "113801.215000", "113802.002500", "113802.792500", "113803.580000", "113804.367500", "113805.155000", "113805.945000", "113806.732500", "113807.520000", "113808.307500", "113809.097500", "113809.885000", "113810.672500", "113811.462500", "113812.250000", "113813.037500", "113813.825000", "113814.615000", "113815.402500", "113816.190000", "113816.977500", "113817.767500", "113818.555000", "113819.342500", "113820.130000", "113820.920000", "113821.707500", "113822.495000", "113823.282500", "113824.072500", "113824.860000", "113825.647500", "113826.435000", "113827.225000", "113828.012500", "113828.800000", "113829.590000", "113830.377500", "113831.165000", "113831.952500", "113832.742500", "113833.530000", "113834.317500", "113835.105000", "113835.895000", "113836.682500", "113837.470000", "113838.257500", "113839.047500", "113839.835000", "113840.622500", "113841.410000", "113842.200000", "113842.987500", "113843.775000", "113844.562500", "113845.352500", "113846.140000", "113846.927500", "113847.717500", "113848.505000", "113849.292500", "113850.080000", "113850.870000", "113851.657500", "113852.445000", "113853.232500", "113854.022500", "113854.810000", "113855.597500", "113856.385000", "113857.175000", "113857.962500", "113858.750000", "113859.537500", "113900.327500", "113901.115000", "113901.902500", "113902.690000", "113903.480000", "113904.267500", "113905.055000", "113905.845000", "113906.632500", "113907.420000", "113908.207500", "113908.997500", "113909.785000", "113910.572500", "113911.360000", "113912.150000", "113912.937500", "113913.725000", "113914.512500", "113915.302500", "113916.090000", "113916.877500", "113917.665000", "113918.455000", "113919.242500", "113920.030000", "113920.817500", "113921.607500", "113922.395000", "113923.182500", "113923.972500", "113924.760000", "113925.547500", "113926.335000", "113927.125000", "113927.912500", "113928.700000", "113929.487500", "113930.277500", "113931.065000", "113931.852500", "113932.640000", "113933.430000", "113934.217500", "113935.005000", "113935.792500", "113936.582500", "113937.370000", "113938.157500", "113938.947500", "113939.735000", "113940.522500", "113941.310000", "113942.100000", "113942.887500", "113943.675000", "113944.462500", "113945.252500", "113946.040000", "113946.827500", "113947.615000", "113948.405000", "113949.192500", "113949.980000", "113950.767500", "113951.557500", "113952.345000", "113953.132500", "113953.920000", "113954.710000", "113955.497500", "113956.285000", "113957.075000", "113957.862500", "113958.650000", "113959.437500", "114000.227500", "114001.015000", "114001.802500", "114002.590000", "114003.380000", "114004.167500", "114004.955000", "114005.742500", "114006.532500", "114007.320000", "114008.107500", "114008.895000", "114009.685000", "114010.472500", "114011.260000", "114012.047500", "114012.837500", "114013.625000", "114014.412500", "114015.202500", "114015.990000", "114016.777500", "114017.565000", "114018.355000", "114019.142500", "114019.930000", "114020.717500", "114021.507500", "114022.295000", "114023.082500", "114023.870000", "114024.660000", "114025.447500", "114026.235000", "114027.022500", "114027.812500", "114028.600000", "114029.387500", "114030.175000", "114030.965000", "114031.752500", "114032.540000", "114033.330000", "114034.117500", "114034.905000", "114035.692500", "114036.482500", "114037.270000", "114038.057500", "114038.845000", "114039.635000", "114040.422500", "114041.210000", "114041.997500", "114042.787500", "114043.575000", "114044.362500", "114045.150000", "114045.940000", "114046.727500", "114047.515000", "114048.302500", "114049.092500", "114049.880000", "114050.667500", "114051.457500", "114052.245000", "114053.032500", "114053.820000", "114054.610000", "114055.397500", "114056.185000", "114056.972500", "114057.762500", "114058.550000", "114059.337500", "114100.125000", "114100.915000", "114101.702500", "114102.490000", "114103.277500", "114104.067500", "114104.855000", "114105.642500", "114106.430000", "114107.220000", "114108.007500", "114108.795000", "114109.585000", "114110.372500", "114111.160000", "114111.947500", "114112.737500", "114113.525000", "114114.312500", "114115.100000", "114115.890000", "114116.677500", "114117.465000", "114118.252500", "114119.042500", "114119.830000", "114120.617500", "114121.405000", "114122.195000", "114122.982500", "114123.770000", "114124.557500", "114125.347500", "114126.135000", "114126.922500", "114127.712500", "114128.500000", "114129.287500", "114130.075000", "114130.865000", "114131.652500", "114132.440000", "114133.227500", "114134.017500", "114134.805000", "114135.592500", "114136.380000", "114137.170000", "114137.957500", "114138.745000", "114139.532500", "114140.322500", "114141.110000", "114141.897500", "114142.685000", "114143.475000", "114144.262500", "114145.050000", "114145.840000", "114146.627500", "114147.415000", "114148.202500", "114148.992500", "114149.780000", "114150.567500", "114151.355000", "114152.145000", "114152.932500", "114153.720000", "114154.507500", "114155.297500", "114156.085000", "114156.872500", "114157.660000", "114158.450000", "114159.237500", "114200.025000", "114200.812500", "114201.602500", "114202.390000", "114203.177500", "114203.967500", "114204.755000", "114205.542500", "114206.330000", "114207.120000", "114207.907500", "114208.695000", "114209.482500", "114210.272500", "114211.060000", "114211.847500", "114212.635000", "114213.425000", "114214.212500", "114215.000000", "114215.787500", "114216.577500", "114217.365000", "114218.152500", "114218.940000", "114219.730000", "114220.517500", "114221.305000", "114222.095000", "114222.882500", "114223.670000", "114224.457500", "114225.247500", "114226.035000", "114226.822500", "114227.610000", "114228.400000", "114229.187500", "114229.975000", "114230.762500", "114231.552500", "114232.340000", "114233.127500", "114233.915000", "114234.705000", "114235.492500", "114236.280000", "114237.067500", "114237.857500", "114238.645000", "114239.432500", "114240.222500", "114241.010000", "114241.797500", "114242.585000", "114243.375000", "114244.162500", "114244.950000", "114245.737500", "114246.527500", "114247.315000", "114248.102500", "114248.890000", "114249.680000", "114250.467500", "114251.255000", "114252.042500", "114252.832500"],
      "ContentTime": ["113537.890000", "113537.890000", "113537.890000", "113537.890000", "113537.890000", "113537.906000", "113537.906000", "113537.906000", "113537.906000", "113537.906000", "113537.906000", "113537.906000", "113537.906000", "113537.921000", "113537.921000", "113537.921000", "113537.921000", "113537.921000", "113537.921000", "113537.921000", "113537.921000", "113537.937000", "113537.937000", "113537.937000", "113537.937000", "113557.859000", "113557.859000", "113557.859000", "113557.859000", "113557.859000", "113557.875000", "113557.875000", "113557.875000", "113557.875000", "113557.875000", "113557.875000", "113557.875000", "113557.890000", "113557.890000", "113557.890000", "113557.890000", "113557.890000", "113557.890000", "113557.890000", "113557.890000", "113557.906000", "113557.906000", "113557.906000", "113557.906000", "113557.906000", "113557.906000", "113617.859000", "113617.859000", "113617.859000", "113617.875000", "113617.875000", "113617.875000", "113617.875000", "113617.875000", "113617.875000", "113617.875000", "113617.890000", "113617.890000", "113617.890000", "113617.890000", "113617.890000", "113617.890000", "113617.890000", "113617.890000", "113617.906000", "113617.906000", "113617.906000", "113617.906000", "113617.906000", "113617.906000", "113617.906000", "113637.859000", "113637.859000", "113637.859000", "113637.859000", "113637.859000", "113637.875000", "113637.875000", "113637.875000", "113637.875000", "113637.875000", "113637.875000", "113637.875000", "113637.890000", "113637.890000", "113637.890000", "113637.890000", "113637.890000", "113637.890000", "113637.890000", "113637.890000", "113637.906000", "113637.906000", "113637.906000", "113637.906000", "113637.906000", "113637.906000", "113657.859000", "113657.859000", "113657.859000", "113657.859000", "113657.859000", "113657.875000", "113657.875000", "113657.875000", "113657.875000", "113657.890000", "113657.890000", "113657.890000", "113657.890000", "113657.890000", "113657.890000", "113657.890000", "113657.906000", "113657.906000", "113657.906000", "113657.906000", "113657.906000", "113657.906000", "113657.906000", "113657.906000", "113657.921000", "113717.859000", "113717.859000", "113717.859000", "113717.859000", "113717.859000", "113717.875000", "113717.875000", "113717.875000", "113717.875000", "113717.875000", "113717.875000", "113717.875000", "113717.875000", "113717.890000", "113717.890000", "113717.890000", "113717.890000", "113717.890000", "113717.890000", "113717.890000", "113717.906000", "113717.906000", "113717.906000", "113717.906000", "113717.906000", "113717.906000", "113737.859000", "113737.859000", "113737.859000", "113737.859000", "113737.859000", "113737.875000", "113737.875000", "113737.875000", "113737.875000", "113737.875000", "113737.875000", "113737.875000", "113737.875000", "113737.890000", "113737.890000", "113737.890000", "113737.890000", "113737.890000", "113737.890000", "113737.890000", "113737.906000", "113737.906000", "113737.906000", "113737.906000", "113737.906000", "113757.859000", "113757.859000", "113757.859000", "113757.859000", "113757.859000", "113757.875000", "113757.875000", "113757.875000", "113757.875000", "113757.875000", "113757.875000", "113757.875000", "113757.890000", "113757.890000", "113757.890000", "113757.890000", "113757.890000", "113757.890000", "113757.890000", "113757.890000", "113757.906000", "113757.906000", "113757.906000", "113757.906000", "113757.906000", "113757.906000", "113817.859000", "113817.859000", "113817.859000", "113817.859000", "113817.859000", "113817.875000", "113817.875000", "113817.875000", "113817.875000", "113817.875000", "113817.875000", "113817.875000", "113817.875000", "113817.890000", "113817.890000", "113817.890000", "113817.890000", "113817.890000", "113817.890000", "113817.890000", "113817.890000", "113817.906000", "113817.906000", "113817.906000", "113817.906000", "113837.859000", "113837.859000", "113837.859000", "113837.859000", "113837.859000", "113837.875000", "113837.875000", "113837.875000", "113837.875000", "113837.875000", "113837.875000", "113837.875000", "113837.875000", "113837.890000", "113837.890000", "113837.890000", "113837.890000", "113837.890000", "113837.890000", "113837.890000", "113837.906000", "113837.906000", "113837.906000", "113837.906000", "113837.906000", "113837.906000", "113857.859000", "113857.859000", "113857.859000", "113857.859000", "113857.859000", "113857.875000", "113857.875000", "113857.875000", "113857.875000", "113857.875000", "113857.875000", "113857.875000", "113857.875000", "113857.890000", "113857.890000", "113857.890000", "113857.890000", "113857.890000", "113857.890000", "113857.890000", "113857.890000", "113857.906000", "113857.906000", "113857.906000", "113857.906000", "113917.859000", "113917.859000", "113917.859000", "113917.859000", "113917.859000", "113917.875000", "113917.875000", "113917.875000", "113917.875000", "113917.875000", "113917.875000", "113917.875000", "113917.875000", "113917.890000", "113917.890000", "113917.890000", "113917.890000", "113917.890000", "113917.890000", "113917.890000", "113917.906000", "113917.906000", "113917.906000", "113917.906000", "113917.906000", "113917.906000", "113937.859000", "113937.859000", "113937.859000", "113937.859000", "113937.859000", "113937.875000", "113937.875000", "113937.875000", "113937.875000", "113937.875000", "113937.875000", "113937.875000", "113937.875000", "113937.890000", "113937.890000", "113937.890000", "113937.890000", "113937.890000", "113937.890000", "113937.890000", "113937.906000", "113937.906000", "113937.906000", "113937.906000", "113937.906000", "113957.859000", "113957.859000", "113957.859000", "113957.859000", "113957.859000", "113957.875000", "113957.875000", "113957.875000", "113957.875000", "113957.875000", "113957.875000", "113957.875000", "113957.890000", "113957.890000", "113957.890000", "113957.890000", "113957.890000", "113957.890000", "113957.890000", "113957.890000", "113957.906000", "113957.906000", "113957.906000", "113957.906000", "113957.906000", "113957.906000", "114017.859000", "114017.859000", "114017.859000", "114017.859000", "114017.859000", "114017.875000", "114017.875000", "114017.875000", "114017.875000", "114017.875000", "114017.875000", "114017.875000", "114017.875000", "114017.890000", "114017.890000", "114017.890000", "114017.890000", "114017.890000", "114017.890000", "114017.890000", "114017.906000", "114017.906000", "114017.906000", "114017.906000", "114017.906000", "114037.859000", "114037.859000", "114037.859000", "114037.859000", "114037.859000", "114037.875000", "114037.875000", "114037.875000", "114037.875000", "114037.875000", "114037.875000", "114037.875000", "114037.875000", "114037.890000", "114037.890000", "114037.890000", "114037.890000", "114037.890000", "114037.890000", "114037.890000", "114037.906000", "114037.906000", "114037.906000", "114037.906000", "114037.906000", "114037.906000", "114057.859000", "114057.859000", "114057.859000", "114057.859000", "114057.859000", "114057.875000", "114057.875000", "114057.875000", "114057.875000", "114057.875000", "114057.875000", "114057.875000", "114057.875000", "114057.890000", "114057.890000", "114057.890000", "114057.890000", "114057.890000", "114057.890000", "114057.890000", "114057.906000", "114057.906000", "114057.906000", "114057.906000", "114057.906000", "114117.859000", "114117.859000", "114117.859000", "114117.859000", "114117.859000", "114117.875000", "114117.875000", "114117.875000", "114117.875000", "114117.875000", "114117.875000", "114117.875000", "114117.875000", "114117.890000", "114117.890000", "114117.890000", "114117.890000", "114117.890000", "114117.890000", "114117.890000", "114117.906000", "114117.906000", "114117.906000", "114117.906000", "114117.906000", "114117.906000", "114137.859000", "114137.859000", "114137.859000", "114137.859000", "114137.859000", "114137.875000", "114137.875000", "114137.875000", "114137.875000", "114137.875000", "114137.875000", "114137.875000", "114137.890000", "114137.890000", "114137.890000", "114137.890000", "114137.890000", "114137.890000", "114137.890000", "114137.890000", "114137.906000", "114137.906000", "114137.906000", "114137.906000", "114137.906000", "114157.859000", "114157.859000", "114157.859000", "114157.859000", "114157.859000", "114157.875000", "114157.875000", "114157.875000", "114157.875000", "114157.875000", "114157.875000", "114157.875000", "114157.875000", "114157.890000", "114157.890000", "114157.890000", "114157.890000", "114157.890000", "114157.890000", "114157.890000", "114157.906000", "114157.906000", "114157.906000", "114157.906000", "114157.906000", "114157.906000", "114217.875000", "114217.875000", "114217.875000", "114217.875000", "114217.875000", "114217.875000", "114217.875000", "114217.875000", "114217.890000", "114217.890000", "114217.890000", "114217.890000", "114217.890000", "114217.890000", "114217.890000", "114217.890000", "114217.906000", "114217.906000", "114217.906000", "114217.906000", "114217.906000", "114217.906000", "114217.906000", "114217.921000", "114217.921000", "114237.859000", "114237.859000", "114237.859000", "114237.859000", "114237.859000", "114237.875000", "114237.875000", "114237.875000", "114237.875000", "114237.875000", "114237.875000", "114237.875000", "114237.890000", "114237.890000", "114237.890000", "114237.890000", "114237.890000", "114237.890000", "114237.890000", "114237.890000", "114237.906000", "114237.906000", "114237.906000", "114237.906000", "114237.906000", "114237.906000", "114253.468000", "114253.484000", "114253.484000", "114253.484000", "114253.484000", "114253.484000", "114253.484000", "114253.484000", "114253.500000", "114253.500000", "114253.500000", "114253.500000", "114253.500000", "114253.500000", "114253.500000", "114253.500000", "114253.515000", "114253.515000", "114253.515000", "114253.515000"],
