{
  "AcquisitionMatrixPE": 104,
  "AcquisitionNumber": 1,
  "AcquisitionTime": "11:04:39.452500",
  "BandwidthPerPixelPhaseEncode": 13.935,
  "BaseResolution": 104,
  "CoilString": "C:HEA;HEP",
  "ConversionSoftware": "dcm2niix",
  "ConversionSoftwareVersion": "v1.0.20210317",
  "DerivedVendorReportedEchoSpacing": 0.000690017,
  "DeviceSerialNumber": "35450",
  "DwellTime": 2.5e-06,
  "EchoTime": 0.0348,
  "EffectiveEchoSpacing": 0.000690017,
  "FlipAngle": 55,
  "ImageComments": "Unaliased MB8/PE3 (remote)",
  "ImageOrientationPatientDICOM": [0.999962, -0.000563132, -0.00870835, -1.16843e-08, 0.997916, -0.0645323],
  "ImageType": [
    "ORIGINAL",
    "PRIMARY",
    "M",
    "MB",
    "ND",
    "MOSAIC"
],
  "ImagingFrequency": 123.234,
  "InPlanePhaseEncodingDirectionDICOM": "COL",
  "InstitutionAddress": "Univeristy Ave. 197,Newark,North East,US,07102-1814",
  "InstitutionName": "RUBIC",
  "InstitutionalDepartmentName": "Department",
  "MRAcquisitionType": "2D",
  "MagneticFieldStrength": 3,
  "Manufacturer": "Siemens",
  "ManufacturersModelName": "TrioTim",
  "Modality": "MR",
  "MultibandAccelerationFactor": 8,
  "PartialFourier": 0.875,
  "PatientPosition": "HFS",
  "PercentPhaseFOV": 100,
  "PercentSampling": 100,
  "PhaseEncodingDirection": "j-",
  "PhaseEncodingSteps": 91,
  "PhaseResolution": 1,
  "PixelBandwidth": 1923,
  "ProcedureStepDescription": "Cole^Michael",
  "ProtocolName": "cmrr_mbep2d_bold_2mm_MB8_Rest",
  "PulseSequenceDetails": "%CustomerSeq%\\cmrr_mbep2d_bold",
  "ReceiveCoilName": "32Ch_Head",
  "ReconMatrixPE": 104,
  "RepetitionTime": 0.785,
  "SAR": 0.128352,
  "ScanOptions": "PFP\\FS",
  "ScanningSequence": "EP",
  "SequenceName": "epfid2d1_104",
  "SequenceVariant": "SK\\SS",
  "SeriesDescription": "cmrr_mbep2d_bold_2mm_MB8_Rest",
  "SeriesNumber": 9,
  "ShimSetting": [2106, -393, -7307, 618, -28, -7, 14, 84],
  "SliceThickness": 2,
  "SliceTiming": [0, 0.4375, 0.0875, 0.525, 0.175, 0.615, 0.2625, 0.7025, 0.35, 0, 0.4375, 0.0875, 0.525, 0.175, 0.615, 0.2625, 0.7025, 0.35, 0, 0.4375, 0.0875, 0.525, 0.175, 0.615, 0.2625, 0.7025, 0.35, 0, 0.4375, 0.0875, 0.525, 0.175, 0.615, 0.2625, 0.7025, 0.35, 0, 0.4375, 0.0875, 0.525, 0.175, 0.615, 0.2625, 0.7025, 0.35, 0, 0.4375, 0.0875, 0.525, 0.175, 0.615, 0.2625, 0.7025, 0.35, 0, 0.4375, 0.0875, 0.525, 0.175, 0.615, 0.2625, 0.7025, 0.35, 0, 0.4375, 0.0875, 0.525, 0.175, 0.615, 0.2625, 0.7025, 0.35],
  "SoftwareVersions": "syngo MR B19",
  "SpacingBetweenSlices": 2,
  "StationName": "MRC35450",
  "TaskName": "rest",
  "TotalReadoutTime": 0.0710717,
  "TxRefAmp": 346.353,
  "dcmmeta_affine": [
    [-1.999923825263977, -2.3368540880142064e-08, -0.017453067004680634, 104.6156234741211],
    [0.0011262634070590138, 1.9958312511444092, -0.12905970215797424, -79.98506164550781],
    [-0.017416691407561302, 0.1290646195411682, 1.9957551956176758, -104.05133819580078],
    [0.0, 0.0, 0.0, 1.0]
],
  "dcmmeta_reorient_transform": [
    [0.0, -1.0, 0.0, 103.0],
    [1.0, 0.0, 0.0, 0.0],
    [0.0, 0.0, 1.0, 0.0],
    [0.0, 0.0, 0.0, 1.0]
],
  "dcmmeta_shape": [104, 104, 72, 1070],
  "dcmmeta_slice_dim": 2,
  "dcmmeta_version": 0.6,
  "global": {
    "const": {
      "AcquisitionMatrix": [104, 0, 0, 104],
      "AngioFlag": "N",
      "BitsAllocated": 16,
      "BitsStored": 12,
      "Columns": 936,
      "EchoNumbers": 1,
      "EchoTime": 34.8,
      "EchoTrainLength": 1,
      "FlipAngle": 55.0,
      "HighBit": 11,
      "ImageOrientationPatient": [0.99996192307697, -0.0005631317143, -0.0087083453584, -1.168427e-08, 0.99791561834852, -0.0645323070724],
      "ImagePositionPatient": [-936.58393308752, -955.38282646114, -29.821459407812],
      "ImageType": [
        "ORIGINAL",
        "PRIMARY",
        "M",
        "MB",
        "ND",
        "MOSAIC"
],
      "ImagedNucleus": "1H",
      "ImagingFrequency": 123.234447,
      "InPlanePhaseEncodingDirection": "COL",
      "MRAcquisitionType": "2D",
      "MagneticFieldStrength": 3.0,
      "Manufacturer": "SIEMENS",
      "ManufacturerModelName": "TrioTim",
      "Modality": "MR",
      "NumberOfAverages": 1.0,
      "NumberOfPhaseEncodingSteps": 91,
      "PercentPhaseFieldOfView": 100.0,
      "PercentSampling": 100.0,
      "PerformedProcedureStepStartTime": "102451.109000",
      "PhotometricInterpretation": "MONOCHROME2",
      "PixelBandwidth": 1923.0,
      "PixelRepresentation": 0,
      "PixelSpacing": [2.0, 2.0],
      "ProtocolName": "cmrr_mbep2d_bold_2mm_MB8_Rest",
      "RepetitionTime": 785.0,
      "Rows": 936,
      "SAR": 0.12835153738761,
      "SamplesPerPixel": 1,
      "ScanOptions": [
        "PFP",
        "FS"
],
      "ScanningSequence": "EP",
      "SequenceName": "epfid2d1_104",
      "SequenceVariant": [
        "SK",
        "SS"
],
      "SeriesDescription": "cmrr_mbep2d_bold_2mm_MB8_Rest",
      "SeriesNumber": 9,
      "SeriesTime": "110457.875000",
      "SliceLocation": -99.582008995307,
      "SliceThickness": 2.0,
      "SmallestImagePixelValue": 0,
      "SoftwareVersions": "syngo MR B19",
      "SpacingBetweenSlices": 1.9999999674173,
      "SpecificCharacterSet": "ISO_IR 100",
      "StudyID": "1",
      "StudyTime": "102451.062000",
      "TransmitCoilName": "Body",
      "VariableFlipAngleFlag": "N",
      "WindowCenterWidthExplanation": "Algo1",
      "dBdt": 0.0},
    "slices": {}
  },
  "time": {
    "samples": {
      "AcquisitionNumber": [1, 2, 3, 4, 5, 6, 7, 8, 9, 10, 11, 12, 13, 14, 15, 16, 17, 18, 19, 20, 21, 22, 23, 24, 25, 26, 27, 28, 29, 30, 31, 32, 33, 34, 35, 36, 37, 38, 39, 40, 41, 42, 43, 44, 45, 46, 47, 48, 49, 50, 51, 52, 53, 54, 55, 56, 57, 58, 59, 60, 61, 62, 63, 64, 65, 66, 67, 68, 69, 70, 71, 72, 73, 74, 75, 76, 77, 78, 79, 80, 81, 82, 83, 84, 85, 86, 87, 88, 89, 90, 91, 92, 93, 94, 95, 96, 97, 98, 99, 100, 101, 102, 103, 104, 105, 106, 107, 108, 109, 110, 111, 112, 113, 114, 115, 116, 117, 118, 119, 120, 121, 122, 123, 124, 125, 126, 127, 128, 129, 130, 131, 132, 133, 134, 135, 136, 137, 138, 139, 140, 141, 142, 143, 144, 145, 146, 147, 148, 149, 150, 151, 152, 153, 154, 155, 156, 157, 158, 159, 160, 161, 162, 163, 164, 165, 166, 167, 168, 169, 170, 171, 172, 173, 174, 175, 176, 177, 178, 179, 180, 181, 182, 183, 184, 185, 186, 187, 188, 189, 190, 191, 192, 193, 194, 195, 196, 197, 198, 199, 200, 201, 202, 203, 204, 205, 206, 207, 208, 209, 210, 211, 212, 213, 214, 215, 216, 217, 218, 219, 220, 221, 222, 223, 224, 225, 226, 227, 228, 229, 230, 231, 232, 233, 234, 235, 236, 237, 238, 239, 240, 241, 242, 243, 244, 245, 246, 247, 248, 249, 250, 251, 252, 253, 254, 255, 256, 257, 258, 259, 260, 261, 262, 263, 264, 265, 266, 267, 268, 269, 270, 271, 272, 273, 274, 275, 276, 277, 278, 279, 280, 281, 282, 283, 284, 285, 286, 287, 288, 289, 290, 291, 292, 293, 294, 295, 296, 297, 298, 299, 300, 301, 302, 303, 304, 305, 306, 307, 308, 309, 310, 311, 312, 313, 314, 315, 316, 317, 318, 319, 320, 321, 322, 323, 324, 325, 326, 327, 328, 329, 330, 331, 332, 333, 334, 335, 336, 337, 338, 339, 340, 341, 342, 343, 344, 345, 346, 347, 348, 349, 350, 351, 352, 353, 354, 355, 356, 357, 358, 359, 360, 361, 362, 363, 364, 365, 366, 367, 368, 369, 370, 371, 372, 373, 374, 375, 376, 377, 378, 379, 380, 381, 382, 383, 384, 385, 386, 387, 388, 389, 390, 391, 392, 393, 394, 395, 396, 397, 398, 399, 400, 401, 402, 403, 404, 405, 406, 407, 408, 409, 410, 411, 412, 413, 414, 415, 416, 417, 418, 419, 420, 421, 422, 423, 424, 425, 426, 427, 428, 429, 430, 431, 432, 433, 434, 435, 436, 437, 438, 439, 440, 441, 442, 443, 444, 445, 446, 447, 448, 449, 450, 451, 452, 453, 454, 455, 456, 457, 458, 459, 460, 461, 462, 463, 464, 465, 466, 467, 468, 469, 470, 471, 472, 473, 474, 475, 476, 477, 478, 479, 480, 481, 482, 483, 484, 485, 486, 487, 488, 489, 490, 491, 492, 493, 494, 495, 496, 497, 498, 499, 500, 501, 502, 503, 504, 505, 506, 507, 508, 509, 510, 511, 512, 513, 514, 515, 516, 517, 518, 519, 520, 521, 522, 523, 524, 525, 526, 527, 528, 529, 530, 531, 532, 533, 534, 535, 536, 537, 538, 539, 540, 541, 542, 543, 544, 545, 546, 547, 548, 549, 550, 551, 552, 553, 554, 555, 556, 557, 558, 559, 560, 561, 562, 563, 564, 565, 566, 567, 568, 569, 570, 571, 572, 573, 574, 575, 576, 577, 578, 579, 580, 581, 582, 583, 584, 585, 586, 587, 588, 589, 590, 591, 592, 593, 594, 595, 596, 597, 598, 599, 600, 601, 602, 603, 604, 605, 606, 607, 608, 609, 610, 611, 612, 613, 614, 615, 616, 617, 618, 619, 620, 621, 622, 623, 624, 625, 626, 627, 628, 629, 630, 631, 632, 633, 634, 635, 636, 637, 638, 639, 640, 641, 642, 643, 644, 645, 646, 647, 648, 649, 650, 651, 652, 653, 654, 655, 656, 657, 658, 659, 660, 661, 662, 663, 664, 665, 666, 667, 668, 669, 670, 671, 672, 673, 674, 675, 676, 677, 678, 679, 680, 681, 682, 683, 684, 685, 686, 687, 688, 689, 690, 691, 692, 693, 694, 695, 696, 697, 698, 699, 700, 701, 702, 703, 704, 705, 706, 707, 708, 709, 710, 711, 712, 713, 714, 715, 716, 717, 718, 719, 720, 721, 722, 723, 724, 725, 726, 727, 728, 729, 730, 731, 732, 733, 734, 735, 736, 737, 738, 739, 740, 741, 742, 743, 744, 745, 746, 747, 748, 749, 750, 751, 752, 753, 754, 755, 756, 757, 758, 759, 760, 761, 762, 763, 764, 765, 766, 767, 768, 769, 770, 771, 772, 773, 774, 775, 776, 777, 778, 779, 780, 781, 782, 783, 784, 785, 786, 787, 788, 789, 790, 791, 792, 793, 794, 795, 796, 797, 798, 799, 800, 801, 802, 803, 804, 805, 806, 807, 808, 809, 810, 811, 812, 813, 814, 815, 816, 817, 818, 819, 820, 821, 822, 823, 824, 825, 826, 827, 828, 829, 830, 831, 832, 833, 834, 835, 836, 837, 838, 839, 840, 841, 842, 843, 844, 845, 846, 847, 848, 849, 850, 851, 852, 853, 854, 855, 856, 857, 858, 859, 860, 861, 862, 863, 864, 865, 866, 867, 868, 869, 870, 871, 872, 873, 874, 875, 876, 877, 878, 879, 880, 881, 882, 883, 884, 885, 886, 887, 888, 889, 890, 891, 892, 893, 894, 895, 896, 897, 898, 899, 900, 901, 902, 903, 904, 905, 906, 907, 908, 909, 910, 911, 912, 913, 914, 915, 916, 917, 918, 919, 920, 921, 922, 923, 924, 925, 926, 927, 928, 929, 930, 931, 932, 933, 934, 935, 936, 937, 938, 939, 940, 941, 942, 943, 944, 945, 946, 947, 948, 949, 950, 951, 952, 953, 954, 955, 956, 957, 958, 959, 960, 961, 962, 963, 964, 965, 966, 967, 968, 969, 970, 971, 972, 973, 974, 975, 976, 977, 978, 979, 980, 981, 982, 983, 984, 985, 986, 987, 988, 989, 990, 991, 992, 993, 994, 995, 996, 997, 998, 999, 1000, 1001, 1002, 1003, 1004, 1005, 1006, 1007, 1008, 1009, 1010, 1011, 1012, 1013, 1014, 1015, 1016, 1017, 1018, 1019, 1020, 1021, 1022, 1023, 1024, 1025, 1026, 1027, 1028, 1029, 1030, 1031, 1032, 1033, 1034, 1035, 1036, 1037, 1038, 1039, 1040, 1041, 1042, 1043, 1044, 1045, 1046, 1047, 1048, 1049, 1050, 1051, 1052, 1053, 1054, 1055, 1056, 1057, 1058, 1059, 1060, 1061, 1062, 1063, 1064, 1065, 1066, 1067, 1068, 1069, 1070],
      "AcquisitionTime": ["110439.452500", "110440.242500", "110441.030000", "110441.817500", "110442.605000", "110443.395000", "110444.182500", "110444.970000", "110445.760000", "110446.547500", "110447.335000", "110448.122500", "110448.912500", "110449.700000", "110450.487500", "110451.275000", "110452.065000", "110452.852500", "110453.640000", "110454.427500", "110455.217500", "110456.005000", "110456.792500", "110457.580000", "110458.370000", "110459.157500", "110459.945000", "110500.732500", "110501.522500", "110502.310000", "110503.097500", "110503.887500", "110504.675000", "110505.462500", "110506.250000", "110507.040000", "110507.827500", "110508.615000", "110509.402500", "110510.192500", "110510.980000", "110511.767500", "110512.555000", "110513.345000", "110514.132500", "110514.920000", "110515.707500", "110516.497500", "110517.285000", "110518.072500", "110518.860000", "110519.650000", "110520.437500", "110521.225000", "110522.015000", "110522.802500", "110523.590000", "110524.377500", "110525.167500", "110525.955000", "110526.742500", "110527.530000", "110528.320000", "110529.107500", "110529.895000", "110530.682500", "110531.472500", "110532.260000", "110533.047500", "110533.835000", "110534.625000", "110535.412500", "110536.200000", "110536.987500", "110537.777500", "110538.565000", "110539.352500", "110540.142500", "110540.930000", "110541.717500", "110542.505000", "110543.295000", "110544.082500", "110544.870000", "110545.657500", "110546.447500", "110547.235000", "110548.022500", "110548.810000", "110549.600000", "110550.387500", "110551.175000", "110551.962500", "110552.752500", "110553.540000", "110554.327500", "110555.115000", "110555.905000", "110556.692500", "110557.480000", "110558.270000", "110559.057500", "110559.845000", "110600.632500", "110601.422500", "110602.210000", "110602.997500", "110603.785000", "110604.575000", "110605.362500", "110606.150000", "110606.937500", "110607.727500", "110608.515000", "110609.302500", "110610.090000", "110610.880000", "110611.667500", "110612.455000", "110613.242500", "110614.032500", "110614.820000", "110615.607500", "110616.397500", "110617.185000", "110617.972500", "110618.760000", "110619.550000", "110620.337500", "110621.125000", "110621.912500", "110622.702500", "110623.490000", "110624.277500", "110625.065000", "110625.855000", "110626.642500", "110627.430000", "110628.217500", "110629.007500", "110629.795000", "110630.582500", "110631.370000", "110632.160000", "110632.947500", "110633.735000", "110634.525000", "110635.312500", "110636.100000", "110636.887500", "110637.677500", "110638.465000", "110639.252500", "110640.040000", "110640.830000", "110641.617500", "110642.405000", "110643.192500", "110643.982500", "110644.770000", "110645.557500", "110646.345000", "110647.135000", "110647.922500", "110648.710000", "110649.497500", "110650.287500", "110651.075000", "110651.862500", "110652.652500", "110653.440000", "110654.227500", "110655.015000", "110655.805000", "110656.592500", "110657.380000", "110658.167500", "110658.957500", "110659.745000", "110700.532500", "110701.320000", "110702.110000", "110702.897500", "110703.685000", "110704.472500", "110705.262500", "110706.050000", "110706.837500", "110707.625000", "110708.415000", "110709.202500", "110709.990000", "110710.780000", "110711.567500", "110712.355000", "110713.142500", "110713.932500", "110714.720000", "110715.507500", "110716.295000", "110717.085000", "110717.872500", "110718.660000", "110719.447500", "110720.237500", "110721.025000", "110721.812500", "110722.600000", "110723.390000", "110724.177500", "110724.965000", "110725.752500", "110726.542500", "110727.330000", "110728.117500", "110728.907500", "110729.695000", "110730.482500", "110731.270000", "110732.060000", "110732.847500", "110733.635000", "110734.422500", "110735.212500", "110736.000000", "110736.787500", "110737.575000", "110738.365000", "110739.152500", "110739.940000", "110740.727500", "110741.517500", "110742.305000", "110743.092500", "110743.882500", "110744.670000", "110745.457500", "110746.245000", "110747.035000", "110747.822500", "110748.610000", "110749.397500", "110750.187500", "110750.975000", "110751.762500", "110752.550000", "110753.340000", "110754.127500", "110754.915000", "110755.702500", "110756.492500", "110757.280000", "110758.067500", "110758.855000", "110759.645000", "110800.432500", "110801.220000", "110802.010000", "110802.797500", "110803.585000", "110804.372500", "110805.162500", "110805.950000", "110806.737500", "110807.525000", "110808.315000", "110809.102500", "110809.890000", "110810.677500", "110811.467500", "110812.255000", "110813.042500", "110813.830000", "110814.620000", "110815.407500", "110816.195000", "110816.982500", "110817.772500", "110818.560000", "110819.347500", "110820.137500", "110820.925000", "110821.712500", "110822.500000", "110823.290000", "110824.077500", "110824.865000", "110825.652500", "110826.442500", "110827.230000", "110828.017500", "110828.805000", "110829.595000", "110830.382500", "110831.170000", "110831.957500", "110832.747500", "110833.535000", "110834.322500", "110835.110000", "110835.900000", "110836.687500", "110837.475000", "110838.265000", "110839.052500", "110839.840000", "110840.627500", "110841.417500", "110842.205000", "110842.992500", "110843.780000", "110844.570000", "110845.357500", "110846.145000", "110846.932500", "110847.722500", "110848.510000", "110849.297500", "110850.085000", "110850.875000", "110851.662500", "110852.450000", "110853.237500", "110854.027500", "110854.815000", "110855.602500", "110856.392500", "110857.180000", "110857.967500", "110858.755000", "110859.545000", "110900.332500", "110901.120000", "110901.907500", "110902.697500", "110903.485000", "110904.272500", "110905.060000", "110905.850000", "110906.637500", "110907.425000", "110908.212500", "110909.002500", "110909.790000", "110910.577500", "110911.365000", "110912.155000", "110912.942500", "110913.730000", "110914.520000", "110915.307500", "110916.095000", "110916.882500", "110917.672500", "110918.460000", "110919.247500", "110920.035000", "110920.825000", "110921.612500", "110922.400000", "110923.187500", "110923.977500", "110924.765000", "110925.552500", "110926.340000", "110927.130000", "110927.917500", "110928.705000", "110929.492500", "110930.282500", "110931.070000", "110931.857500", "110932.647500", "110933.435000", "110934.222500", "110935.010000", "110935.800000", "110936.587500", "110937.375000", "110938.162500", "110938.952500", "110939.740000", "110940.527500", "110941.315000", "110942.105000", "110942.892500", "110943.680000", "110944.467500", "110945.257500", "110946.045000", "110946.832500", "110947.620000", "110948.410000", "110949.197500", "110949.985000", "110950.775000", "110951.562500", "110952.350000", "110953.137500", "110953.927500", "110954.715000", "110955.502500", "110956.290000", "110957.080000", "110957.867500", "110958.655000", "110959.442500", "111000.232500", "111001.020000", "111001.807500", "111002.595000", "111003.385000", "111004.172500", "111004.960000", "111005.747500", "111006.537500", "111007.325000", "111008.112500", "111008.902500", "111009.690000", "111010.477500", "111011.265000", "111012.055000", "111012.842500", "111013.630000", "111014.417500", "111015.207500", "111015.995000", "111016.782500", "111017.570000", "111018.360000", "111019.147500", "111019.935000", "111020.722500", "111021.512500", "111022.300000", "111023.087500", "111023.875000", "111024.665000", "111025.452500", "111026.240000", "111027.030000", "111027.817500", "111028.605000", "111029.392500", "111030.182500", "111030.970000", "111031.757500", "111032.545000", "111033.335000", "111034.122500", "111034.910000", "111035.697500", "111036.487500", "111037.275000", "111038.062500", "111038.850000", "111039.640000", "111040.427500", "111041.215000", "111042.002500", "111042.792500", "111043.580000", "111044.367500", "111045.157500", "111045.945000", "111046.732500", "111047.520000", "111048.310000", "111049.097500", "111049.885000", "111050.672500", "111051.462500", "111052.250000", "111053.037500", "111053.825000", "111054.615000", "111055.402500", "111056.190000", "111056.977500", "111057.767500", "111058.555000", "111059.342500", "111100.132500", "111100.920000", "111101.707500", "111102.495000", "111103.285000", "111104.072500", "111104.860000", "111105.647500", "111106.437500", "111107.225000", "111108.012500", "111108.800000", "111109.590000", "111110.377500", "111111.165000", "111111.952500", "111112.742500", "111113.530000", "111114.317500", "111115.105000", "111115.895000", "111116.682500", "111117.470000", "111118.260000", "111119.047500", "111119.835000", "111120.622500", "111121.412500", "111122.200000", "111122.987500", "111123.775000", "111124.565000", "111125.352500", "111126.140000", "111126.927500", "111127.717500", "111128.505000", "111129.292500", "111130.080000", "111130.870000", "111131.657500", "111132.445000", "111133.232500", "111134.022500", "111134.810000", "111135.597500", "111136.387500", "111137.175000", "111137.962500", "111138.750000", "111139.540000", "111140.327500", "111141.115000", "111141.902500", "111142.692500", "111143.480000", "111144.267500", "111145.055000", "111145.845000", "111146.632500", "111147.420000", "111148.207500", "111148.997500", "111149.785000", "111150.572500", "111151.360000", "111152.150000", "111152.937500", "111153.725000", "111154.515000", "111155.302500", "111156.090000", "111156.877500", "111157.667500", "111158.455000", "111159.242500", "111200.030000", "111200.820000", "111201.607500", "111202.395000", "111203.182500", "111203.972500", "111204.760000", "111205.547500", "111206.335000", "111207.125000", "111207.912500", "111208.700000", "111209.487500", "111210.277500", "111211.065000", "111211.852500", "111212.642500", "111213.430000", "111214.217500", "111215.005000", "111215.795000", "111216.582500", "111217.370000", "111218.157500", "111218.947500", "111219.735000", "111220.522500", "111221.310000", "111222.100000", "111222.887500", "111223.675000", "111224.462500", "111225.252500", "111226.040000", "111226.827500", "111227.615000", "111228.405000", "111229.192500", "111229.980000", "111230.770000", "111231.557500", "111232.345000", "111233.132500", "111233.922500", "111234.710000", "111235.497500", "111236.285000", "111237.075000", "111237.862500", "111238.650000", "111239.437500", "111240.227500", "111241.015000", "111241.802500", "111242.590000", "111243.380000", "111244.167500", "111244.955000", "111245.742500", "111246.532500", "111247.320000", "111248.107500", "111248.897500", "111249.685000", "111250.472500", "111251.260000", "111252.050000", "111252.837500", "111253.625000", "111254.412500", "111255.202500", "111255.990000", "111256.777500", "111257.565000", "111258.355000", "111259.142500", "111259.930000", "111300.717500", "111301.507500", "111302.295000", "111303.082500", "111303.870000", "111304.660000", "111305.447500", "111306.235000", "111307.025000", "111307.812500", "111308.600000", "111309.387500", "111310.177500", "111310.965000", "111311.752500", "111312.540000", "111313.330000", "111314.117500", "111314.905000", "111315.692500", "111316.482500", "111317.270000", "111318.057500", "111318.845000", "111319.635000", "111320.422500", "111321.210000", "111321.997500", "111322.787500", "111323.575000", "111324.362500", "111325.152500", "111325.940000", "111326.727500", "111327.515000", "111328.305000", "111329.092500", "111329.880000", "111330.667500", "111331.457500", "111332.245000", "111333.032500", "111333.820000", "111334.610000", "111335.397500", "111336.185000", "111336.972500", "111337.762500", "111338.550000", "111339.337500", "111340.125000", "111340.915000", "111341.702500", "111342.490000", "111343.280000", "111344.067500", "111344.855000", "111345.642500", "111346.432500", "111347.220000", "111348.007500", "111348.795000", "111349.585000", "111350.372500", "111351.160000", "111351.947500", "111352.737500", "111353.525000", "111354.312500", "111355.100000", "111355.890000", "111356.677500", "111357.465000", "111358.252500", "111359.042500", "111359.830000", "111400.617500", "111401.407500", "111402.195000", "111402.982500", "111403.770000", "111404.560000", "111405.347500", "111406.135000", "111406.922500", "111407.712500", "111408.500000", "111409.287500", "111410.075000", "111410.865000", "111411.652500", "111412.440000", "111413.227500", "111414.017500", "111414.805000", "111415.592500", "111416.382500", "111417.170000", "111417.957500", "111418.745000", "111419.535000", "111420.322500", "111421.110000", "111421.897500", "111422.687500", "111423.475000", "111424.262500", "111425.050000", "111425.840000", "111426.627500", "111427.415000", "111428.202500", "111428.992500", "111429.780000", "111430.567500", "111431.355000", "111432.145000", "111432.932500", "111433.720000", "111434.510000", "111435.297500", "111436.085000", "111436.872500", "111437.662500", "111438.450000", "111439.237500", "111440.025000", "111440.815000", "111441.602500", "111442.390000", "111443.177500", "111443.967500", "111444.755000", "111445.542500", "111446.330000", "111447.120000", "111447.907500", "111448.695000", "111449.482500", "111450.272500", "111451.060000", "111451.847500", "111452.637500", "111453.425000", "111454.212500", "111455.000000", "111455.790000", "111456.577500", "111457.365000", "111458.152500", "111458.942500", "111459.730000", "111500.517500", "111501.305000", "111502.095000", "111502.882500", "111503.670000", "111504.457500", "111505.247500", "111506.035000", "111506.822500", "111507.610000", "111508.400000", "111509.187500", "111509.975000", "111510.765000", "111511.552500", "111512.340000", "111513.127500", "111513.917500", "111514.705000", "111515.492500", "111516.280000", "111517.070000", "111517.857500", "111518.645000", "111519.432500", "111520.222500", "111521.010000", "111521.797500", "111522.585000", "111523.375000", "111524.162500", "111524.950000", "111525.737500", "111526.527500", "111527.315000", "111528.102500", "111528.892500", "111529.680000", "111530.467500", "111531.255000", "111532.045000", "111532.832500", "111533.620000", "111534.407500", "111535.197500", "111535.985000", "111536.772500", "111537.560000", "111538.350000", "111539.137500", "111539.925000", "111540.712500", "111541.502500", "111542.290000", "111543.077500", "111543.865000", "111544.655000", "111545.442500", "111546.230000", "111547.020000", "111547.807500", "111548.595000", "111549.382500", "111550.172500", "111550.960000", "111551.747500", "111552.535000", "111553.325000", "111554.112500", "111554.900000", "111555.687500", "111556.477500", "111557.265000", "111558.052500", "111558.840000", "111559.630000", "111600.417500", "111601.205000", "111601.992500", "111602.782500", "111603.570000", "111604.357500", "111605.147500", "111605.935000", "111606.722500", "111607.510000", "111608.300000", "111609.087500", "111609.875000", "111610.662500", "111611.452500", "111612.240000", "111613.027500", "111613.815000", "111614.605000", "111615.392500", "111616.180000", "111616.967500", "111617.757500", "111618.545000", "111619.332500", "111620.120000", "111620.910000", "111621.697500", "111622.485000", "111623.275000", "111624.062500", "111624.850000", "111625.637500", "111626.427500", "111627.215000", "111628.002500", "111628.790000", "111629.580000", "111630.367500", "111631.155000", "111631.942500", "111632.732500", "111633.520000", "111634.307500", "111635.095000", "111635.885000", "111636.672500", "111637.460000", "111638.247500", "111639.037500", "111639.825000", "111640.612500", "111641.402500", "111642.190000", "111642.977500", "111643.765000", "111644.555000", "111645.342500", "111646.130000", "111646.917500", "111647.707500", "111648.495000", "111649.282500", "111650.070000", "111650.860000", "111651.647500", "111652.435000", "111653.222500", "111654.012500", "111654.800000", "111655.587500", "111656.375000", "111657.165000", "111657.952500", "111658.740000", "111659.530000", "111700.317500", "111701.105000", "111701.892500", "111702.682500", "111703.470000", "111704.257500", "111705.045000", "111705.835000", "111706.622500", "111707.410000", "111708.197500", "111708.987500", "111709.775000", "111710.562500", "111711.350000", "111712.140000", "111712.927500", "111713.715000", "111714.502500", "111715.292500", "111716.080000", "111716.867500", "111717.657500", "111718.445000", "111719.232500", "111720.020000", "111720.810000", "111721.597500", "111722.385000", "111723.172500", "111723.962500", "111724.750000", "111725.537500", "111726.325000", "111727.115000", "111727.902500", "111728.690000", "111729.477500", "111730.267500", "111731.055000", "111731.842500", "111732.632500", "111733.420000", "111734.207500", "111734.995000", "111735.785000", "111736.572500", "111737.360000", "111738.147500", "111738.937500", "111739.725000", "111740.512500", "111741.300000", "111742.090000", "111742.877500", "111743.665000", "111744.452500", "111745.242500", "111746.030000", "111746.817500", "111747.605000", "111748.395000", "111749.182500", "111749.970000", "111750.760000", "111751.547500", "111752.335000", "111753.122500", "111753.912500", "111754.700000", "111755.487500", "111756.275000", "111757.065000", "111757.852500", "111758.640000", "111759.427500", "111800.217500", "111801.005000", "111801.792500", "111802.580000", "111803.370000", "111804.157500", "111804.945000", "111805.732500", "111806.522500", "111807.310000", "111808.097500", "111808.887500", "111809.675000", "111810.462500", "111811.250000", "111812.040000", "111812.827500", "111813.615000", "111814.402500", "111815.192500", "111815.980000", "111816.767500", "111817.555000", "111818.345000", "111819.132500", "111819.920000", "111820.707500", "111821.497500", "111822.285000", "111823.072500", "111823.860000", "111824.650000", "111825.437500", "111826.225000", "111827.015000", "111827.802500", "111828.590000", "111829.377500", "111830.167500", "111830.955000", "111831.742500", "111832.530000", "111833.320000", "111834.107500", "111834.895000", "111835.682500", "111836.472500", "111837.260000", "111838.047500", "111838.835000", "111839.625000", "111840.412500", "111841.200000", "111841.987500"],
