{
  "AcquisitionMatrixPE": 104,
  "AcquisitionNumber": 1,
  "AcquisitionTime": "11:59:48.727500",
  "BandwidthPerPixelPhaseEncode": 13.935,
  "BaseResolution": 104,
  "CoilString": "C:HEA;HEP",
  "ConversionSoftware": "dcm2niix",
  "ConversionSoftwareVersion": "v1.0.20210317",
  "DerivedVendorReportedEchoSpacing": 0.000690017,
  "DeviceSerialNumber": "35450",
  "DwellTime": 2.5e-06,
  "EchoTime": 0.0348,
  "EffectiveEchoSpacing": 0.000690017,
  "FlipAngle": 55,
  "ImageComments": "Unaliased MB8/PE3 (remote)",
  "ImageOrientationPatientDICOM": [0.999962, -0.000563132, -0.00870835, -1.16843e-08, 0.997916, -0.0645323],
  "ImageType": [
    "ORIGINAL",
    "PRIMARY",
    "M",
    "MB",
    "ND",
    "MOSAIC"
],
  "ImagingFrequency": 123.235,
  "InPlanePhaseEncodingDirectionDICOM": "COL",
  "InstitutionAddress": "Univeristy Ave. 197,Newark,North East,US,07102-1814",
  "InstitutionName": "RUBIC",
  "InstitutionalDepartmentName": "Department",
  "MRAcquisitionType": "2D",
  "MagneticFieldStrength": 3,
  "Manufacturer": "Siemens",
  "ManufacturersModelName": "TrioTim",
  "Modality": "MR",
  "MultibandAccelerationFactor": 8,
  "PartialFourier": 0.875,
  "PatientPosition": "HFS",
  "PercentPhaseFOV": 100,
  "PercentSampling": 100,
  "PhaseEncodingDirection": "j-",
  "PhaseEncodingSteps": 91,
  "PhaseResolution": 1,
  "PixelBandwidth": 1923,
  "ProcedureStepDescription": "Cole^Michael",
  "ProtocolName": "cmrr_mbep2d_bold_2mm_MB8_Task_8x",
  "PulseSequenceDetails": "%CustomerSeq%\\cmrr_mbep2d_bold",
  "ReceiveCoilName": "32Ch_Head",
  "ReconMatrixPE": 104,
  "RepetitionTime": 0.785,
  "SAR": 0.119698,
  "ScanOptions": "PFP\\FS",
  "ScanningSequence": "EP",
  "SequenceName": "epfid2d1_104",
  "SequenceVariant": "SK\\SS",
  "SeriesDescription": "cmrr_mbep2d_bold_2mm_MB8_Task_8x",
  "SeriesNumber": 21,
  "ShimSetting": [2106, -393, -7307, 618, -28, -7, 14, 84],
  "SliceThickness": 2,
  "SliceTiming": [0, 0.4375, 0.0875, 0.525, 0.175, 0.6125, 0.2625, 0.7, 0.35, 0, 0.4375, 0.0875, 0.525, 0.175, 0.6125, 0.2625, 0.7, 0.35, 0, 0.4375, 0.0875, 0.525, 0.175, 0.6125, 0.2625, 0.7, 0.35, 0, 0.4375, 0.0875, 0.525, 0.175, 0.6125, 0.2625, 0.7, 0.35, 0, 0.4375, 0.0875, 0.525, 0.175, 0.6125, 0.2625, 0.7, 0.35, 0, 0.4375, 0.0875, 0.525, 0.175, 0.6125, 0.2625, 0.7, 0.35, 0, 0.4375, 0.0875, 0.525, 0.175, 0.6125, 0.2625, 0.7, 0.35, 0, 0.4375, 0.0875, 0.525, 0.175, 0.6125, 0.2625, 0.7, 0.35],
  "SoftwareVersions": "syngo MR B19",
  "SpacingBetweenSlices": 2,
  "StationName": "MRC35450",
  "TaskName": "cpro",
  "TotalReadoutTime": 0.0710717,
  "TxRefAmp": 346.353,
  "dcmmeta_affine": [
    [-1.999923825263977, -2.3368540880142064e-08, -0.017453067004680634, 104.6156234741211],
    [0.0011262634070590138, 1.9958312511444092, -0.12905970215797424, -79.98506164550781],
    [-0.017416691407561302, 0.1290646195411682, 1.9957551956176758, -104.05133819580078],
    [0.0, 0.0, 0.0, 1.0]
],
  "dcmmeta_reorient_transform": [
    [0.0, -1.0, 0.0, 103.0],
    [1.0, 0.0, 0.0, 0.0],
    [0.0, 0.0, 1.0, 0.0],
    [0.0, 0.0, 0.0, 1.0]
],
  "dcmmeta_shape": [104, 104, 72, 581],
  "dcmmeta_slice_dim": 2,
  "dcmmeta_version": 0.6,
  "global": {
    "const": {
      "AcquisitionMatrix": [104, 0, 0, 104],
      "AngioFlag": "N",
      "BitsAllocated": 16,
      "BitsStored": 12,
      "Columns": 936,
      "EchoNumbers": 1,
      "EchoTime": 34.8,
      "EchoTrainLength": 1,
      "FlipAngle": 55.0,
      "HighBit": 11,
      "ImageOrientationPatient": [0.99996192307697, -0.0005631317143, -0.0087083453584, -1.168427e-08, 0.99791561834852, -0.0645323070724],
      "ImagePositionPatient": [-936.58393308752, -955.38282646114, -29.821459407812],
      "ImageType": [
        "ORIGINAL",
        "PRIMARY",
        "M",
        "MB",
        "ND",
        "MOSAIC"
],
      "ImagedNucleus": "1H",
      "ImagingFrequency": 123.234513,
      "InPlanePhaseEncodingDirection": "COL",
      "MRAcquisitionType": "2D",
      "MagneticFieldStrength": 3.0,
      "Manufacturer": "SIEMENS",
      "ManufacturerModelName": "TrioTim",
      "Modality": "MR",
      "NumberOfAverages": 1.0,
      "NumberOfPhaseEncodingSteps": 91,
      "PercentPhaseFieldOfView": 100.0,
      "PercentSampling": 100.0,
      "PerformedProcedureStepStartTime": "102451.109000",
      "PhotometricInterpretation": "MONOCHROME2",
      "PixelBandwidth": 1923.0,
      "PixelRepresentation": 0,
      "PixelSpacing": [2.0, 2.0],
      "ProtocolName": "cmrr_mbep2d_bold_2mm_MB8_Task_8x",
      "RepetitionTime": 785.0,
      "Rows": 936,
      "SAR": 0.11969770658937,
      "SamplesPerPixel": 1,
      "ScanOptions": [
        "PFP",
        "FS"
],
      "ScanningSequence": "EP",
      "SequenceName": "epfid2d1_104",
      "SequenceVariant": [
        "SK",
        "SS"
],
      "SeriesDescription": "cmrr_mbep2d_bold_2mm_MB8_Task_8x",
      "SeriesNumber": 21,
      "SeriesTime": "120017.890000",
      "SliceLocation": -99.582008995307,
      "SliceThickness": 2.0,
      "SmallestImagePixelValue": 0,
      "SoftwareVersions": "syngo MR B19",
      "SpacingBetweenSlices": 1.9999999674173,
      "SpecificCharacterSet": "ISO_IR 100",
      "StudyID": "1",
      "StudyTime": "102451.062000",
      "TransmitCoilName": "Body",
      "VariableFlipAngleFlag": "N",
      "WindowCenterWidthExplanation": "Algo1",
      "dBdt": 0.0},
    "slices": {}
  },
  "time": {
    "samples": {
      "AcquisitionNumber": [1, 2, 3, 4, 5, 6, 7, 8, 9, 10, 11, 12, 13, 14, 15, 16, 17, 18, 19, 20, 21, 22, 23, 24, 25, 26, 27, 28, 29, 30, 31, 32, 33, 34, 35, 36, 37, 38, 39, 40, 41, 42, 43, 44, 45, 46, 47, 48, 49, 50, 51, 52, 53, 54, 55, 56, 57, 58, 59, 60, 61, 62, 63, 64, 65, 66, 67, 68, 69, 70, 71, 72, 73, 74, 75, 76, 77, 78, 79, 80, 81, 82, 83, 84, 85, 86, 87, 88, 89, 90, 91, 92, 93, 94, 95, 96, 97, 98, 99, 100, 101, 102, 103, 104, 105, 106, 107, 108, 109, 110, 111, 112, 113, 114, 115, 116, 117, 118, 119, 120, 121, 122, 123, 124, 125, 126, 127, 128, 129, 130, 131, 132, 133, 134, 135, 136, 137, 138, 139, 140, 141, 142, 143, 144, 145, 146, 147, 148, 149, 150, 151, 152, 153, 154, 155, 156, 157, 158, 159, 160, 161, 162, 163, 164, 165, 166, 167, 168, 169, 170, 171, 172, 173, 174, 175, 176, 177, 178, 179, 180, 181, 182, 183, 184, 185, 186, 187, 188, 189, 190, 191, 192, 193, 194, 195, 196, 197, 198, 199, 200, 201, 202, 203, 204, 205, 206, 207, 208, 209, 210, 211, 212, 213, 214, 215, 216, 217, 218, 219, 220, 221, 222, 223, 224, 225, 226, 227, 228, 229, 230, 231, 232, 233, 234, 235, 236, 237, 238, 239, 240, 241, 242, 243, 244, 245, 246, 247, 248, 249, 250, 251, 252, 253, 254, 255, 256, 257, 258, 259, 260, 261, 262, 263, 264, 265, 266, 267, 268, 269, 270, 271, 272, 273, 274, 275, 276, 277, 278, 279, 280, 281, 282, 283, 284, 285, 286, 287, 288, 289, 290, 291, 292, 293, 294, 295, 296, 297, 298, 299, 300, 301, 302, 303, 304, 305, 306, 307, 308, 309, 310, 311, 312, 313, 314, 315, 316, 317, 318, 319, 320, 321, 322, 323, 324, 325, 326, 327, 328, 329, 330, 331, 332, 333, 334, 335, 336, 337, 338, 339, 340, 341, 342, 343, 344, 345, 346, 347, 348, 349, 350, 351, 352, 353, 354, 355, 356, 357, 358, 359, 360, 361, 362, 363, 364, 365, 366, 367, 368, 369, 370, 371, 372, 373, 374, 375, 376, 377, 378, 379, 380, 381, 382, 383, 384, 385, 386, 387, 388, 389, 390, 391, 392, 393, 394, 395, 396, 397, 398, 399, 400, 401, 402, 403, 404, 405, 406, 407, 408, 409, 410, 411, 412, 413, 414, 415, 416, 417, 418, 419, 420, 421, 422, 423, 424, 425, 426, 427, 428, 429, 430, 431, 432, 433, 434, 435, 436, 437, 438, 439, 440, 441, 442, 443, 444, 445, 446, 447, 448, 449, 450, 451, 452, 453, 454, 455, 456, 457, 458, 459, 460, 461, 462, 463, 464, 465, 466, 467, 468, 469, 470, 471, 472, 473, 474, 475, 476, 477, 478, 479, 480, 481, 482, 483, 484, 485, 486, 487, 488, 489, 490, 491, 492, 493, 494, 495, 496, 497, 498, 499, 500, 501, 502, 503, 504, 505, 506, 507, 508, 509, 510, 511, 512, 513, 514, 515, 516, 517, 518, 519, 520, 521, 522, 523, 524, 525, 526, 527, 528, 529, 530, 531, 532, 533, 534, 535, 536, 537, 538, 539, 540, 541, 542, 543, 544, 545, 546, 547, 548, 549, 550, 551, 552, 553, 554, 555, 556, 557, 558, 559, 560, 561, 562, 563, 564, 565, 566, 567, 568, 569, 570, 571, 572, 573, 574, 575, 576, 577, 578, 579, 580, 581],
      "AcquisitionTime": ["115948.727500", "115949.515000", "115950.305000", "115951.092500", "115951.880000", "115952.670000", "115953.457500", "115954.245000", "115955.032500", "115955.822500", "115956.610000", "115957.397500", "115958.185000", "115958.975000", "115959.762500", "120000.550000", "120001.337500", "120002.127500", "120002.915000", "120003.702500", "120004.490000", "120005.280000", "120006.067500", "120006.855000", "120007.642500", "120008.432500", "120009.220000", "120010.007500", "120010.797500", "120011.585000", "120012.372500", "120013.160000", "120013.950000", "120014.737500", "120015.525000", "120016.312500", "120017.102500", "120017.890000", "120018.677500", "120019.465000", "120020.255000", "120021.042500", "120021.830000", "120022.617500", "120023.407500", "120024.195000", "120024.982500", "120025.772500", "120026.560000", "120027.347500", "120028.135000", "120028.925000", "120029.712500", "120030.500000", "120031.287500", "120032.077500", "120032.865000", "120033.652500", "120034.440000", "120035.230000", "120036.017500", "120036.805000", "120037.592500", "120038.382500", "120039.170000", "120039.957500", "120040.745000", "120041.535000", "120042.322500", "120043.110000", "120043.900000", "120044.687500", "120045.475000", "120046.262500", "120047.052500", "120047.840000", "120048.627500", "120049.415000", "120050.205000", "120050.992500", "120051.780000", "120052.567500", "120053.357500", "120054.145000", "120054.932500", "120055.720000", "120056.510000", "120057.297500", "120058.085000", "120058.872500", "120059.662500", "120100.450000", "120101.237500", "120102.027500", "120102.815000", "120103.602500", "120104.390000", "120105.180000", "120105.967500", "120106.755000", "120107.542500", "120108.332500", "120109.120000", "120109.907500", "120110.695000", "120111.485000", "120112.272500", "120113.060000", "120113.847500", "120114.637500", "120115.425000", "120116.212500", "120117.000000", "120117.790000", "120118.577500", "120119.365000", "120120.155000", "120120.942500", "120121.730000", "120122.517500", "120123.307500", "120124.095000", "120124.882500", "120125.670000", "120126.460000", "120127.247500", "120128.035000", "120128.822500", "120129.612500", "120130.400000", "120131.187500", "120131.975000", "120132.765000", "120133.552500", "120134.340000", "120135.127500", "120135.917500", "120136.705000", "120137.492500", "120138.282500", "120139.070000", "120139.857500", "120140.645000", "120141.435000", "120142.222500", "120143.010000", "120143.797500", "120144.587500", "120145.375000", "120146.162500", "120146.950000", "120147.740000", "120148.527500", "120149.315000", "120150.102500", "120150.892500", "120151.680000", "120152.467500", "120153.255000", "120154.045000", "120154.832500", "120155.620000", "120156.410000", "120157.197500", "120157.985000", "120158.772500", "120159.562500", "120200.350000", "120201.137500", "120201.925000", "120202.715000", "120203.502500", "120204.290000", "120205.077500", "120205.867500", "120206.655000", "120207.442500", "120208.230000", "120209.020000", "120209.807500", "120210.595000", "120211.382500", "120212.172500", "120212.960000", "120213.747500", "120214.537500", "120215.325000", "120216.112500", "120216.900000", "120217.690000", "120218.477500", "120219.265000", "120220.052500", "120220.842500", "120221.630000", "120222.417500", "120223.205000", "120223.995000", "120224.782500", "120225.570000", "120226.357500", "120227.147500", "120227.935000", "120228.722500", "120229.510000", "120230.300000", "120231.087500", "120231.875000", "120232.665000", "120233.452500", "120234.240000", "120235.027500", "120235.817500", "120236.605000", "120237.392500", "120238.180000", "120238.970000", "120239.757500", "120240.545000", "120241.332500", "120242.122500", "120242.910000", "120243.697500", "120244.485000", "120245.275000", "120246.062500", "120246.850000", "120247.637500", "120248.427500", "120249.215000", "120250.002500", "120250.792500", "120251.580000", "120252.367500", "120253.155000", "120253.945000", "120254.732500", "120255.520000", "120256.307500", "120257.097500", "120257.885000", "120258.672500", "120259.460000", "120300.250000", "120301.037500", "120301.825000", "120302.612500", "120303.402500", "120304.190000", "120304.977500", "120305.765000", "120306.555000", "120307.342500", "120308.130000", "120308.920000", "120309.707500", "120310.495000", "120311.282500", "120312.072500", "120312.860000", "120313.647500", "120314.435000", "120315.225000", "120316.012500", "120316.800000", "120317.587500", "120318.377500", "120319.165000", "120319.952500", "120320.740000", "120321.530000", "120322.317500", "120323.105000", "120323.892500", "120324.682500", "120325.470000", "120326.257500", "120327.047500", "120327.835000", "120328.622500", "120329.410000", "120330.200000", "120330.987500", "120331.775000", "120332.562500", "120333.352500", "120334.140000", "120334.927500", "120335.715000", "120336.505000", "120337.292500", "120338.080000", "120338.867500", "120339.657500", "120340.445000", "120341.232500", "120342.022500", "120342.810000", "120343.597500", "120344.385000", "120345.175000", "120345.962500", "120346.750000", "120347.537500", "120348.327500", "120349.115000", "120349.902500", "120350.690000", "120351.480000", "120352.267500", "120353.055000", "120353.842500", "120354.632500", "120355.420000", "120356.207500", "120356.995000", "120357.785000", "120358.572500", "120359.360000", "120400.150000", "120400.937500", "120401.725000", "120402.512500", "120403.302500", "120404.090000", "120404.877500", "120405.665000", "120406.455000", "120407.242500", "120408.030000", "120408.817500", "120409.607500", "120410.395000", "120411.182500", "120411.970000", "120412.760000", "120413.547500", "120414.335000", "120415.122500", "120415.912500", "120416.700000", "120417.487500", "120418.277500", "120419.065000", "120419.852500", "120420.640000", "120421.430000", "120422.217500", "120423.005000", "120423.792500", "120424.582500", "120425.370000", "120426.157500", "120426.945000", "120427.735000", "120428.522500", "120429.310000", "120430.097500", "120430.887500", "120431.675000", "120432.462500", "120433.250000", "120434.040000", "120434.827500", "120435.615000", "120436.405000", "120437.192500", "120437.980000", "120438.767500", "120439.557500", "120440.345000", "120441.132500", "120441.920000", "120442.710000", "120443.497500", "120444.285000", "120445.072500", "120445.862500", "120446.650000", "120447.437500", "120448.225000", "120449.015000", "120449.802500", "120450.590000", "120451.377500", "120452.167500", "120452.955000", "120453.742500", "120454.532500", "120455.320000", "120456.107500", "120456.895000", "120457.685000", "120458.472500", "120459.260000", "120500.047500", "120500.837500", "120501.625000", "120502.412500", "120503.200000", "120503.990000", "120504.777500", "120505.565000", "120506.352500", "120507.142500", "120507.930000", "120508.717500", "120509.505000", "120510.295000", "120511.082500", "120511.870000", "120512.660000", "120513.447500", "120514.235000", "120515.022500", "120515.812500", "120516.600000", "120517.387500", "120518.175000", "120518.965000", "120519.752500", "120520.540000", "120521.327500", "120522.117500", "120522.905000", "120523.692500", "120524.480000", "120525.270000", "120526.057500", "120526.845000", "120527.632500", "120528.422500", "120529.210000", "120529.997500", "120530.787500", "120531.575000", "120532.362500", "120533.150000", "120533.940000", "120534.727500", "120535.515000", "120536.302500", "120537.092500", "120537.880000", "120538.667500", "120539.455000", "120540.245000", "120541.032500", "120541.820000", "120542.607500", "120543.397500", "120544.185000", "120544.972500", "120545.760000", "120546.550000", "120547.337500", "120548.125000", "120548.915000", "120549.702500", "120550.490000", "120551.277500", "120552.067500", "120552.855000", "120553.642500", "120554.430000", "120555.220000", "120556.007500", "120556.795000", "120557.582500", "120558.372500", "120559.160000", "120559.947500", "120600.735000", "120601.525000", "120602.312500", "120603.100000", "120603.887500", "120604.677500", "120605.465000", "120606.252500", "120607.042500", "120607.830000", "120608.617500", "120609.405000", "120610.195000", "120610.982500", "120611.770000", "120612.557500", "120613.347500", "120614.135000", "120614.922500", "120615.710000", "120616.500000", "120617.287500", "120618.075000", "120618.862500", "120619.652500", "120620.440000", "120621.227500", "120622.015000", "120622.805000", "120623.592500", "120624.380000", "120625.170000", "120625.957500", "120626.745000", "120627.532500", "120628.322500", "120629.110000", "120629.897500", "120630.685000", "120631.475000", "120632.262500", "120633.050000", "120633.837500", "120634.627500", "120635.415000", "120636.202500", "120636.990000", "120637.780000", "120638.567500", "120639.355000", "120640.142500", "120640.932500", "120641.720000", "120642.507500", "120643.297500", "120644.085000", "120644.872500", "120645.660000", "120646.450000", "120647.237500", "120648.025000", "120648.812500", "120649.602500", "120650.390000", "120651.177500", "120651.965000", "120652.755000", "120653.542500", "120654.330000", "120655.117500", "120655.907500", "120656.695000", "120657.482500", "120658.272500", "120659.060000", "120659.847500", "120700.635000", "120701.425000", "120702.212500", "120703.000000", "120703.787500", "120704.577500", "120705.365000", "120706.152500", "120706.940000", "120707.730000", "120708.517500", "120709.305000", "120710.092500", "120710.882500", "120711.670000", "120712.457500", "120713.245000", "120714.035000", "120714.822500", "120715.610000", "120716.400000", "120717.187500", "120717.975000", "120718.762500", "120719.552500", "120720.340000", "120721.127500", "120721.915000", "120722.705000", "120723.492500", "120724.280000", "120725.067500", "120725.857500"],
      "ContentTime": ["120017.890000", "120017.890000", "120017.890000", "120017.890000", "120017.890000", "120017.890000", "120017.890000", "120017.906000", "120017.906000", "120017.906000", "120017.906000", "120017.906000", "120017.906000", "120017.906000", "120017.921000", "120017.921000", "120017.921000", "120017.921000", "120017.921000", "120017.921000", "120017.921000", "120017.921000", "120017.937000", "120017.937000", "120017.937000", "120017.937000", "120017.937000", "120017.937000", "120017.937000", "120017.953000", "120017.953000", "120017.953000", "120017.953000", "120017.953000", "120017.953000", "120037.859000", "120037.859000", "120037.859000", "120037.859000", "120037.859000", "120037.875000", "120037.875000", "120037.875000", "120037.875000", "120037.875000", "120037.875000", "120037.875000", "120037.875000", "120037.890000", "120037.890000", "120037.890000", "120037.890000", "120037.890000", "120037.906000", "120037.906000", "120037.906000", "120037.906000", "120037.906000", "120037.921000", "120037.921000", "120057.859000", "120057.859000", "120057.859000", "120057.859000", "120057.859000", "120057.875000", "120057.875000", "120057.875000", "120057.875000", "120057.875000", "120057.875000", "120057.875000", "120057.875000", "120057.890000", "120057.890000", "120057.890000", "120057.890000", "120057.890000", "120057.890000", "120057.890000", "120057.890000", "120057.906000", "120057.906000", "120057.906000", "120057.906000", "120057.906000", "120117.859000", "120117.859000", "120117.859000", "120117.859000", "120117.859000", "120117.875000", "120117.875000", "120117.875000", "120117.875000", "120117.875000", "120117.875000", "120117.875000", "120117.875000", "120117.890000", "120117.890000", "120117.890000", "120117.890000", "120117.890000", "120117.890000", "120117.890000", "120117.906000", "120117.906000", "120117.906000", "120117.906000", "120117.906000", "120137.859000", "120137.859000", "120137.859000", "120137.859000", "120137.859000", "120137.875000", "120137.875000", "120137.875000", "120137.875000", "120137.875000", "120137.875000", "120137.875000", "120137.875000", "120137.890000", "120137.890000", "120137.890000", "120137.890000", "120137.890000", "120137.890000", "120137.890000", "120137.906000", "120137.906000", "120137.906000", "120137.906000", "120137.906000", "120137.906000", "120157.859000", "120157.859000", "120157.859000", "120157.859000", "120157.859000", "120157.875000", "120157.875000", "120157.875000", "120157.875000", "120157.875000", "120157.875000", "120157.875000", "120157.875000", "120157.890000", "120157.890000", "120157.890000", "120157.890000", "120157.890000", "120157.890000", "120157.890000", "120157.906000", "120157.906000", "120157.906000", "120157.906000", "120157.906000", "120217.859000", "120217.859000", "120217.859000", "120217.859000", "120217.859000", "120217.875000", "120217.875000", "120217.875000", "120217.875000", "120217.875000", "120217.875000", "120217.875000", "120217.890000", "120217.890000", "120217.890000", "120217.890000", "120217.890000", "120217.890000", "120217.890000", "120217.890000", "120217.906000", "120217.906000", "120217.906000", "120217.906000", "120217.906000", "120217.906000", "120237.859000", "120237.859000", "120237.859000", "120237.859000", "120237.859000", "120237.875000", "120237.875000", "120237.875000", "120237.875000", "120237.875000", "120237.875000", "120237.875000", "120237.875000", "120237.890000", "120237.890000", "120237.890000", "120237.890000", "120237.890000", "120237.890000", "120237.890000", "120237.906000", "120237.906000", "120237.906000", "120237.906000", "120237.906000", "120257.859000", "120257.859000", "120257.859000", "120257.859000", "120257.859000", "120257.875000", "120257.875000", "120257.875000", "120257.875000", "120257.875000", "120257.875000", "120257.875000", "120257.875000", "120257.890000", "120257.890000", "120257.890000", "120257.890000", "120257.890000", "120257.890000", "120257.890000", "120257.906000", "120257.906000", "120257.906000", "120257.906000", "120257.906000", "120257.906000", "120317.859000", "120317.859000", "120317.859000", "120317.859000", "120317.859000", "120317.875000", "120317.875000", "120317.875000", "120317.875000", "120317.875000", "120317.875000", "120317.875000", "120317.875000", "120317.890000", "120317.890000", "120317.890000", "120317.890000", "120317.890000", "120317.890000", "120317.890000", "120317.906000", "120317.906000", "120317.906000", "120317.906000", "120317.906000", "120337.859000", "120337.859000", "120337.859000", "120337.859000", "120337.859000", "120337.875000", "120337.875000", "120337.875000", "120337.875000", "120337.875000", "120337.875000", "120337.875000", "120337.875000", "120337.890000", "120337.890000", "120337.890000", "120337.890000", "120337.890000", "120337.890000", "120337.890000", "120337.906000", "120337.906000", "120337.906000", "120337.906000", "120337.906000", "120337.906000", "120357.859000", "120357.859000", "120357.859000", "120357.859000", "120357.859000", "120357.875000", "120357.875000", "120357.875000", "120357.875000", "120357.875000", "120357.875000", "120357.875000", "120357.875000", "120357.890000", "120357.890000", "120357.890000", "120357.890000", "120357.890000", "120357.890000", "120357.890000", "120357.906000", "120357.906000", "120357.906000", "120357.906000", "120357.906000", "120417.859000", "120417.859000", "120417.859000", "120417.859000", "120417.859000", "120417.875000", "120417.875000", "120417.875000", "120417.875000", "120417.875000", "120417.875000", "120417.875000", "120417.890000", "120417.890000", "120417.890000", "120417.890000", "120417.890000", "120417.890000", "120417.890000", "120417.890000", "120417.906000", "120417.906000", "120417.906000", "120417.906000", "120417.906000", "120417.906000", "120437.859000", "120437.859000", "120437.859000", "120437.859000", "120437.859000", "120437.875000", "120437.875000", "120437.875000", "120437.875000", "120437.875000", "120437.875000", "120437.875000", "120437.875000", "120437.890000", "120437.890000", "120437.890000", "120437.890000", "120437.890000", "120437.890000", "120437.890000", "120437.906000", "120437.906000", "120437.906000", "120437.906000", "120437.906000", "120457.859000", "120457.859000", "120457.859000", "120457.859000", "120457.859000", "120457.875000", "120457.875000", "120457.875000", "120457.875000", "120457.875000", "120457.875000", "120457.875000", "120457.875000", "120457.890000", "120457.890000", "120457.890000", "120457.890000", "120457.890000", "120457.890000", "120457.890000", "120457.890000", "120457.906000", "120457.906000", "120457.906000", "120457.906000", "120457.906000", "120517.859000", "120517.859000", "120517.859000", "120517.859000", "120517.859000", "120517.875000", "120517.875000", "120517.875000", "120517.875000", "120517.875000", "120517.875000", "120517.875000", "120517.890000", "120517.890000", "120517.890000", "120517.890000", "120517.890000", "120517.890000", "120517.890000", "120517.906000", "120517.906000", "120517.906000", "120517.906000", "120517.906000", "120517.906000", "120537.859000", "120537.859000", "120537.859000", "120537.859000", "120537.859000", "120537.875000", "120537.875000", "120537.875000", "120537.875000", "120537.875000", "120537.875000", "120537.875000", "120537.890000", "120537.890000", "120537.890000", "120537.890000", "120537.890000", "120537.890000", "120537.890000", "120537.890000", "120537.906000", "120537.906000", "120537.906000", "120537.906000", "120537.906000", "120537.906000", "120557.859000", "120557.859000", "120557.859000", "120557.859000", "120557.859000", "120557.875000", "120557.875000", "120557.875000", "120557.875000", "120557.875000", "120557.875000", "120557.875000", "120557.875000", "120557.890000", "120557.890000", "120557.890000", "120557.890000", "120557.890000", "120557.890000", "120557.890000", "120557.906000", "120557.906000", "120557.906000", "120557.906000", "120557.906000", "120617.859000", "120617.859000", "120617.859000", "120617.859000", "120617.859000", "120617.875000", "120617.875000", "120617.875000", "120617.875000", "120617.875000", "120617.875000", "120617.875000", "120617.875000", "120617.890000", "120617.890000", "120617.890000", "120617.890000", "120617.890000", "120617.890000", "120617.890000", "120617.890000", "120617.906000", "120617.906000", "120617.906000", "120617.906000", "120637.859000", "120637.859000", "120637.859000", "120637.859000", "120637.859000", "120637.875000", "120637.875000", "120637.875000", "120637.875000", "120637.875000", "120637.875000", "120637.890000", "120637.890000", "120637.890000", "120637.890000", "120637.890000", "120637.890000", "120637.890000", "120637.890000", "120637.906000", "120637.906000", "120637.906000", "120637.906000", "120637.906000", "120637.906000", "120637.906000", "120657.859000", "120657.859000", "120657.859000", "120657.859000", "120657.875000", "120657.875000", "120657.875000", "120657.875000", "120657.875000", "120657.875000", "120657.875000", "120657.890000", "120657.890000", "120657.890000", "120657.890000", "120657.890000", "120657.890000", "120657.890000", "120657.890000", "120657.906000", "120657.906000", "120657.906000", "120657.906000", "120657.906000", "120657.906000", "120717.859000", "120717.859000", "120717.859000", "120717.859000", "120717.859000", "120717.875000", "120717.875000", "120717.875000", "120717.875000", "120717.875000", "120717.875000", "120717.875000", "120717.875000", "120717.890000", "120717.890000", "120717.890000", "120717.890000", "120717.890000", "120717.890000", "120717.890000", "120717.906000", "120717.906000", "120717.906000", "120717.906000", "120717.906000", "120717.906000", "120726.234000", "120726.234000", "120726.234000", "120726.250000", "120726.250000", "120726.250000", "120726.250000", "120726.250000", "120726.250000", "120726.250000", "120726.250000"],
