{
  "AcquisitionMatrixPE": 104,
  "AcquisitionNumber": 1,
  "AcquisitionTime": "11:43:38.755000",
  "BandwidthPerPixelPhaseEncode": 13.935,
  "BaseResolution": 104,
  "CoilString": "C:HEA;HEP",
  "ConversionSoftware": "dcm2niix",
  "ConversionSoftwareVersion": "v1.0.20210317",
  "DerivedVendorReportedEchoSpacing": 0.000690017,
  "DeviceSerialNumber": "35450",
  "DwellTime": 2.5e-06,
  "EchoTime": 0.0348,
  "EffectiveEchoSpacing": 0.000690017,
  "FlipAngle": 55,
  "ImageComments": "Unaliased MB8/PE3 (remote)",
  "ImageOrientationPatientDICOM": [0.999962, -0.000563132, -0.00870835, -1.16843e-08, 0.997916, -0.0645323],
  "ImageType": [
    "ORIGINAL",
    "PRIMARY",
    "M",
    "MB",
    "ND",
    "MOSAIC"
],
  "ImagingFrequency": 123.235,
  "InPlanePhaseEncodingDirectionDICOM": "COL",
  "InstitutionAddress": "Univeristy Ave. 197,Newark,North East,US,07102-1814",
  "InstitutionName": "RUBIC",
  "InstitutionalDepartmentName": "Department",
  "MRAcquisitionType": "2D",
  "MagneticFieldStrength": 3,
  "Manufacturer": "Siemens",
  "ManufacturersModelName": "TrioTim",
  "Modality": "MR",
  "MultibandAccelerationFactor": 8,
  "PartialFourier": 0.875,
  "PatientPosition": "HFS",
  "PercentPhaseFOV": 100,
  "PercentSampling": 100,
  "PhaseEncodingDirection": "j-",
  "PhaseEncodingSteps": 91,
  "PhaseResolution": 1,
  "PixelBandwidth": 1923,
  "ProcedureStepDescription": "Cole^Michael",
  "ProtocolName": "cmrr_mbep2d_bold_2mm_MB8_Task_8x",
  "PulseSequenceDetails": "%CustomerSeq%\\cmrr_mbep2d_bold",
  "ReceiveCoilName": "32Ch_Head",
  "ReconMatrixPE": 104,
  "RepetitionTime": 0.785,
  "SAR": 0.119698,
  "ScanOptions": "PFP\\FS",
  "ScanningSequence": "EP",
  "SequenceName": "epfid2d1_104",
  "SequenceVariant": "SK\\SS",
  "SeriesDescription": "cmrr_mbep2d_bold_2mm_MB8_Task_8x",
  "SeriesNumber": 17,
  "ShimSetting": [2106, -393, -7307, 618, -28, -7, 14, 84],
  "SliceThickness": 2,
  "SliceTiming": [0, 0.4375, 0.0875, 0.525, 0.175, 0.6125, 0.2625, 0.7, 0.35, 0, 0.4375, 0.0875, 0.525, 0.175, 0.6125, 0.2625, 0.7, 0.35, 0, 0.4375, 0.0875, 0.525, 0.175, 0.6125, 0.2625, 0.7, 0.35, 0, 0.4375, 0.0875, 0.525, 0.175, 0.6125, 0.2625, 0.7, 0.35, 0, 0.4375, 0.0875, 0.525, 0.175, 0.6125, 0.2625, 0.7, 0.35, 0, 0.4375, 0.0875, 0.525, 0.175, 0.6125, 0.2625, 0.7, 0.35, 0, 0.4375, 0.0875, 0.525, 0.175, 0.6125, 0.2625, 0.7, 0.35, 0, 0.4375, 0.0875, 0.525, 0.175, 0.6125, 0.2625, 0.7, 0.35],
  "SoftwareVersions": "syngo MR B19",
  "SpacingBetweenSlices": 2,
  "StationName": "MRC35450",
  "TaskName": "cpro",
  "TotalReadoutTime": 0.0710717,
  "TxRefAmp": 346.353,
  "dcmmeta_affine": [
    [-1.999923825263977, -2.3368540880142064e-08, -0.017453067004680634, 104.6156234741211],
    [0.0011262634070590138, 1.9958312511444092, -0.12905970215797424, -79.98506164550781],
    [-0.017416691407561302, 0.1290646195411682, 1.9957551956176758, -104.05133819580078],
    [0.0, 0.0, 0.0, 1.0]
],
  "dcmmeta_reorient_transform": [
    [0.0, -1.0, 0.0, 103.0],
    [1.0, 0.0, 0.0, 0.0],
    [0.0, 0.0, 1.0, 0.0],
    [0.0, 0.0, 0.0, 1.0]
],
  "dcmmeta_shape": [104, 104, 72, 581],
  "dcmmeta_slice_dim": 2,
  "dcmmeta_version": 0.6,
  "global": {
    "const": {
      "AcquisitionMatrix": [104, 0, 0, 104],
      "AngioFlag": "N",
      "BitsAllocated": 16,
      "BitsStored": 12,
      "Columns": 936,
      "EchoNumbers": 1,
      "EchoTime": 34.8,
      "EchoTrainLength": 1,
      "FlipAngle": 55.0,
      "HighBit": 11,
      "ImageOrientationPatient": [0.99996192307697, -0.0005631317143, -0.0087083453584, -1.168427e-08, 0.99791561834852, -0.0645323070724],
      "ImagePositionPatient": [-936.58393308752, -955.38282646114, -29.821459407812],
      "ImageType": [
        "ORIGINAL",
        "PRIMARY",
        "M",
        "MB",
        "ND",
        "MOSAIC"
],
      "ImagedNucleus": "1H",
      "ImagingFrequency": 123.234513,
      "InPlanePhaseEncodingDirection": "COL",
      "MRAcquisitionType": "2D",
      "MagneticFieldStrength": 3.0,
      "Manufacturer": "SIEMENS",
      "ManufacturerModelName": "TrioTim",
      "Modality": "MR",
      "NumberOfAverages": 1.0,
      "NumberOfPhaseEncodingSteps": 91,
      "PercentPhaseFieldOfView": 100.0,
      "PercentSampling": 100.0,
      "PerformedProcedureStepStartTime": "102451.109000",
      "PhotometricInterpretation": "MONOCHROME2",
      "PixelBandwidth": 1923.0,
      "PixelRepresentation": 0,
      "PixelSpacing": [2.0, 2.0],
      "ProtocolName": "cmrr_mbep2d_bold_2mm_MB8_Task_8x",
      "RepetitionTime": 785.0,
      "Rows": 936,
      "SAR": 0.11969770658937,
      "SamplesPerPixel": 1,
      "ScanOptions": [
        "PFP",
        "FS"
],
      "ScanningSequence": "EP",
      "SequenceName": "epfid2d1_104",
      "SequenceVariant": [
        "SK",
        "SS"
],
      "SeriesDescription": "cmrr_mbep2d_bold_2mm_MB8_Task_8x",
      "SeriesNumber": 17,
      "SeriesTime": "114415.703000",
      "SliceLocation": -99.582008995307,
      "SliceThickness": 2.0,
      "SmallestImagePixelValue": 0,
      "SoftwareVersions": "syngo MR B19",
      "SpacingBetweenSlices": 1.9999999674173,
      "SpecificCharacterSet": "ISO_IR 100",
      "StudyID": "1",
      "StudyTime": "102451.062000",
      "TransmitCoilName": "Body",
      "VariableFlipAngleFlag": "N",
      "WindowCenterWidthExplanation": "Algo1",
      "dBdt": 0.0},
    "slices": {}
  },
  "time": {
    "samples": {
      "AcquisitionNumber": [1, 2, 3, 4, 5, 6, 7, 8, 9, 10, 11, 12, 13, 14, 15, 16, 17, 18, 19, 20, 21, 22, 23, 24, 25, 26, 27, 28, 29, 30, 31, 32, 33, 34, 35, 36, 37, 38, 39, 40, 41, 42, 43, 44, 45, 46, 47, 48, 49, 50, 51, 52, 53, 54, 55, 56, 57, 58, 59, 60, 61, 62, 63, 64, 65, 66, 67, 68, 69, 70, 71, 72, 73, 74, 75, 76, 77, 78, 79, 80, 81, 82, 83, 84, 85, 86, 87, 88, 89, 90, 91, 92, 93, 94, 95, 96, 97, 98, 99, 100, 101, 102, 103, 104, 105, 106, 107, 108, 109, 110, 111, 112, 113, 114, 115, 116, 117, 118, 119, 120, 121, 122, 123, 124, 125, 126, 127, 128, 129, 130, 131, 132, 133, 134, 135, 136, 137, 138, 139, 140, 141, 142, 143, 144, 145, 146, 147, 148, 149, 150, 151, 152, 153, 154, 155, 156, 157, 158, 159, 160, 161, 162, 163, 164, 165, 166, 167, 168, 169, 170, 171, 172, 173, 174, 175, 176, 177, 178, 179, 180, 181, 182, 183, 184, 185, 186, 187, 188, 189, 190, 191, 192, 193, 194, 195, 196, 197, 198, 199, 200, 201, 202, 203, 204, 205, 206, 207, 208, 209, 210, 211, 212, 213, 214, 215, 216, 217, 218, 219, 220, 221, 222, 223, 224, 225, 226, 227, 228, 229, 230, 231, 232, 233, 234, 235, 236, 237, 238, 239, 240, 241, 242, 243, 244, 245, 246, 247, 248, 249, 250, 251, 252, 253, 254, 255, 256, 257, 258, 259, 260, 261, 262, 263, 264, 265, 266, 267, 268, 269, 270, 271, 272, 273, 274, 275, 276, 277, 278, 279, 280, 281, 282, 283, 284, 285, 286, 287, 288, 289, 290, 291, 292, 293, 294, 295, 296, 297, 298, 299, 300, 301, 302, 303, 304, 305, 306, 307, 308, 309, 310, 311, 312, 313, 314, 315, 316, 317, 318, 319, 320, 321, 322, 323, 324, 325, 326, 327, 328, 329, 330, 331, 332, 333, 334, 335, 336, 337, 338, 339, 340, 341, 342, 343, 344, 345, 346, 347, 348, 349, 350, 351, 352, 353, 354, 355, 356, 357, 358, 359, 360, 361, 362, 363, 364, 365, 366, 367, 368, 369, 370, 371, 372, 373, 374, 375, 376, 377, 378, 379, 380, 381, 382, 383, 384, 385, 386, 387, 388, 389, 390, 391, 392, 393, 394, 395, 396, 397, 398, 399, 400, 401, 402, 403, 404, 405, 406, 407, 408, 409, 410, 411, 412, 413, 414, 415, 416, 417, 418, 419, 420, 421, 422, 423, 424, 425, 426, 427, 428, 429, 430, 431, 432, 433, 434, 435, 436, 437, 438, 439, 440, 441, 442, 443, 444, 445, 446, 447, 448, 449, 450, 451, 452, 453, 454, 455, 456, 457, 458, 459, 460, 461, 462, 463, 464, 465, 466, 467, 468, 469, 470, 471, 472, 473, 474, 475, 476, 477, 478, 479, 480, 481, 482, 483, 484, 485, 486, 487, 488, 489, 490, 491, 492, 493, 494, 495, 496, 497, 498, 499, 500, 501, 502, 503, 504, 505, 506, 507, 508, 509, 510, 511, 512, 513, 514, 515, 516, 517, 518, 519, 520, 521, 522, 523, 524, 525, 526, 527, 528, 529, 530, 531, 532, 533, 534, 535, 536, 537, 538, 539, 540, 541, 542, 543, 544, 545, 546, 547, 548, 549, 550, 551, 552, 553, 554, 555, 556, 557, 558, 559, 560, 561, 562, 563, 564, 565, 566, 567, 568, 569, 570, 571, 572, 573, 574, 575, 576, 577, 578, 579, 580, 581],
      "AcquisitionTime": ["114338.755000", "114339.542500", "114340.330000", "114341.120000", "114341.907500", "114342.695000", "114343.485000", "114344.272500", "114345.060000", "114345.847500", "114346.637500", "114347.425000", "114348.212500", "114349.000000", "114349.790000", "114350.577500", "114351.365000", "114352.152500", "114352.942500", "114353.730000", "114354.517500", "114355.305000", "114356.095000", "114356.882500", "114357.670000", "114358.457500", "114359.247500", "114400.035000", "114400.822500", "114401.612500", "114402.400000", "114403.187500", "114403.975000", "114404.765000", "114405.552500", "114406.340000", "114407.127500", "114407.917500", "114408.705000", "114409.492500", "114410.280000", "114411.070000", "114411.857500", "114412.645000", "114413.432500", "114414.222500", "114415.010000", "114415.797500", "114416.585000", "114417.375000", "114418.162500", "114418.950000", "114419.740000", "114420.527500", "114421.315000", "114422.102500", "114422.892500", "114423.680000", "114424.467500", "114425.255000", "114426.045000", "114426.832500", "114427.620000", "114428.407500", "114429.197500", "114429.985000", "114430.772500", "114431.560000", "114432.350000", "114433.137500", "114433.925000", "114434.712500", "114435.502500", "114436.290000", "114437.077500", "114437.867500", "114438.655000", "114439.442500", "114440.230000", "114441.020000", "114441.807500", "114442.595000", "114443.382500", "114444.172500", "114444.960000", "114445.747500", "114446.535000", "114447.325000", "114448.112500", "114448.900000", "114449.687500", "114450.477500", "114451.265000", "114452.052500", "114452.840000", "114453.630000", "114454.417500", "114455.205000", "114455.995000", "114456.782500", "114457.570000", "114458.357500", "114459.147500", "114459.935000", "114500.722500", "114501.510000", "114502.300000", "114503.087500", "114503.875000", "114504.662500", "114505.452500", "114506.240000", "114507.027500", "114507.815000", "114508.605000", "114509.392500", "114510.180000", "114510.967500", "114511.757500", "114512.545000", "114513.332500", "114514.122500", "114514.910000", "114515.697500", "114516.485000", "114517.275000", "114518.062500", "114518.850000", "114519.637500", "114520.427500", "114521.215000", "114522.002500", "114522.790000", "114523.580000", "114524.367500", "114525.155000", "114525.942500", "114526.732500", "114527.520000", "114528.307500", "114529.097500", "114529.885000", "114530.672500", "114531.460000", "114532.250000", "114533.037500", "114533.825000", "114534.612500", "114535.402500", "114536.190000", "114536.977500", "114537.765000", "114538.555000", "114539.342500", "114540.130000", "114540.917500", "114541.707500", "114542.495000", "114543.282500", "114544.070000", "114544.860000", "114545.647500", "114546.435000", "114547.225000", "114548.012500", "114548.800000", "114549.587500", "114550.377500", "114551.165000", "114551.952500", "114552.740000", "114553.530000", "114554.317500", "114555.105000", "114555.892500", "114556.682500", "114557.470000", "114558.257500", "114559.045000", "114559.835000", "114600.622500", "114601.410000", "114602.197500", "114602.987500", "114603.775000", "114604.562500", "114605.352500", "114606.140000", "114606.927500", "114607.715000", "114608.505000", "114609.292500", "114610.080000", "114610.867500", "114611.657500", "114612.445000", "114613.232500", "114614.020000", "114614.810000", "114615.597500", "114616.385000", "114617.172500", "114617.962500", "114618.750000", "114619.537500", "114620.325000", "114621.115000", "114621.902500", "114622.690000", "114623.480000", "114624.267500", "114625.055000", "114625.842500", "114626.632500", "114627.420000", "114628.207500", "114628.995000", "114629.785000", "114630.572500", "114631.360000", "114632.147500", "114632.937500", "114633.725000", "114634.512500", "114635.300000", "114636.090000", "114636.877500", "114637.665000", "114638.452500", "114639.242500", "114640.030000", "114640.817500", "114641.607500", "114642.395000", "114643.182500", "114643.970000", "114644.760000", "114645.547500", "114646.335000", "114647.122500", "114647.912500", "114648.700000", "114649.487500", "114650.275000", "114651.065000", "114651.852500", "114652.640000", "114653.427500", "114654.217500", "114655.005000", "114655.792500", "114656.580000", "114657.370000", "114658.157500", "114658.945000", "114659.735000", "114700.522500", "114701.310000", "114702.097500", "114702.887500", "114703.675000", "114704.462500", "114705.250000", "114706.040000", "114706.827500", "114707.615000", "114708.402500", "114709.192500", "114709.980000", "114710.767500", "114711.555000", "114712.345000", "114713.132500", "114713.920000", "114714.707500", "114715.497500", "114716.285000", "114717.072500", "114717.862500", "114718.650000", "114719.437500", "114720.225000", "114721.015000", "114721.802500", "114722.590000", "114723.377500", "114724.167500", "114724.955000", "114725.742500", "114726.530000", "114727.320000", "114728.107500", "114728.895000", "114729.682500", "114730.472500", "114731.260000", "114732.047500", "114732.835000", "114733.625000", "114734.412500", "114735.200000", "114735.990000", "114736.777500", "114737.565000", "114738.352500", "114739.142500", "114739.930000", "114740.717500", "114741.505000", "114742.295000", "114743.082500", "114743.870000", "114744.657500", "114745.447500", "114746.235000", "114747.022500", "114747.810000", "114748.600000", "114749.387500", "114750.175000", "114750.962500", "114751.752500", "114752.540000", "114753.327500", "114754.117500", "114754.905000", "114755.692500", "114756.480000", "114757.270000", "114758.057500", "114758.845000", "114759.632500", "114800.422500", "114801.210000", "114801.997500", "114802.785000", "114803.575000", "114804.362500", "114805.150000", "114805.937500", "114806.727500", "114807.515000", "114808.302500", "114809.090000", "114809.880000", "114810.667500", "114811.455000", "114812.245000", "114813.032500", "114813.820000", "114814.607500", "114815.397500", "114816.185000", "114816.972500", "114817.760000", "114818.550000", "114819.337500", "114820.125000", "114820.912500", "114821.702500", "114822.490000", "114823.277500", "114824.065000", "114824.855000", "114825.642500", "114826.430000", "114827.217500", "114828.007500", "114828.795000", "114829.582500", "114830.372500", "114831.160000", "114831.947500", "114832.735000", "114833.525000", "114834.312500", "114835.100000", "114835.887500", "114836.677500", "114837.465000", "114838.252500", "114839.040000", "114839.830000", "114840.617500", "114841.405000", "114842.192500", "114842.982500", "114843.770000", "114844.557500", "114845.347500", "114846.135000", "114846.922500", "114847.710000", "114848.500000", "114849.287500", "114850.075000", "114850.862500", "114851.652500", "114852.440000", "114853.227500", "114854.015000", "114854.805000", "114855.592500", "114856.380000", "114857.167500", "114857.957500", "114858.745000", "114859.532500", "114900.320000", "114901.110000", "114901.897500", "114902.685000", "114903.475000", "114904.262500", "114905.050000", "114905.837500", "114906.627500", "114907.415000", "114908.202500", "114908.990000", "114909.780000", "114910.567500", "114911.355000", "114912.142500", "114912.932500", "114913.720000", "114914.507500", "114915.295000", "114916.085000", "114916.872500", "114917.660000", "114918.447500", "114919.237500", "114920.025000", "114920.812500", "114921.602500", "114922.390000", "114923.177500", "114923.965000", "114924.755000", "114925.542500", "114926.330000", "114927.117500", "114927.907500", "114928.695000", "114929.482500", "114930.270000", "114931.060000", "114931.847500", "114932.635000", "114933.422500", "114934.212500", "114935.000000", "114935.787500", "114936.575000", "114937.365000", "114938.152500", "114938.940000", "114939.730000", "114940.517500", "114941.305000", "114942.092500", "114942.882500", "114943.670000", "114944.457500", "114945.245000", "114946.035000", "114946.822500", "114947.610000", "114948.397500", "114949.187500", "114949.975000", "114950.762500", "114951.550000", "114952.340000", "114953.127500", "114953.915000", "114954.702500", "114955.492500", "114956.280000", "114957.067500", "114957.857500", "114958.645000", "114959.432500", "115000.220000", "115001.010000", "115001.797500", "115002.585000", "115003.372500", "115004.162500", "115004.950000", "115005.737500", "115006.525000", "115007.315000", "115008.102500", "115008.890000", "115009.677500", "115010.467500", "115011.255000", "115012.042500", "115012.830000", "115013.620000", "115014.407500", "115015.195000", "115015.985000", "115016.772500", "115017.560000", "115018.347500", "115019.137500", "115019.925000", "115020.712500", "115021.500000", "115022.290000", "115023.077500", "115023.865000", "115024.652500", "115025.442500", "115026.230000", "115027.017500", "115027.805000", "115028.595000", "115029.382500", "115030.170000", "115030.957500", "115031.747500", "115032.535000", "115033.322500", "115034.112500", "115034.900000", "115035.687500", "115036.475000", "115037.265000", "115038.052500", "115038.840000", "115039.627500", "115040.417500", "115041.205000", "115041.992500", "115042.780000", "115043.570000", "115044.357500", "115045.145000", "115045.932500", "115046.722500", "115047.510000", "115048.297500", "115049.085000", "115049.875000", "115050.662500", "115051.450000", "115052.240000", "115053.027500", "115053.815000", "115054.602500", "115055.392500", "115056.180000", "115056.967500", "115057.755000", "115058.545000", "115059.332500", "115100.120000", "115100.907500", "115101.697500", "115102.485000", "115103.272500", "115104.060000", "115104.850000", "115105.637500", "115106.425000", "115107.212500", "115108.002500", "115108.790000", "115109.577500", "115110.367500", "115111.155000", "115111.942500", "115112.730000", "115113.520000", "115114.307500", "115115.095000", "115115.882500"],
      "ContentTime": ["114415.703000", "114415.703000", "114415.718000", "114415.718000", "114415.718000", "114415.718000", "114415.718000", "114415.718000", "114415.718000", "114415.718000", "114415.734000", "114415.734000", "114415.734000", "114415.734000", "114415.734000", "114415.734000", "114415.734000", "114415.734000", "114415.750000", "114415.750000", "114415.750000", "114415.750000", "114415.750000", "114415.750000", "114415.750000", "114415.765000", "114415.765000", "114415.765000", "114415.765000", "114415.765000", "114415.765000", "114415.765000", "114415.765000", "114415.781000", "114415.781000", "114415.781000", "114415.781000", "114415.781000", "114415.781000", "114415.781000", "114415.781000", "114415.796000", "114415.796000", "114415.796000", "114415.796000", "114435.687000", "114435.687000", "114435.687000", "114435.687000", "114435.687000", "114435.703000", "114435.703000", "114435.703000", "114435.703000", "114435.703000", "114435.703000", "114435.703000", "114435.703000", "114435.718000", "114435.718000", "114435.718000", "114435.718000", "114435.718000", "114435.718000", "114435.718000", "114435.718000", "114435.734000", "114435.734000", "114435.734000", "114435.734000", "114455.687000", "114455.687000", "114455.687000", "114455.687000", "114455.687000", "114455.703000", "114455.703000", "114455.703000", "114455.703000", "114455.703000", "114455.703000", "114455.703000", "114455.703000", "114455.718000", "114455.718000", "114455.718000", "114455.718000", "114455.718000", "114455.718000", "114455.718000", "114455.734000", "114455.734000", "114455.734000", "114455.734000", "114455.734000", "114455.734000", "114515.687000", "114515.687000", "114515.687000", "114515.687000", "114515.687000", "114515.703000", "114515.703000", "114515.703000", "114515.703000", "114515.703000", "114515.703000", "114515.703000", "114515.703000", "114515.718000", "114515.718000", "114515.718000", "114515.718000", "114515.718000", "114515.718000", "114515.718000", "114515.734000", "114515.734000", "114515.734000", "114515.734000", "114515.734000", "114535.687000", "114535.687000", "114535.687000", "114535.687000", "114535.687000", "114535.703000", "114535.703000", "114535.703000", "114535.703000", "114535.703000", "114535.703000", "114535.703000", "114535.703000", "114535.718000", "114535.718000", "114535.718000", "114535.718000", "114535.718000", "114535.718000", "114535.718000", "114535.734000", "114535.734000", "114535.734000", "114535.734000", "114535.734000", "114535.734000", "114555.687000", "114555.687000", "114555.687000", "114555.687000", "114555.687000", "114555.703000", "114555.703000", "114555.703000", "114555.703000", "114555.703000", "114555.703000", "114555.703000", "114555.703000", "114555.718000", "114555.718000", "114555.718000", "114555.718000", "114555.718000", "114555.718000", "114555.718000", "114555.718000", "114555.734000", "114555.734000", "114555.734000", "114555.734000", "114615.687000", "114615.687000", "114615.687000", "114615.687000", "114615.687000", "114615.703000", "114615.703000", "114615.703000", "114615.703000", "114615.703000", "114615.703000", "114615.703000", "114615.703000", "114615.718000", "114615.718000", "114615.718000", "114615.718000", "114615.718000", "114615.718000", "114615.718000", "114615.734000", "114615.734000", "114615.734000", "114615.734000", "114615.734000", "114615.734000", "114635.687000", "114635.687000", "114635.687000", "114635.687000", "114635.687000", "114635.703000", "114635.703000", "114635.703000", "114635.703000", "114635.703000", "114635.703000", "114635.703000", "114635.703000", "114635.718000", "114635.718000", "114635.718000", "114635.718000", "114635.718000", "114635.718000", "114635.718000", "114635.734000", "114635.734000", "114635.734000", "114635.734000", "114635.734000", "114655.687000", "114655.687000", "114655.687000", "114655.687000", "114655.687000", "114655.703000", "114655.703000", "114655.703000", "114655.703000", "114655.703000", "114655.703000", "114655.703000", "114655.703000", "114655.718000", "114655.718000", "114655.718000", "114655.718000", "114655.718000", "114655.718000", "114655.718000", "114655.718000", "114655.734000", "114655.734000", "114655.734000", "114655.734000", "114655.734000", "114715.687000", "114715.687000", "114715.687000", "114715.687000", "114715.687000", "114715.703000", "114715.703000", "114715.703000", "114715.703000", "114715.703000", "114715.703000", "114715.703000", "114715.718000", "114715.718000", "114715.718000", "114715.718000", "114715.718000", "114715.718000", "114715.718000", "114715.718000", "114715.734000", "114715.734000", "114715.734000", "114715.734000", "114715.734000", "114735.687000", "114735.687000", "114735.687000", "114735.687000", "114735.687000", "114735.703000", "114735.703000", "114735.703000", "114735.703000", "114735.703000", "114735.703000", "114735.703000", "114735.703000", "114735.718000", "114735.718000", "114735.718000", "114735.718000", "114735.718000", "114735.718000", "114735.718000", "114735.734000", "114735.734000", "114735.734000", "114735.734000", "114735.734000", "114735.734000", "114755.687000", "114755.687000", "114755.687000", "114755.687000", "114755.687000", "114755.703000", "114755.703000", "114755.703000", "114755.703000", "114755.703000", "114755.703000", "114755.703000", "114755.718000", "114755.718000", "114755.718000", "114755.718000", "114755.718000", "114755.718000", "114755.718000", "114755.718000", "114755.734000", "114755.734000", "114755.734000", "114755.734000", "114755.734000", "114815.687000", "114815.687000", "114815.687000", "114815.687000", "114815.687000", "114815.703000", "114815.703000", "114815.703000", "114815.703000", "114815.703000", "114815.703000", "114815.703000", "114815.718000", "114815.718000", "114815.718000", "114815.718000", "114815.718000", "114815.718000", "114815.718000", "114815.718000", "114815.734000", "114815.734000", "114815.734000", "114815.734000", "114815.734000", "114815.734000", "114835.687000", "114835.687000", "114835.687000", "114835.687000", "114835.687000", "114835.703000", "114835.703000", "114835.703000", "114835.703000", "114835.703000", "114835.703000", "114835.703000", "114835.703000", "114835.718000", "114835.718000", "114835.718000", "114835.718000", "114835.718000", "114835.718000", "114835.718000", "114835.734000", "114835.734000", "114835.734000", "114835.734000", "114835.734000", "114855.687000", "114855.687000", "114855.687000", "114855.687000", "114855.687000", "114855.703000", "114855.703000", "114855.703000", "114855.703000", "114855.703000", "114855.703000", "114855.703000", "114855.703000", "114855.718000", "114855.718000", "114855.718000", "114855.718000", "114855.734000", "114855.734000", "114855.734000", "114855.734000", "114855.734000", "114855.734000", "114855.734000", "114855.750000", "114855.750000", "114915.687000", "114915.687000", "114915.687000", "114915.687000", "114915.687000", "114915.703000", "114915.703000", "114915.703000", "114915.703000", "114915.703000", "114915.703000", "114915.703000", "114915.703000", "114915.718000", "114915.718000", "114915.718000", "114915.718000", "114915.718000", "114915.718000", "114915.718000", "114915.718000", "114915.734000", "114915.734000", "114915.734000", "114915.734000", "114935.687000", "114935.687000", "114935.687000", "114935.687000", "114935.687000", "114935.703000", "114935.703000", "114935.703000", "114935.703000", "114935.703000", "114935.718000", "114935.718000", "114935.718000", "114935.718000", "114935.718000", "114935.718000", "114935.718000", "114935.718000", "114935.734000", "114935.734000", "114935.734000", "114935.734000", "114935.734000", "114935.734000", "114935.734000", "114955.687000", "114955.687000", "114955.687000", "114955.687000", "114955.687000", "114955.703000", "114955.703000", "114955.703000", "114955.703000", "114955.703000", "114955.703000", "114955.703000", "114955.703000", "114955.718000", "114955.718000", "114955.718000", "114955.718000", "114955.718000", "114955.718000", "114955.718000", "114955.734000", "114955.734000", "114955.734000", "114955.734000", "114955.734000", "114955.734000", "115015.687000", "115015.687000", "115015.687000", "115015.687000", "115015.687000", "115015.703000", "115015.703000", "115015.703000", "115015.703000", "115015.703000", "115015.703000", "115015.703000", "115015.703000", "115015.718000", "115015.718000", "115015.718000", "115015.718000", "115015.718000", "115015.718000", "115015.718000", "115015.718000", "115015.734000", "115015.734000", "115015.734000", "115015.734000", "115035.687000", "115035.687000", "115035.687000", "115035.687000", "115035.687000", "115035.703000", "115035.703000", "115035.703000", "115035.703000", "115035.703000", "115035.703000", "115035.703000", "115035.703000", "115035.718000", "115035.718000", "115035.718000", "115035.718000", "115035.718000", "115035.718000", "115035.718000", "115035.734000", "115035.734000", "115035.734000", "115035.734000", "115035.734000", "115035.734000", "115055.687000", "115055.687000", "115055.687000", "115055.687000", "115055.687000", "115055.703000", "115055.703000", "115055.703000", "115055.703000", "115055.703000", "115055.703000", "115055.703000", "115055.718000", "115055.718000", "115055.718000", "115055.718000", "115055.718000", "115055.718000", "115055.718000", "115055.718000", "115055.734000", "115055.734000", "115055.734000", "115055.734000", "115055.734000", "115115.687000", "115115.687000", "115115.687000", "115115.687000", "115115.687000", "115115.703000", "115115.703000", "115115.703000", "115115.703000", "115115.703000", "115115.703000", "115115.703000", "115115.703000", "115115.718000", "115115.718000", "115115.718000", "115115.718000", "115115.718000", "115115.718000", "115115.718000", "115115.734000", "115115.734000", "115115.734000", "115115.734000", "115115.734000", "115115.734000", "115116.203000"],
