{
  "AcquisitionMatrixPE": 104,
  "AcquisitionNumber": 1,
  "AcquisitionTime": "16:34:49.740000",
  "BandwidthPerPixelPhaseEncode": 13.935,
  "BaseResolution": 104,
  "CoilString": "C:HEA;HEP",
  "ConversionSoftware": "dcm2niix",
  "ConversionSoftwareVersion": "v1.0.20210317",
  "DerivedVendorReportedEchoSpacing": 0.000690017,
  "DeviceSerialNumber": "35450",
  "DwellTime": 2.5e-06,
  "EchoTime": 0.0348,
  "EffectiveEchoSpacing": 0.000690017,
  "FlipAngle": 55,
  "ImageComments": "Unaliased MB8/PE3",
  "ImageOrientationPatientDICOM": [1, 0, 0, 0, 0.977783, -0.209619],
  "ImageType": [
    "ORIGINAL",
    "PRIMARY",
    "M",
    "MB",
    "ND",
    "MOSAIC"
],
  "ImagingFrequency": 123.235,
  "InPlanePhaseEncodingDirectionDICOM": "COL",
  "InstitutionAddress": "Univeristy Ave. 197,Newark,North East,US,07102-1814",
  "InstitutionName": "RUBIC",
  "InstitutionalDepartmentName": "Department",
  "MRAcquisitionType": "2D",
  "MagneticFieldStrength": 3,
  "Manufacturer": "Siemens",
  "ManufacturersModelName": "TrioTim",
  "Modality": "MR",
  "MultibandAccelerationFactor": 8,
  "PartialFourier": 0.875,
  "PatientPosition": "HFS",
  "PercentPhaseFOV": 100,
  "PercentSampling": 100,
  "PhaseEncodingDirection": "j-",
  "PhaseEncodingSteps": 91,
  "PhaseResolution": 1,
  "PixelBandwidth": 1923,
  "ProcedureStepDescription": "Cole^Michael",
  "ProtocolName": "cmrr_mbep2d_bold_2mm_MB8_Task_8x",
  "PulseSequenceDetails": "%CustomerSeq%\\cmrr_mbep2d_bold",
  "ReceiveCoilName": "32Ch_Head",
  "ReconMatrixPE": 104,
  "RepetitionTime": 0.785,
  "SAR": 0.133822,
  "ScanOptions": "PFP\\FS",
  "ScanningSequence": "EP",
  "SequenceName": "epfid2d1_104",
  "SequenceVariant": "SK\\SS",
  "SeriesDescription": "cmrr_mbep2d_bold_2mm_MB8_Task_8x",
  "SeriesNumber": 27,
  "ShimSetting": [2130, -328, -7257, 503, 37, -427, -91, 18],
  "SliceThickness": 2,
  "SliceTiming": [0, 0.4375, 0.0875, 0.525, 0.175, 0.6125, 0.2625, 0.7, 0.35, 0, 0.4375, 0.0875, 0.525, 0.175, 0.6125, 0.2625, 0.7, 0.35, 0, 0.4375, 0.0875, 0.525, 0.175, 0.6125, 0.2625, 0.7, 0.35, 0, 0.4375, 0.0875, 0.525, 0.175, 0.6125, 0.2625, 0.7, 0.35, 0, 0.4375, 0.0875, 0.525, 0.175, 0.6125, 0.2625, 0.7, 0.35, 0, 0.4375, 0.0875, 0.525, 0.175, 0.6125, 0.2625, 0.7, 0.35, 0, 0.4375, 0.0875, 0.525, 0.175, 0.6125, 0.2625, 0.7, 0.35, 0, 0.4375, 0.0875, 0.525, 0.175, 0.6125, 0.2625, 0.7, 0.35],
  "SoftwareVersions": "syngo MR B19",
  "SpacingBetweenSlices": 2,
  "StationName": "MRC35450",
  "TaskName": "cpro",
  "TotalReadoutTime": 0.0710717,
  "TxRefAmp": 338.566,
  "dcmmeta_affine": [
    [-2.0, 0.0, 0.0, 102.6440658569336],
    [0.0, 1.9555665254592896, -0.4192371368408203, -74.48454284667969],
    [0.0, 0.4192371368408203, 1.95556640625, -110.92923736572266],
    [0.0, 0.0, 0.0, 1.0]
],
  "dcmmeta_reorient_transform": [
    [0.0, -1.0, 0.0, 103.0],
    [1.0, 0.0, 0.0, 0.0],
    [0.0, 0.0, 1.0, 0.0],
    [0.0, 0.0, 0.0, 1.0]
],
  "dcmmeta_shape": [104, 104, 72, 581],
  "dcmmeta_slice_dim": 2,
  "dcmmeta_version": 0.6,
  "global": {
    "const": {
      "AcquisitionMatrix": [104, 0, 0, 104],
      "AngioFlag": "N",
      "BitsAllocated": 16,
      "BitsStored": 12,
      "Columns": 936,
      "EchoNumbers": 1,
      "EchoTime": 34.8,
      "EchoTrainLength": 1,
      "FlipAngle": 55.0,
      "HighBit": 11,
      "ImageOrientationPatient": [1.0, 0.0, 0.0, 0.0, 0.97778323558311, -0.2096185683871],
      "ImagePositionPatient": [-934.64406776428, -940.45445237786, 106.65483853079],
      "ImageType": [
        "ORIGINAL",
        "PRIMARY",
        "M",
        "MB",
        "ND",
        "MOSAIC"
],
      "ImagedNucleus": "1H",
      "ImagingFrequency": 123.23451,
      "InPlanePhaseEncodingDirection": "COL",
      "MRAcquisitionType": "2D",
      "MagneticFieldStrength": 3.0,
      "Manufacturer": "SIEMENS",
      "ManufacturerModelName": "TrioTim",
      "Modality": "MR",
      "NumberOfAverages": 1.0,
      "NumberOfPhaseEncodingSteps": 91,
      "PercentPhaseFieldOfView": 100.0,
      "PercentSampling": 100.0,
      "PerformedProcedureStepStartTime": "145144.000000",
      "PhotometricInterpretation": "MONOCHROME2",
      "PixelBandwidth": 1923.0,
      "PixelRepresentation": 0,
      "PixelSpacing": [2.0, 2.0],
      "ProtocolName": "cmrr_mbep2d_bold_2mm_MB8_Task_8x",
      "RepetitionTime": 785.0,
      "Rows": 936,
      "SAR": 0.13382157815659,
      "SamplesPerPixel": 1,
      "ScanOptions": [
        "PFP",
        "FS"
],
      "ScanningSequence": "EP",
      "SequenceName": "epfid2d1_104",
      "SequenceVariant": [
        "SK",
        "SS"
],
      "SeriesDescription": "cmrr_mbep2d_bold_2mm_MB8_Task_8x",
      "SeriesNumber": 27,
      "SeriesTime": "180820.750000",
      "SliceLocation": -92.851402831447,
      "SliceThickness": 2.0,
      "SmallestImagePixelValue": 0,
      "SoftwareVersions": "syngo MR B19",
      "SpacingBetweenSlices": 1.9999999862589,
      "SpecificCharacterSet": "ISO_IR 100",
      "StudyID": "1",
      "StudyTime": "145143.968000",
      "TransmitCoilName": "Body",
      "VariableFlipAngleFlag": "N",
      "WindowCenterWidthExplanation": "Algo1",
      "dBdt": 0.0},
    "slices": {}
  },
  "time": {
    "samples": {
      "AcquisitionNumber": [1, 2, 3, 4, 5, 6, 7, 8, 9, 10, 11, 12, 13, 14, 15, 16, 17, 18, 19, 20, 21, 22, 23, 24, 25, 26, 27, 28, 29, 30, 31, 32, 33, 34, 35, 36, 37, 38, 39, 40, 41, 42, 43, 44, 45, 46, 47, 48, 49, 50, 51, 52, 53, 54, 55, 56, 57, 58, 59, 60, 61, 62, 63, 64, 65, 66, 67, 68, 69, 70, 71, 72, 73, 74, 75, 76, 77, 78, 79, 80, 81, 82, 83, 84, 85, 86, 87, 88, 89, 90, 91, 92, 93, 94, 95, 96, 97, 98, 99, 100, 101, 102, 103, 104, 105, 106, 107, 108, 109, 110, 111, 112, 113, 114, 115, 116, 117, 118, 119, 120, 121, 122, 123, 124, 125, 126, 127, 128, 129, 130, 131, 132, 133, 134, 135, 136, 137, 138, 139, 140, 141, 142, 143, 144, 145, 146, 147, 148, 149, 150, 151, 152, 153, 154, 155, 156, 157, 158, 159, 160, 161, 162, 163, 164, 165, 166, 167, 168, 169, 170, 171, 172, 173, 174, 175, 176, 177, 178, 179, 180, 181, 182, 183, 184, 185, 186, 187, 188, 189, 190, 191, 192, 193, 194, 195, 196, 197, 198, 199, 200, 201, 202, 203, 204, 205, 206, 207, 208, 209, 210, 211, 212, 213, 214, 215, 216, 217, 218, 219, 220, 221, 222, 223, 224, 225, 226, 227, 228, 229, 230, 231, 232, 233, 234, 235, 236, 237, 238, 239, 240, 241, 242, 243, 244, 245, 246, 247, 248, 249, 250, 251, 252, 253, 254, 255, 256, 257, 258, 259, 260, 261, 262, 263, 264, 265, 266, 267, 268, 269, 270, 271, 272, 273, 274, 275, 276, 277, 278, 279, 280, 281, 282, 283, 284, 285, 286, 287, 288, 289, 290, 291, 292, 293, 294, 295, 296, 297, 298, 299, 300, 301, 302, 303, 304, 305, 306, 307, 308, 309, 310, 311, 312, 313, 314, 315, 316, 317, 318, 319, 320, 321, 322, 323, 324, 325, 326, 327, 328, 329, 330, 331, 332, 333, 334, 335, 336, 337, 338, 339, 340, 341, 342, 343, 344, 345, 346, 347, 348, 349, 350, 351, 352, 353, 354, 355, 356, 357, 358, 359, 360, 361, 362, 363, 364, 365, 366, 367, 368, 369, 370, 371, 372, 373, 374, 375, 376, 377, 378, 379, 380, 381, 382, 383, 384, 385, 386, 387, 388, 389, 390, 391, 392, 393, 394, 395, 396, 397, 398, 399, 400, 401, 402, 403, 404, 405, 406, 407, 408, 409, 410, 411, 412, 413, 414, 415, 416, 417, 418, 419, 420, 421, 422, 423, 424, 425, 426, 427, 428, 429, 430, 431, 432, 433, 434, 435, 436, 437, 438, 439, 440, 441, 442, 443, 444, 445, 446, 447, 448, 449, 450, 451, 452, 453, 454, 455, 456, 457, 458, 459, 460, 461, 462, 463, 464, 465, 466, 467, 468, 469, 470, 471, 472, 473, 474, 475, 476, 477, 478, 479, 480, 481, 482, 483, 484, 485, 486, 487, 488, 489, 490, 491, 492, 493, 494, 495, 496, 497, 498, 499, 500, 501, 502, 503, 504, 505, 506, 507, 508, 509, 510, 511, 512, 513, 514, 515, 516, 517, 518, 519, 520, 521, 522, 523, 524, 525, 526, 527, 528, 529, 530, 531, 532, 533, 534, 535, 536, 537, 538, 539, 540, 541, 542, 543, 544, 545, 546, 547, 548, 549, 550, 551, 552, 553, 554, 555, 556, 557, 558, 559, 560, 561, 562, 563, 564, 565, 566, 567, 568, 569, 570, 571, 572, 573, 574, 575, 576, 577, 578, 579, 580, 581],
      "AcquisitionTime": ["163449.740000", "163450.527500", "163451.317500", "163452.105000", "163452.892500", "163453.680000", "163454.470000", "163455.257500", "163456.045000", "163456.835000", "163457.622500", "163458.410000", "163459.197500", "163459.987500", "163500.775000", "163501.562500", "163502.350000", "163503.140000", "163503.927500", "163504.715000", "163505.502500", "163506.292500", "163507.080000", "163507.867500", "163508.655000", "163509.445000", "163510.232500", "163511.020000", "163511.807500", "163512.597500", "163513.385000", "163514.172500", "163514.962500", "163515.750000", "163516.537500", "163517.325000", "163518.115000", "163518.902500", "163519.690000", "163520.477500", "163521.267500", "163522.055000", "163522.842500", "163523.630000", "163524.420000", "163525.207500", "163525.995000", "163526.782500", "163527.572500", "163528.360000", "163529.147500", "163529.937500", "163530.725000", "163531.512500", "163532.300000", "163533.090000", "163533.877500", "163534.665000", "163535.452500", "163536.242500", "163537.030000", "163537.817500", "163538.605000", "163539.395000", "163540.182500", "163540.970000", "163541.757500", "163542.547500", "163543.335000", "163544.122500", "163544.910000", "163545.700000", "163546.487500", "163547.275000", "163548.065000", "163548.852500", "163549.640000", "163550.427500", "163551.217500", "163552.005000", "163552.792500", "163553.580000", "163554.370000", "163555.157500", "163555.945000", "163556.732500", "163557.522500", "163558.310000", "163559.097500", "163559.885000", "163600.675000", "163601.462500", "163602.250000", "163603.037500", "163603.827500", "163604.615000", "163605.402500", "163606.192500", "163606.980000", "163607.767500", "163608.555000", "163609.345000", "163610.132500", "163610.920000", "163611.707500", "163612.497500", "163613.285000", "163614.072500", "163614.860000", "163615.650000", "163616.437500", "163617.225000", "163618.012500", "163618.802500", "163619.590000", "163620.377500", "163621.165000", "163621.955000", "163622.742500", "163623.530000", "163624.320000", "163625.107500", "163625.895000", "163626.682500", "163627.472500", "163628.260000", "163629.047500", "163629.835000", "163630.625000", "163631.412500", "163632.200000", "163632.987500", "163633.777500", "163634.565000", "163635.352500", "163636.140000", "163636.930000", "163637.717500", "163638.505000", "163639.292500", "163640.082500", "163640.870000", "163641.657500", "163642.447500", "163643.235000", "163644.022500", "163644.810000", "163645.600000", "163646.387500", "163647.175000", "163647.962500", "163648.752500", "163649.540000", "163650.327500", "163651.115000", "163651.905000", "163652.692500", "163653.480000", "163654.267500", "163655.057500", "163655.845000", "163656.632500", "163657.420000", "163658.210000", "163658.997500", "163659.785000", "163700.575000", "163701.362500", "163702.150000", "163702.937500", "163703.727500", "163704.515000", "163705.302500", "163706.090000", "163706.880000", "163707.667500", "163708.455000", "163709.242500", "163710.032500", "163710.820000", "163711.607500", "163712.395000", "163713.185000", "163713.972500", "163714.760000", "163715.547500", "163716.337500", "163717.125000", "163717.912500", "163718.702500", "163719.490000", "163720.277500", "163721.065000", "163721.855000", "163722.642500", "163723.430000", "163724.217500", "163725.007500", "163725.795000", "163726.582500", "163727.370000", "163728.160000", "163728.947500", "163729.735000", "163730.522500", "163731.312500", "163732.100000", "163732.887500", "163733.675000", "163734.465000", "163735.252500", "163736.040000", "163736.830000", "163737.617500", "163738.405000", "163739.192500", "163739.982500", "163740.770000", "163741.557500", "163742.345000", "163743.135000", "163743.922500", "163744.710000", "163745.497500", "163746.287500", "163747.075000", "163747.862500", "163748.650000", "163749.440000", "163750.227500", "163751.015000", "163751.802500", "163752.592500", "163753.380000", "163754.167500", "163754.957500", "163755.745000", "163756.532500", "163757.320000", "163758.110000", "163758.897500", "163759.685000", "163800.472500", "163801.262500", "163802.050000", "163802.837500", "163803.625000", "163804.415000", "163805.202500", "163805.990000", "163806.777500", "163807.567500", "163808.355000", "163809.142500", "163809.930000", "163810.720000", "163811.507500", "163812.295000", "163813.085000", "163813.872500", "163814.660000", "163815.447500", "163816.237500", "163817.025000", "163817.812500", "163818.600000", "163819.390000", "163820.177500", "163820.965000", "163821.752500", "163822.542500", "163823.330000", "163824.117500", "163824.905000", "163825.695000", "163826.482500", "163827.270000", "163828.057500", "163828.847500", "163829.635000", "163830.422500", "163831.212500", "163832.000000", "163832.787500", "163833.575000", "163834.365000", "163835.152500", "163835.940000", "163836.727500", "163837.517500", "163838.305000", "163839.092500", "163839.880000", "163840.670000", "163841.457500", "163842.245000", "163843.032500", "163843.822500", "163844.610000", "163845.397500", "163846.187500", "163846.975000", "163847.762500", "163848.550000", "163849.340000", "163850.127500", "163850.915000", "163851.702500", "163852.492500", "163853.280000", "163854.067500", "163854.855000", "163855.645000", "163856.432500", "163857.220000", "163858.007500", "163858.797500", "163859.585000", "163900.372500", "163901.160000", "163901.950000", "163902.737500", "163903.525000", "163904.315000", "163905.102500", "163905.890000", "163906.677500", "163907.467500", "163908.255000", "163909.042500", "163909.830000", "163910.620000", "163911.407500", "163912.195000", "163912.982500", "163913.772500", "163914.560000", "163915.347500", "163916.135000", "163916.925000", "163917.712500", "163918.500000", "163919.287500", "163920.077500", "163920.865000", "163921.652500", "163922.442500", "163923.230000", "163924.017500", "163924.805000", "163925.595000", "163926.382500", "163927.170000", "163927.957500", "163928.747500", "163929.535000", "163930.322500", "163931.110000", "163931.900000", "163932.687500", "163933.475000", "163934.262500", "163935.052500", "163935.840000", "163936.627500", "163937.415000", "163938.205000", "163938.992500", "163939.780000", "163940.570000", "163941.357500", "163942.145000", "163942.932500", "163943.722500", "163944.510000", "163945.297500", "163946.085000", "163946.875000", "163947.662500", "163948.450000", "163949.237500", "163950.027500", "163950.815000", "163951.602500", "163952.390000", "163953.180000", "163953.967500", "163954.755000", "163955.542500", "163956.332500", "163957.120000", "163957.907500", "163958.697500", "163959.485000", "164000.272500", "164001.060000", "164001.850000", "164002.637500", "164003.425000", "164004.212500", "164005.002500", "164005.790000", "164006.577500", "164007.365000", "164008.155000", "164008.942500", "164009.730000", "164010.517500", "164011.307500", "164012.095000", "164012.882500", "164013.670000", "164014.460000", "164015.247500", "164016.035000", "164016.825000", "164017.612500", "164018.400000", "164019.187500", "164019.977500", "164020.765000", "164021.552500", "164022.340000", "164023.130000", "164023.917500", "164024.705000", "164025.492500", "164026.282500", "164027.070000", "164027.857500", "164028.645000", "164029.435000", "164030.222500", "164031.010000", "164031.797500", "164032.587500", "164033.375000", "164034.162500", "164034.952500", "164035.740000", "164036.527500", "164037.315000", "164038.105000", "164038.892500", "164039.680000", "164040.467500", "164041.257500", "164042.045000", "164042.832500", "164043.620000", "164044.410000", "164045.197500", "164045.985000", "164046.772500", "164047.562500", "164048.350000", "164049.137500", "164049.925000", "164050.715000", "164051.502500", "164052.290000", "164053.080000", "164053.867500", "164054.655000", "164055.442500", "164056.232500", "164057.020000", "164057.807500", "164058.595000", "164059.385000", "164100.172500", "164100.960000", "164101.747500", "164102.537500", "164103.325000", "164104.112500", "164104.900000", "164105.690000", "164106.477500", "164107.265000", "164108.052500", "164108.842500", "164109.630000", "164110.417500", "164111.207500", "164111.995000", "164112.782500", "164113.570000", "164114.360000", "164115.147500", "164115.935000", "164116.722500", "164117.512500", "164118.300000", "164119.087500", "164119.875000", "164120.665000", "164121.452500", "164122.240000", "164123.027500", "164123.817500", "164124.605000", "164125.392500", "164126.180000", "164126.970000", "164127.757500", "164128.545000", "164129.335000", "164130.122500", "164130.910000", "164131.697500", "164132.487500", "164133.275000", "164134.062500", "164134.850000", "164135.640000", "164136.427500", "164137.215000", "164138.002500", "164138.792500", "164139.580000", "164140.367500", "164141.155000", "164141.945000", "164142.732500", "164143.520000", "164144.307500", "164145.097500", "164145.885000", "164146.672500", "164147.462500", "164148.250000", "164149.037500", "164149.825000", "164150.615000", "164151.402500", "164152.190000", "164152.977500", "164153.767500", "164154.555000", "164155.342500", "164156.130000", "164156.920000", "164157.707500", "164158.495000", "164159.282500", "164200.072500", "164200.860000", "164201.647500", "164202.437500", "164203.225000", "164204.012500", "164204.800000", "164205.590000", "164206.377500", "164207.165000", "164207.952500", "164208.742500", "164209.530000", "164210.317500", "164211.105000", "164211.895000", "164212.682500", "164213.470000", "164214.257500", "164215.047500", "164215.835000", "164216.622500", "164217.410000", "164218.200000", "164218.987500", "164219.775000", "164220.565000", "164221.352500", "164222.140000", "164222.927500", "164223.717500", "164224.505000", "164225.292500", "164226.080000", "164226.870000"],
      "ContentTime": ["180820.750000", "180820.750000", "180820.750000", "180820.750000", "180920.718000", "180920.718000", "180920.734000", "180920.734000", "180920.734000", "180920.734000", "180920.734000", "180920.734000", "180920.734000", "180920.750000", "180920.750000", "180920.750000", "180920.750000", "180920.750000", "180920.750000", "180920.750000", "180920.765000", "180920.765000", "180920.781000", "180920.781000", "180920.781000", "180920.781000", "180920.781000", "180920.781000", "180920.781000", "180920.796000", "180920.796000", "180920.796000", "181020.718000", "181020.718000", "181020.734000", "181020.734000", "181020.734000", "181020.734000", "181020.734000", "181020.734000", "181020.734000", "181020.750000", "181020.750000", "181020.750000", "181020.750000", "181020.750000", "181020.750000", "181020.750000", "181020.765000", "181020.765000", "181020.765000", "181020.765000", "181020.765000", "181020.765000", "181020.765000", "181020.781000", "181020.781000", "181020.781000", "181020.781000", "181020.781000", "181120.718000", "181120.718000", "181120.734000", "181120.734000", "181120.734000", "181120.734000", "181120.734000", "181120.734000", "181120.734000", "181120.750000", "181120.750000", "181120.750000", "181120.750000", "181120.750000", "181120.750000", "181120.750000", "181120.765000", "181120.765000", "181120.765000", "181120.765000", "181120.765000", "181120.765000", "181120.765000", "181120.781000", "181120.781000", "181120.781000", "181120.781000", "181120.781000", "181220.718000", "181220.718000", "181220.734000", "181220.734000", "181220.734000", "181220.734000", "181220.734000", "181220.734000", "181220.750000", "181220.750000", "181220.750000", "181220.750000", "181220.750000", "181220.750000", "181220.765000", "181220.765000", "181220.765000", "181220.765000", "181220.765000", "181220.765000", "181220.765000", "181220.781000", "181220.781000", "181220.781000", "181220.781000", "181220.781000", "181220.781000", "181220.781000", "181320.718000", "181320.718000", "181320.734000", "181320.734000", "181320.734000", "181320.734000", "181320.734000", "181320.734000", "181320.734000", "181320.750000", "181320.750000", "181320.750000", "181320.750000", "181320.750000", "181320.750000", "181320.750000", "181320.765000", "181320.765000", "181320.765000", "181320.765000", "181320.765000", "181320.765000", "181320.781000", "181320.781000", "181320.781000", "181320.781000", "181320.781000", "181320.781000", "181320.781000", "181420.718000", "181420.718000", "181420.734000", "181420.734000", "181420.734000", "181420.734000", "181420.734000", "181420.750000", "181420.750000", "181420.750000", "181420.750000", "181420.750000", "181420.750000", "181420.765000", "181420.765000", "181420.765000", "181420.765000", "181420.765000", "181420.765000", "181420.765000", "181420.765000", "181420.781000", "181420.781000", "181420.781000", "181420.781000", "181420.781000", "181420.781000", "181420.781000", "181500.718000", "181500.718000", "181500.734000", "181500.734000", "181500.734000", "181500.734000", "181500.734000", "181500.734000", "181500.734000", "181500.750000", "181500.750000", "181500.750000", "181500.750000", "181500.750000", "181500.750000", "181500.765000", "181500.765000", "181500.765000", "181500.765000", "181600.718000", "181600.718000", "181600.734000", "181600.734000", "181600.734000", "181600.734000", "181600.734000", "181600.734000", "181600.734000", "181600.750000", "181600.750000", "181600.750000", "181600.750000", "181600.750000", "181600.750000", "181600.750000", "181600.765000", "181600.765000", "181600.765000", "181600.765000", "181600.765000", "181600.765000", "181600.765000", "181600.781000", "181600.781000", "181600.781000", "181600.781000", "181600.781000", "181700.718000", "181700.718000", "181700.734000", "181700.734000", "181700.734000", "181700.734000", "181700.734000", "181700.734000", "181700.734000", "181700.750000", "181700.750000", "181700.750000", "181700.750000", "181700.750000", "181700.750000", "181700.750000", "181700.765000", "181700.765000", "181700.765000", "181700.765000", "181700.765000", "181700.765000", "181700.765000", "181700.781000", "181700.781000", "181700.781000", "181700.781000", "181700.781000", "181800.718000", "181800.718000", "181800.734000", "181800.734000", "181800.734000", "181800.734000", "181800.734000", "181800.734000", "181800.734000", "181800.750000", "181800.750000", "181800.750000", "181800.750000", "181800.750000", "181800.750000", "181800.750000", "181800.765000", "181800.765000", "181800.765000", "181800.765000", "181800.765000", "181800.765000", "181800.765000", "181800.781000", "181800.781000", "181800.781000", "181800.781000", "181800.781000", "181900.718000", "181900.718000", "181900.734000", "181900.734000", "181900.734000", "181900.734000", "181900.734000", "181900.734000", "181900.734000", "181900.750000", "181900.750000", "181900.750000", "181900.750000", "181900.750000", "181900.750000", "181900.750000", "181900.765000", "181900.765000", "181900.765000", "181900.765000", "181900.765000", "181900.765000", "181900.765000", "181900.781000", "181900.781000", "181900.781000", "181900.781000", "181900.781000", "182000.718000", "182000.718000", "182000.734000", "182000.734000", "182000.734000", "182000.734000", "182000.734000", "182000.734000", "182000.734000", "182000.750000", "182000.750000", "182000.750000", "182000.750000", "182000.750000", "182000.750000", "182000.750000", "182000.765000", "182000.765000", "182000.765000", "182000.765000", "182000.765000", "182000.765000", "182000.781000", "182000.781000", "182000.781000", "182000.781000", "182000.781000", "182000.781000", "182100.718000", "182100.718000", "182100.734000", "182100.734000", "182100.734000", "182100.734000", "182100.734000", "182100.734000", "182100.734000", "182100.750000", "182100.750000", "182100.750000", "182100.750000", "182100.750000", "182100.750000", "182100.750000", "182100.765000", "182100.765000", "182100.765000", "182100.765000", "182100.765000", "182100.765000", "182100.765000", "182100.781000", "182100.781000", "182100.781000", "182100.781000", "182100.781000", "182100.781000", "182200.718000", "182200.718000", "182200.734000", "182200.734000", "182200.734000", "182200.734000", "182200.734000", "182200.734000", "182200.734000", "182200.750000", "182200.750000", "182200.750000", "182200.750000", "182200.750000", "182200.750000", "182200.750000", "182200.765000", "182200.765000", "182200.765000", "182200.765000", "182200.765000", "182200.765000", "182200.765000", "182200.781000", "182200.781000", "182200.781000", "182200.781000", "182200.781000", "182300.718000", "182300.718000", "182300.734000", "182300.734000", "182300.734000", "182300.734000", "182300.734000", "182300.734000", "182300.734000", "182300.750000", "182300.750000", "182300.750000", "182300.750000", "182300.750000", "182300.765000", "182300.765000", "182300.765000", "182300.765000", "182300.765000", "182300.765000", "182300.781000", "182300.781000", "182300.781000", "182300.781000", "182300.781000", "182300.781000", "182300.781000", "182300.796000", "182400.718000", "182400.718000", "182400.734000", "182400.734000", "182400.734000", "182400.734000", "182400.734000", "182400.750000", "182400.750000", "182400.750000", "182400.750000", "182400.750000", "182400.750000", "182400.750000", "182400.765000", "182400.765000", "182400.765000", "182400.765000", "182400.765000", "182400.765000", "182400.765000", "182400.781000", "182400.781000", "182400.781000", "182400.781000", "182400.781000", "182400.796000", "182400.796000", "182440.718000", "182440.718000", "182440.734000", "182440.734000", "182440.734000", "182440.734000", "182440.734000", "182440.734000", "182440.734000", "182440.750000", "182440.750000", "182440.750000", "182440.750000", "182440.750000", "182440.750000", "182440.765000", "182440.765000", "182440.765000", "182440.765000", "182540.718000", "182540.718000", "182540.734000", "182540.734000", "182540.734000", "182540.734000", "182540.734000", "182540.734000", "182540.734000", "182540.750000", "182540.750000", "182540.750000", "182540.750000", "182540.750000", "182540.750000", "182540.750000", "182540.765000", "182540.765000", "182540.765000", "182540.765000", "182540.765000", "182540.765000", "182540.765000", "182540.781000", "182540.781000", "182540.781000", "182540.781000", "182540.781000", "182640.718000", "182640.718000", "182640.734000", "182640.734000", "182640.734000", "182640.734000", "182640.734000", "182640.734000", "182640.734000", "182640.750000", "182640.750000", "182640.750000", "182640.750000", "182640.750000", "182640.765000", "182640.765000", "182640.765000", "182640.781000", "182640.781000", "182640.781000", "182640.781000", "182640.781000", "182640.781000", "182640.781000", "182640.796000", "182640.796000", "182640.796000", "182640.796000", "182740.718000", "182740.718000", "182740.734000", "182740.734000", "182740.734000", "182740.734000", "182740.734000", "182740.734000", "182740.734000", "182740.750000", "182740.750000", "182740.750000", "182740.750000", "182740.750000", "182740.750000", "182740.750000", "182740.765000", "182740.765000", "182740.765000", "182740.765000", "182740.765000", "182740.765000", "182740.765000", "182740.781000", "182740.781000", "182740.781000", "182740.781000", "182740.781000", "182740.796000", "182840.718000", "182840.718000", "182840.734000", "182840.734000", "182840.734000", "182840.734000", "182840.734000", "182840.734000", "182840.734000", "182840.750000", "182840.750000", "182840.750000", "182840.750000", "182840.750000", "182840.750000", "182840.750000", "182840.765000", "182840.765000", "182840.765000", "182840.765000", "182840.765000", "182840.765000", "182840.765000", "182840.781000", "182840.781000", "182840.781000", "182840.781000", "182840.781000", "182848.187000", "182848.187000", "182848.187000", "182848.187000"],
