{
  "AcquisitionMatrixPE": 104,
  "AcquisitionNumber": 1,
  "AcquisitionTime": "16:09:54.707500",
  "BandwidthPerPixelPhaseEncode": 13.935,
  "BaseResolution": 104,
  "CoilString": "C:HEA;HEP",
  "ConversionSoftware": "dcm2niix",
  "ConversionSoftwareVersion": "v1.0.20210317",
  "DerivedVendorReportedEchoSpacing": 0.000690017,
  "DeviceSerialNumber": "35450",
  "DwellTime": 2.5e-06,
  "EchoTime": 0.0348,
  "EffectiveEchoSpacing": 0.000690017,
  "FlipAngle": 55,
  "ImageComments": "Unaliased MB8/PE3",
  "ImageOrientationPatientDICOM": [1, 0, 0, 0, 0.977783, -0.209619],
  "ImageType": [
    "ORIGINAL",
    "PRIMARY",
    "M",
    "MB",
    "ND",
    "MOSAIC"
],
  "ImagingFrequency": 123.235,
  "InPlanePhaseEncodingDirectionDICOM": "COL",
  "InstitutionAddress": "Univeristy Ave. 197,Newark,North East,US,07102-1814",
  "InstitutionName": "RUBIC",
  "InstitutionalDepartmentName": "Department",
  "MRAcquisitionType": "2D",
  "MagneticFieldStrength": 3,
  "Manufacturer": "Siemens",
  "ManufacturersModelName": "TrioTim",
  "Modality": "MR",
  "MultibandAccelerationFactor": 8,
  "PartialFourier": 0.875,
  "PatientPosition": "HFS",
  "PercentPhaseFOV": 100,
  "PercentSampling": 100,
  "PhaseEncodingDirection": "j-",
  "PhaseEncodingSteps": 91,
  "PhaseResolution": 1,
  "PixelBandwidth": 1923,
  "ProcedureStepDescription": "Cole^Michael",
  "ProtocolName": "cmrr_mbep2d_bold_2mm_MB8_Task_8x",
  "PulseSequenceDetails": "%CustomerSeq%\\cmrr_mbep2d_bold",
  "ReceiveCoilName": "32Ch_Head",
  "ReconMatrixPE": 104,
  "RepetitionTime": 0.785,
  "SAR": 0.133822,
  "ScanOptions": "PFP\\FS",
  "ScanningSequence": "EP",
  "SequenceName": "epfid2d1_104",
  "SequenceVariant": "SK\\SS",
  "SeriesDescription": "cmrr_mbep2d_bold_2mm_MB8_Task_8x",
  "SeriesNumber": 21,
  "ShimSetting": [2130, -328, -7257, 503, 37, -427, -91, 18],
  "SliceThickness": 2,
  "SliceTiming": [0, 0.44, 0.0875, 0.5275, 0.175, 0.615, 0.265, 0.7025, 0.3525, 0, 0.44, 0.0875, 0.5275, 0.175, 0.615, 0.265, 0.7025, 0.3525, 0, 0.44, 0.0875, 0.5275, 0.175, 0.615, 0.265, 0.7025, 0.3525, 0, 0.44, 0.0875, 0.5275, 0.175, 0.615, 0.265, 0.7025, 0.3525, 0, 0.44, 0.0875, 0.5275, 0.175, 0.615, 0.265, 0.7025, 0.3525, 0, 0.44, 0.0875, 0.5275, 0.175, 0.615, 0.265, 0.7025, 0.3525, 0, 0.44, 0.0875, 0.5275, 0.175, 0.615, 0.265, 0.7025, 0.3525, 0, 0.44, 0.0875, 0.5275, 0.175, 0.615, 0.265, 0.7025, 0.3525],
  "SoftwareVersions": "syngo MR B19",
  "SpacingBetweenSlices": 2,
  "StationName": "MRC35450",
  "TaskName": "cpro",
  "TotalReadoutTime": 0.0710717,
  "TxRefAmp": 338.566,
  "dcmmeta_affine": [
    [-2.0, 0.0, 0.0, 102.6440658569336],
    [0.0, 1.9555665254592896, -0.4192371368408203, -74.48454284667969],
    [0.0, 0.4192371368408203, 1.95556640625, -110.92923736572266],
    [0.0, 0.0, 0.0, 1.0]
],
  "dcmmeta_reorient_transform": [
    [0.0, -1.0, 0.0, 103.0],
    [1.0, 0.0, 0.0, 0.0],
    [0.0, 0.0, 1.0, 0.0],
    [0.0, 0.0, 0.0, 1.0]
],
  "dcmmeta_shape": [104, 104, 72, 581],
  "dcmmeta_slice_dim": 2,
  "dcmmeta_version": 0.6,
  "global": {
    "const": {
      "AcquisitionMatrix": [104, 0, 0, 104],
      "AngioFlag": "N",
      "BitsAllocated": 16,
      "BitsStored": 12,
      "Columns": 936,
      "EchoNumbers": 1,
      "EchoTime": 34.8,
      "EchoTrainLength": 1,
      "FlipAngle": 55.0,
      "HighBit": 11,
      "ImageOrientationPatient": [1.0, 0.0, 0.0, 0.0, 0.97778323558311, -0.2096185683871],
      "ImagePositionPatient": [-934.64406776428, -940.45445237786, 106.65483853079],
      "ImageType": [
        "ORIGINAL",
        "PRIMARY",
        "M",
        "MB",
        "ND",
        "MOSAIC"
],
      "ImagedNucleus": "1H",
      "ImagingFrequency": 123.23451,
      "InPlanePhaseEncodingDirection": "COL",
      "MRAcquisitionType": "2D",
      "MagneticFieldStrength": 3.0,
      "Manufacturer": "SIEMENS",
      "ManufacturerModelName": "TrioTim",
      "Modality": "MR",
      "NumberOfAverages": 1.0,
      "NumberOfPhaseEncodingSteps": 91,
      "PercentPhaseFieldOfView": 100.0,
      "PercentSampling": 100.0,
      "PerformedProcedureStepStartTime": "145144.000000",
      "PhotometricInterpretation": "MONOCHROME2",
      "PixelBandwidth": 1923.0,
      "PixelRepresentation": 0,
      "PixelSpacing": [2.0, 2.0],
      "ProtocolName": "cmrr_mbep2d_bold_2mm_MB8_Task_8x",
      "RepetitionTime": 785.0,
      "Rows": 936,
      "SAR": 0.13382157815659,
      "SamplesPerPixel": 1,
      "ScanOptions": [
        "PFP",
        "FS"
],
      "ScanningSequence": "EP",
      "SequenceName": "epfid2d1_104",
      "SequenceVariant": [
        "SK",
        "SS"
],
      "SeriesDescription": "cmrr_mbep2d_bold_2mm_MB8_Task_8x",
      "SeriesNumber": 21,
      "SeriesTime": "170534.703000",
      "SliceLocation": -92.851402831447,
      "SliceThickness": 2.0,
      "SmallestImagePixelValue": 0,
      "SoftwareVersions": "syngo MR B19",
      "SpacingBetweenSlices": 1.9999999862589,
      "SpecificCharacterSet": "ISO_IR 100",
      "StudyID": "1",
      "StudyTime": "145143.968000",
      "TransmitCoilName": "Body",
      "VariableFlipAngleFlag": "N",
      "WindowCenterWidthExplanation": "Algo1",
      "dBdt": 0.0},
    "slices": {}
  },
  "time": {
    "samples": {
      "AcquisitionNumber": [1, 2, 3, 4, 5, 6, 7, 8, 9, 10, 11, 12, 13, 14, 15, 16, 17, 18, 19, 20, 21, 22, 23, 24, 25, 26, 27, 28, 29, 30, 31, 32, 33, 34, 35, 36, 37, 38, 39, 40, 41, 42, 43, 44, 45, 46, 47, 48, 49, 50, 51, 52, 53, 54, 55, 56, 57, 58, 59, 60, 61, 62, 63, 64, 65, 66, 67, 68, 69, 70, 71, 72, 73, 74, 75, 76, 77, 78, 79, 80, 81, 82, 83, 84, 85, 86, 87, 88, 89, 90, 91, 92, 93, 94, 95, 96, 97, 98, 99, 100, 101, 102, 103, 104, 105, 106, 107, 108, 109, 110, 111, 112, 113, 114, 115, 116, 117, 118, 119, 120, 121, 122, 123, 124, 125, 126, 127, 128, 129, 130, 131, 132, 133, 134, 135, 136, 137, 138, 139, 140, 141, 142, 143, 144, 145, 146, 147, 148, 149, 150, 151, 152, 153, 154, 155, 156, 157, 158, 159, 160, 161, 162, 163, 164, 165, 166, 167, 168, 169, 170, 171, 172, 173, 174, 175, 176, 177, 178, 179, 180, 181, 182, 183, 184, 185, 186, 187, 188, 189, 190, 191, 192, 193, 194, 195, 196, 197, 198, 199, 200, 201, 202, 203, 204, 205, 206, 207, 208, 209, 210, 211, 212, 213, 214, 215, 216, 217, 218, 219, 220, 221, 222, 223, 224, 225, 226, 227, 228, 229, 230, 231, 232, 233, 234, 235, 236, 237, 238, 239, 240, 241, 242, 243, 244, 245, 246, 247, 248, 249, 250, 251, 252, 253, 254, 255, 256, 257, 258, 259, 260, 261, 262, 263, 264, 265, 266, 267, 268, 269, 270, 271, 272, 273, 274, 275, 276, 277, 278, 279, 280, 281, 282, 283, 284, 285, 286, 287, 288, 289, 290, 291, 292, 293, 294, 295, 296, 297, 298, 299, 300, 301, 302, 303, 304, 305, 306, 307, 308, 309, 310, 311, 312, 313, 314, 315, 316, 317, 318, 319, 320, 321, 322, 323, 324, 325, 326, 327, 328, 329, 330, 331, 332, 333, 334, 335, 336, 337, 338, 339, 340, 341, 342, 343, 344, 345, 346, 347, 348, 349, 350, 351, 352, 353, 354, 355, 356, 357, 358, 359, 360, 361, 362, 363, 364, 365, 366, 367, 368, 369, 370, 371, 372, 373, 374, 375, 376, 377, 378, 379, 380, 381, 382, 383, 384, 385, 386, 387, 388, 389, 390, 391, 392, 393, 394, 395, 396, 397, 398, 399, 400, 401, 402, 403, 404, 405, 406, 407, 408, 409, 410, 411, 412, 413, 414, 415, 416, 417, 418, 419, 420, 421, 422, 423, 424, 425, 426, 427, 428, 429, 430, 431, 432, 433, 434, 435, 436, 437, 438, 439, 440, 441, 442, 443, 444, 445, 446, 447, 448, 449, 450, 451, 452, 453, 454, 455, 456, 457, 458, 459, 460, 461, 462, 463, 464, 465, 466, 467, 468, 469, 470, 471, 472, 473, 474, 475, 476, 477, 478, 479, 480, 481, 482, 483, 484, 485, 486, 487, 488, 489, 490, 491, 492, 493, 494, 495, 496, 497, 498, 499, 500, 501, 502, 503, 504, 505, 506, 507, 508, 509, 510, 511, 512, 513, 514, 515, 516, 517, 518, 519, 520, 521, 522, 523, 524, 525, 526, 527, 528, 529, 530, 531, 532, 533, 534, 535, 536, 537, 538, 539, 540, 541, 542, 543, 544, 545, 546, 547, 548, 549, 550, 551, 552, 553, 554, 555, 556, 557, 558, 559, 560, 561, 562, 563, 564, 565, 566, 567, 568, 569, 570, 571, 572, 573, 574, 575, 576, 577, 578, 579, 580, 581],
      "AcquisitionTime": ["160954.707500", "160955.497500", "160956.285000", "160957.072500", "160957.862500", "160958.650000", "160959.437500", "161000.225000", "161001.015000", "161001.802500", "161002.590000", "161003.377500", "161004.167500", "161004.955000", "161005.742500", "161006.530000", "161007.320000", "161008.107500", "161008.895000", "161009.682500", "161010.472500", "161011.260000", "161012.047500", "161012.835000", "161013.625000", "161014.412500", "161015.200000", "161015.990000", "161016.777500", "161017.565000", "161018.352500", "161019.142500", "161019.930000", "161020.717500", "161021.505000", "161022.295000", "161023.082500", "161023.870000", "161024.657500", "161025.447500", "161026.235000", "161027.022500", "161027.810000", "161028.600000", "161029.387500", "161030.175000", "161030.962500", "161031.752500", "161032.540000", "161033.327500", "161034.117500", "161034.905000", "161035.692500", "161036.480000", "161037.270000", "161038.057500", "161038.845000", "161039.632500", "161040.422500", "161041.210000", "161041.997500", "161042.785000", "161043.575000", "161044.362500", "161045.150000", "161045.937500", "161046.727500", "161047.515000", "161048.302500", "161049.090000", "161049.880000", "161050.667500", "161051.455000", "161052.245000", "161053.032500", "161053.820000", "161054.607500", "161055.397500", "161056.185000", "161056.972500", "161057.760000", "161058.550000", "161059.337500", "161100.125000", "161100.912500", "161101.702500", "161102.490000", "161103.277500", "161104.065000", "161104.855000", "161105.642500", "161106.430000", "161107.217500", "161108.007500", "161108.795000", "161109.582500", "161110.372500", "161111.160000", "161111.947500", "161112.735000", "161113.525000", "161114.312500", "161115.100000", "161115.887500", "161116.677500", "161117.465000", "161118.252500", "161119.040000", "161119.830000", "161120.617500", "161121.405000", "161122.192500", "161122.982500", "161123.770000", "161124.557500", "161125.345000", "161126.135000", "161126.922500", "161127.710000", "161128.500000", "161129.287500", "161130.075000", "161130.862500", "161131.652500", "161132.440000", "161133.227500", "161134.015000", "161134.805000", "161135.592500", "161136.380000", "161137.167500", "161137.957500", "161138.745000", "161139.532500", "161140.320000", "161141.110000", "161141.897500", "161142.685000", "161143.472500", "161144.262500", "161145.050000", "161145.837500", "161146.627500", "161147.415000", "161148.202500", "161148.990000", "161149.780000", "161150.567500", "161151.355000", "161152.142500", "161152.932500", "161153.720000", "161154.507500", "161155.295000", "161156.085000", "161156.872500", "161157.660000", "161158.447500", "161159.237500", "161200.025000", "161200.812500", "161201.600000", "161202.390000", "161203.177500", "161203.965000", "161204.755000", "161205.542500", "161206.330000", "161207.117500", "161207.907500", "161208.695000", "161209.482500", "161210.270000", "161211.060000", "161211.847500", "161212.635000", "161213.422500", "161214.212500", "161215.000000", "161215.787500", "161216.575000", "161217.365000", "161218.152500", "161218.940000", "161219.727500", "161220.517500", "161221.305000", "161222.092500", "161222.882500", "161223.670000", "161224.457500", "161225.245000", "161226.035000", "161226.822500", "161227.610000", "161228.397500", "161229.187500", "161229.975000", "161230.762500", "161231.550000", "161232.340000", "161233.127500", "161233.915000", "161234.702500", "161235.492500", "161236.280000", "161237.067500", "161237.857500", "161238.645000", "161239.432500", "161240.220000", "161241.010000", "161241.797500", "161242.585000", "161243.372500", "161244.162500", "161244.950000", "161245.737500", "161246.525000", "161247.315000", "161248.102500", "161248.890000", "161249.677500", "161250.467500", "161251.255000", "161252.042500", "161252.830000", "161253.620000", "161254.407500", "161255.195000", "161255.985000", "161256.772500", "161257.560000", "161258.347500", "161259.137500", "161259.925000", "161300.712500", "161301.500000", "161302.290000", "161303.077500", "161303.865000", "161304.652500", "161305.442500", "161306.230000", "161307.017500", "161307.805000", "161308.595000", "161309.382500", "161310.170000", "161310.957500", "161311.747500", "161312.535000", "161313.322500", "161314.112500", "161314.900000", "161315.687500", "161316.475000", "161317.265000", "161318.052500", "161318.840000", "161319.627500", "161320.417500", "161321.205000", "161321.992500", "161322.780000", "161323.570000", "161324.357500", "161325.145000", "161325.932500", "161326.722500", "161327.510000", "161328.297500", "161329.085000", "161329.875000", "161330.662500", "161331.450000", "161332.240000", "161333.027500", "161333.815000", "161334.602500", "161335.392500", "161336.180000", "161336.967500", "161337.755000", "161338.545000", "161339.332500", "161340.120000", "161340.907500", "161341.697500", "161342.485000", "161343.272500", "161344.060000", "161344.850000", "161345.637500", "161346.425000", "161347.212500", "161348.002500", "161348.790000", "161349.577500", "161350.367500", "161351.155000", "161351.942500", "161352.730000", "161353.520000", "161354.307500", "161355.095000", "161355.882500", "161356.672500", "161357.460000", "161358.247500", "161359.035000", "161359.825000", "161400.612500", "161401.400000", "161402.187500", "161402.977500", "161403.765000", "161404.552500", "161405.340000", "161406.130000", "161406.917500", "161407.705000", "161408.495000", "161409.282500", "161410.070000", "161410.857500", "161411.647500", "161412.435000", "161413.222500", "161414.010000", "161414.800000", "161415.587500", "161416.375000", "161417.162500", "161417.952500", "161418.740000", "161419.527500", "161420.315000", "161421.105000", "161421.892500", "161422.680000", "161423.467500", "161424.257500", "161425.045000", "161425.832500", "161426.622500", "161427.410000", "161428.197500", "161428.985000", "161429.775000", "161430.562500", "161431.350000", "161432.137500", "161432.927500", "161433.715000", "161434.502500", "161435.290000", "161436.080000", "161436.867500", "161437.655000", "161438.442500", "161439.232500", "161440.020000", "161440.807500", "161441.595000", "161442.385000", "161443.172500", "161443.960000", "161444.750000", "161445.537500", "161446.325000", "161447.112500", "161447.902500", "161448.690000", "161449.477500", "161450.265000", "161451.055000", "161451.842500", "161452.630000", "161453.417500", "161454.207500", "161454.995000", "161455.782500", "161456.570000", "161457.360000", "161458.147500", "161458.935000", "161459.722500", "161500.512500", "161501.300000", "161502.087500", "161502.877500", "161503.665000", "161504.452500", "161505.240000", "161506.030000", "161506.817500", "161507.605000", "161508.392500", "161509.182500", "161509.970000", "161510.757500", "161511.545000", "161512.335000", "161513.122500", "161513.910000", "161514.697500", "161515.487500", "161516.275000", "161517.062500", "161517.850000", "161518.640000", "161519.427500", "161520.215000", "161521.005000", "161521.792500", "161522.580000", "161523.367500", "161524.157500", "161524.945000", "161525.732500", "161526.520000", "161527.310000", "161528.097500", "161528.885000", "161529.672500", "161530.462500", "161531.250000", "161532.037500", "161532.825000", "161533.615000", "161534.402500", "161535.190000", "161535.977500", "161536.767500", "161537.555000", "161538.342500", "161539.132500", "161539.920000", "161540.707500", "161541.495000", "161542.285000", "161543.072500", "161543.860000", "161544.647500", "161545.437500", "161546.225000", "161547.012500", "161547.800000", "161548.590000", "161549.377500", "161550.165000", "161550.952500", "161551.742500", "161552.530000", "161553.317500", "161554.107500", "161554.895000", "161555.682500", "161556.470000", "161557.260000", "161558.047500", "161558.835000", "161559.622500", "161600.412500", "161601.200000", "161601.987500", "161602.775000", "161603.565000", "161604.352500", "161605.140000", "161605.927500", "161606.717500", "161607.505000", "161608.292500", "161609.080000", "161609.870000", "161610.657500", "161611.445000", "161612.235000", "161613.022500", "161613.810000", "161614.597500", "161615.387500", "161616.175000", "161616.962500", "161617.750000", "161618.540000", "161619.327500", "161620.115000", "161620.902500", "161621.692500", "161622.480000", "161623.267500", "161624.055000", "161624.845000", "161625.632500", "161626.420000", "161627.207500", "161627.997500", "161628.785000", "161629.572500", "161630.362500", "161631.150000", "161631.937500", "161632.725000", "161633.515000", "161634.302500", "161635.090000", "161635.877500", "161636.667500", "161637.455000", "161638.242500", "161639.030000", "161639.820000", "161640.607500", "161641.395000", "161642.182500", "161642.972500", "161643.760000", "161644.547500", "161645.335000", "161646.125000", "161646.912500", "161647.700000", "161648.490000", "161649.277500", "161650.065000", "161650.852500", "161651.642500", "161652.430000", "161653.217500", "161654.005000", "161654.795000", "161655.582500", "161656.370000", "161657.157500", "161657.947500", "161658.735000", "161659.522500", "161700.310000", "161701.100000", "161701.887500", "161702.675000", "161703.462500", "161704.252500", "161705.040000", "161705.827500", "161706.617500", "161707.405000", "161708.192500", "161708.980000", "161709.770000", "161710.557500", "161711.345000", "161712.132500", "161712.922500", "161713.710000", "161714.497500", "161715.285000", "161716.075000", "161716.862500", "161717.650000", "161718.437500", "161719.227500", "161720.015000", "161720.802500", "161721.590000", "161722.380000", "161723.167500", "161723.955000", "161724.745000", "161725.532500", "161726.320000", "161727.107500", "161727.897500", "161728.685000", "161729.472500", "161730.260000", "161731.050000", "161731.837500"],
      "ContentTime": ["170534.718000", "170534.718000", "170534.718000", "170534.718000", "170534.718000", "170634.687000", "170634.687000", "170634.703000", "170634.703000", "170634.703000", "170634.703000", "170634.703000", "170634.703000", "170634.703000", "170634.718000", "170634.718000", "170634.718000", "170634.718000", "170634.718000", "170634.718000", "170634.718000", "170634.718000", "170634.734000", "170634.734000", "170634.734000", "170634.734000", "170634.734000", "170634.734000", "170634.734000", "170634.750000", "170634.750000", "170634.750000", "170634.750000", "170734.687000", "170734.687000", "170734.703000", "170734.703000", "170734.703000", "170734.703000", "170734.703000", "170734.703000", "170734.703000", "170734.718000", "170734.718000", "170734.718000", "170734.718000", "170734.718000", "170734.718000", "170734.718000", "170734.734000", "170734.734000", "170734.734000", "170734.734000", "170734.734000", "170734.734000", "170734.734000", "170734.750000", "170734.750000", "170734.750000", "170734.750000", "170734.750000", "170834.687000", "170834.687000", "170834.703000", "170834.703000", "170834.703000", "170834.703000", "170834.703000", "170834.703000", "170834.703000", "170834.718000", "170834.718000", "170834.718000", "170834.718000", "170834.718000", "170834.718000", "170834.718000", "170834.734000", "170834.734000", "170834.734000", "170834.734000", "170834.734000", "170834.734000", "170834.734000", "170834.750000", "170834.750000", "170834.750000", "170834.750000", "170934.687000", "170934.687000", "170934.703000", "170934.703000", "170934.703000", "170934.703000", "170934.703000", "170934.703000", "170934.703000", "170934.718000", "170934.718000", "170934.718000", "170934.718000", "170934.718000", "170934.718000", "170934.734000", "170934.734000", "170934.734000", "170934.734000", "170934.734000", "170934.750000", "170934.750000", "170934.750000", "170934.750000", "170934.750000", "170934.750000", "170934.750000", "170934.765000", "171034.687000", "171034.687000", "171034.703000", "171034.703000", "171034.703000", "171034.703000", "171034.703000", "171034.703000", "171034.703000", "171034.718000", "171034.718000", "171034.718000", "171034.718000", "171034.718000", "171034.718000", "171034.718000", "171034.734000", "171034.734000", "171034.734000", "171034.734000", "171034.734000", "171034.734000", "171034.750000", "171034.750000", "171034.750000", "171034.750000", "171034.750000", "171034.750000", "171134.687000", "171134.687000", "171134.703000", "171134.703000", "171134.703000", "171134.703000", "171134.703000", "171134.703000", "171134.703000", "171134.718000", "171134.718000", "171134.718000", "171134.718000", "171134.718000", "171134.718000", "171134.718000", "171134.734000", "171134.734000", "171134.734000", "171134.734000", "171134.734000", "171134.734000", "171134.734000", "171134.750000", "171134.750000", "171134.750000", "171134.750000", "171134.750000", "171234.703000", "171234.703000", "171234.703000", "171234.703000", "171234.703000", "171234.703000", "171234.718000", "171234.718000", "171234.718000", "171234.718000", "171234.718000", "171234.734000", "171234.734000", "171234.734000", "171234.734000", "171234.734000", "171234.734000", "171234.750000", "171234.750000", "171234.750000", "171234.750000", "171234.750000", "171234.750000", "171234.750000", "171234.765000", "171234.765000", "171234.765000", "171234.765000", "171334.687000", "171334.687000", "171334.703000", "171334.703000", "171334.703000", "171334.703000", "171334.703000", "171334.703000", "171334.703000", "171334.718000", "171334.718000", "171334.718000", "171334.718000", "171334.718000", "171334.718000", "171334.718000", "171334.734000", "171334.734000", "171334.734000", "171334.734000", "171334.734000", "171334.734000", "171334.734000", "171334.750000", "171334.750000", "171334.750000", "171334.750000", "171334.750000", "171414.687000", "171414.687000", "171414.703000", "171414.703000", "171414.703000", "171414.703000", "171414.703000", "171414.703000", "171414.703000", "171414.718000", "171414.718000", "171414.718000", "171414.718000", "171414.718000", "171414.718000", "171414.734000", "171414.734000", "171414.734000", "171414.734000", "171514.687000", "171514.687000", "171514.703000", "171514.703000", "171514.703000", "171514.703000", "171514.703000", "171514.703000", "171514.703000", "171514.718000", "171514.718000", "171514.718000", "171514.718000", "171514.718000", "171514.718000", "171514.718000", "171514.734000", "171514.734000", "171514.734000", "171514.734000", "171514.734000", "171514.734000", "171514.750000", "171514.750000", "171514.750000", "171514.750000", "171514.750000", "171514.750000", "171614.687000", "171614.687000", "171614.703000", "171614.703000", "171614.703000", "171614.703000", "171614.703000", "171614.703000", "171614.703000", "171614.718000", "171614.718000", "171614.718000", "171614.718000", "171614.718000", "171614.718000", "171614.718000", "171614.734000", "171614.734000", "171614.734000", "171614.734000", "171614.734000", "171614.734000", "171614.750000", "171614.750000", "171614.750000", "171614.750000", "171614.750000", "171614.750000", "171714.687000", "171714.687000", "171714.703000", "171714.703000", "171714.703000", "171714.703000", "171714.703000", "171714.703000", "171714.703000", "171714.718000", "171714.718000", "171714.718000", "171714.718000", "171714.718000", "171714.718000", "171714.718000", "171714.734000", "171714.734000", "171714.734000", "171714.734000", "171714.734000", "171714.734000", "171714.734000", "171714.750000", "171714.750000", "171714.750000", "171714.750000", "171714.750000", "171814.687000", "171814.687000", "171814.703000", "171814.703000", "171814.703000", "171814.703000", "171814.703000", "171814.703000", "171814.703000", "171814.718000", "171814.718000", "171814.718000", "171814.718000", "171814.718000", "171814.718000", "171814.718000", "171814.734000", "171814.734000", "171814.734000", "171814.734000", "171814.734000", "171814.734000", "171814.734000", "171814.750000", "171814.750000", "171814.750000", "171814.750000", "171814.750000", "171914.687000", "171914.687000", "171914.703000", "171914.703000", "171914.703000", "171914.703000", "171914.703000", "171914.703000", "171914.703000", "171914.718000", "171914.718000", "171914.718000", "171914.718000", "171914.718000", "171914.718000", "171914.718000", "171914.734000", "171914.734000", "171914.734000", "171914.734000", "171914.734000", "171914.734000", "171914.734000", "171914.750000", "171914.750000", "171914.750000", "171914.750000", "171914.750000", "172014.687000", "172014.687000", "172014.703000", "172014.703000", "172014.703000", "172014.703000", "172014.703000", "172014.703000", "172014.703000", "172014.718000", "172014.718000", "172014.718000", "172014.718000", "172014.718000", "172014.718000", "172014.718000", "172014.734000", "172014.734000", "172014.734000", "172014.734000", "172014.734000", "172014.734000", "172014.734000", "172014.750000", "172014.750000", "172014.750000", "172014.750000", "172014.750000", "172014.750000", "172114.687000", "172114.687000", "172114.703000", "172114.703000", "172114.703000", "172114.703000", "172114.703000", "172114.703000", "172114.703000", "172114.718000", "172114.718000", "172114.718000", "172114.718000", "172114.734000", "172114.734000", "172114.734000", "172114.734000", "172114.734000", "172114.734000", "172114.734000", "172114.750000", "172114.750000", "172114.750000", "172114.750000", "172114.750000", "172114.750000", "172114.750000", "172114.765000", "172214.687000", "172214.687000", "172214.703000", "172214.703000", "172214.703000", "172214.703000", "172214.703000", "172214.703000", "172214.703000", "172214.718000", "172214.718000", "172214.718000", "172214.718000", "172214.718000", "172214.718000", "172214.718000", "172214.734000", "172214.734000", "172214.734000", "172214.734000", "172214.734000", "172214.734000", "172214.734000", "172214.750000", "172214.750000", "172214.750000", "172214.750000", "172214.750000", "172314.687000", "172314.687000", "172314.703000", "172314.703000", "172314.703000", "172314.703000", "172314.703000", "172314.703000", "172314.703000", "172314.718000", "172314.718000", "172314.718000", "172314.718000", "172314.718000", "172314.718000", "172314.718000", "172314.734000", "172314.734000", "172314.734000", "172314.734000", "172314.734000", "172314.734000", "172314.734000", "172314.750000", "172314.750000", "172314.750000", "172314.750000", "172314.750000", "172414.687000", "172414.687000", "172414.703000", "172414.703000", "172414.703000", "172414.703000", "172414.703000", "172414.703000", "172414.703000", "172414.718000", "172414.718000", "172414.718000", "172414.718000", "172414.718000", "172414.718000", "172414.718000", "172414.734000", "172414.734000", "172414.734000", "172414.734000", "172414.734000", "172414.734000", "172414.734000", "172414.750000", "172414.750000", "172414.750000", "172414.750000", "172414.750000", "172514.687000", "172514.687000", "172514.703000", "172514.703000", "172514.703000", "172514.703000", "172514.703000", "172514.703000", "172514.703000", "172514.718000", "172514.718000", "172514.718000", "172514.718000", "172514.718000", "172514.718000", "172514.718000", "172514.734000", "172514.734000", "172514.734000", "172514.734000", "172514.734000", "172514.734000", "172514.750000", "172514.750000", "172514.750000", "172514.750000", "172514.750000", "172514.750000", "172606.843000", "172606.843000", "172606.859000", "172606.859000", "172606.859000", "172606.859000", "172606.859000", "172606.890000", "172606.890000", "172606.890000", "172606.890000", "172606.890000", "172606.890000", "172606.906000", "172606.906000", "172606.906000", "172606.906000", "172606.906000", "172606.906000", "172606.906000", "172606.921000", "172606.921000", "172606.921000", "172606.921000", "172606.921000"],
