{
  "AcquisitionMatrixPE": 104,
  "AcquisitionNumber": 1,
  "AcquisitionTime": "15:53:36.745000",
  "BandwidthPerPixelPhaseEncode": 13.935,
  "BaseResolution": 104,
  "CoilString": "C:HEA;HEP",
  "ConversionSoftware": "dcm2niix",
  "ConversionSoftwareVersion": "v1.0.20210317",
  "DerivedVendorReportedEchoSpacing": 0.000690017,
  "DeviceSerialNumber": "35450",
  "DwellTime": 2.5e-06,
  "EchoTime": 0.0348,
  "EffectiveEchoSpacing": 0.000690017,
  "FlipAngle": 55,
  "ImageComments": "Unaliased MB8/PE3",
  "ImageOrientationPatientDICOM": [1, 0, 0, 0, 0.977783, -0.209619],
  "ImageType": [
    "ORIGINAL",
    "PRIMARY",
    "M",
    "MB",
    "ND",
    "MOSAIC"
],
  "ImagingFrequency": 123.235,
  "InPlanePhaseEncodingDirectionDICOM": "COL",
  "InstitutionAddress": "Univeristy Ave. 197,Newark,North East,US,07102-1814",
  "InstitutionName": "RUBIC",
  "InstitutionalDepartmentName": "Department",
  "MRAcquisitionType": "2D",
  "MagneticFieldStrength": 3,
  "Manufacturer": "Siemens",
  "ManufacturersModelName": "TrioTim",
  "Modality": "MR",
  "MultibandAccelerationFactor": 8,
  "PartialFourier": 0.875,
  "PatientPosition": "HFS",
  "PercentPhaseFOV": 100,
  "PercentSampling": 100,
  "PhaseEncodingDirection": "j-",
  "PhaseEncodingSteps": 91,
  "PhaseResolution": 1,
  "PixelBandwidth": 1923,
  "ProcedureStepDescription": "Cole^Michael",
  "ProtocolName": "cmrr_mbep2d_bold_2mm_MB8_Task_8x",
  "PulseSequenceDetails": "%CustomerSeq%\\cmrr_mbep2d_bold",
  "ReceiveCoilName": "32Ch_Head",
  "ReconMatrixPE": 104,
  "RepetitionTime": 0.785,
  "SAR": 0.147782,
  "ScanOptions": "PFP\\FS",
  "ScanningSequence": "EP",
  "SequenceName": "epfid2d1_104",
  "SequenceVariant": "SK\\SS",
  "SeriesDescription": "cmrr_mbep2d_bold_2mm_MB8_Task_8x",
  "SeriesNumber": 17,
  "ShimSetting": [2130, -328, -7257, 503, 37, -427, -91, 18],
  "SliceThickness": 2,
  "SliceTiming": [0, 0.4375, 0.0875, 0.525, 0.175, 0.6125, 0.2625, 0.7, 0.35, 0, 0.4375, 0.0875, 0.525, 0.175, 0.6125, 0.2625, 0.7, 0.35, 0, 0.4375, 0.0875, 0.525, 0.175, 0.6125, 0.2625, 0.7, 0.35, 0, 0.4375, 0.0875, 0.525, 0.175, 0.6125, 0.2625, 0.7, 0.35, 0, 0.4375, 0.0875, 0.525, 0.175, 0.6125, 0.2625, 0.7, 0.35, 0, 0.4375, 0.0875, 0.525, 0.175, 0.6125, 0.2625, 0.7, 0.35, 0, 0.4375, 0.0875, 0.525, 0.175, 0.6125, 0.2625, 0.7, 0.35, 0, 0.4375, 0.0875, 0.525, 0.175, 0.6125, 0.2625, 0.7, 0.35],
  "SoftwareVersions": "syngo MR B19",
  "SpacingBetweenSlices": 2,
  "StationName": "MRC35450",
  "TaskName": "cpro",
  "TotalReadoutTime": 0.0710717,
  "TxRefAmp": 338.566,
  "dcmmeta_affine": [
    [-2.0, 0.0, 0.0, 102.6440658569336],
    [0.0, 1.9555665254592896, -0.4192371368408203, -74.48454284667969],
    [0.0, 0.4192371368408203, 1.95556640625, -110.92923736572266],
    [0.0, 0.0, 0.0, 1.0]
],
  "dcmmeta_reorient_transform": [
    [0.0, -1.0, 0.0, 103.0],
    [1.0, 0.0, 0.0, 0.0],
    [0.0, 0.0, 1.0, 0.0],
    [0.0, 0.0, 0.0, 1.0]
],
  "dcmmeta_shape": [104, 104, 72, 581],
  "dcmmeta_slice_dim": 2,
  "dcmmeta_version": 0.6,
  "global": {
    "const": {
      "AcquisitionMatrix": [104, 0, 0, 104],
      "AngioFlag": "N",
      "BitsAllocated": 16,
      "BitsStored": 12,
      "Columns": 936,
      "EchoNumbers": 1,
      "EchoTime": 34.8,
      "EchoTrainLength": 1,
      "FlipAngle": 55.0,
      "HighBit": 11,
      "ImageOrientationPatient": [1.0, 0.0, 0.0, 0.0, 0.97778323558311, -0.2096185683871],
      "ImagePositionPatient": [-934.64406776428, -940.45445237786, 106.65483853079],
      "ImageType": [
        "ORIGINAL",
        "PRIMARY",
        "M",
        "MB",
        "ND",
        "MOSAIC"
],
      "ImagedNucleus": "1H",
      "ImagingFrequency": 123.23451,
      "InPlanePhaseEncodingDirection": "COL",
      "MRAcquisitionType": "2D",
      "MagneticFieldStrength": 3.0,
      "Manufacturer": "SIEMENS",
      "ManufacturerModelName": "TrioTim",
      "Modality": "MR",
      "NumberOfAverages": 1.0,
      "NumberOfPhaseEncodingSteps": 91,
      "PercentPhaseFieldOfView": 100.0,
      "PercentSampling": 100.0,
      "PerformedProcedureStepStartTime": "145144.000000",
      "PhotometricInterpretation": "MONOCHROME2",
      "PixelBandwidth": 1923.0,
      "PixelRepresentation": 0,
      "PixelSpacing": [2.0, 2.0],
      "ProtocolName": "cmrr_mbep2d_bold_2mm_MB8_Task_8x",
      "RepetitionTime": 785.0,
      "Rows": 936,
      "SAR": 0.14778244927364,
      "SamplesPerPixel": 1,
      "ScanOptions": [
        "PFP",
        "FS"
],
      "ScanningSequence": "EP",
      "SequenceName": "epfid2d1_104",
      "SequenceVariant": [
        "SK",
        "SS"
],
      "SeriesDescription": "cmrr_mbep2d_bold_2mm_MB8_Task_8x",
      "SeriesNumber": 17,
      "SeriesTime": "162255.296000",
      "SliceLocation": -92.851402831447,
      "SliceThickness": 2.0,
      "SmallestImagePixelValue": 0,
      "SoftwareVersions": "syngo MR B19",
      "SpacingBetweenSlices": 1.9999999862589,
      "SpecificCharacterSet": "ISO_IR 100",
      "StudyID": "1",
      "StudyTime": "145143.968000",
      "TransmitCoilName": "Body",
      "VariableFlipAngleFlag": "N",
      "WindowCenterWidthExplanation": "Algo1",
      "dBdt": 0.0},
    "slices": {}
  },
  "time": {
    "samples": {
      "AcquisitionNumber": [1, 2, 3, 4, 5, 6, 7, 8, 9, 10, 11, 12, 13, 14, 15, 16, 17, 18, 19, 20, 21, 22, 23, 24, 25, 26, 27, 28, 29, 30, 31, 32, 33, 34, 35, 36, 37, 38, 39, 40, 41, 42, 43, 44, 45, 46, 47, 48, 49, 50, 51, 52, 53, 54, 55, 56, 57, 58, 59, 60, 61, 62, 63, 64, 65, 66, 67, 68, 69, 70, 71, 72, 73, 74, 75, 76, 77, 78, 79, 80, 81, 82, 83, 84, 85, 86, 87, 88, 89, 90, 91, 92, 93, 94, 95, 96, 97, 98, 99, 100, 101, 102, 103, 104, 105, 106, 107, 108, 109, 110, 111, 112, 113, 114, 115, 116, 117, 118, 119, 120, 121, 122, 123, 124, 125, 126, 127, 128, 129, 130, 131, 132, 133, 134, 135, 136, 137, 138, 139, 140, 141, 142, 143, 144, 145, 146, 147, 148, 149, 150, 151, 152, 153, 154, 155, 156, 157, 158, 159, 160, 161, 162, 163, 164, 165, 166, 167, 168, 169, 170, 171, 172, 173, 174, 175, 176, 177, 178, 179, 180, 181, 182, 183, 184, 185, 186, 187, 188, 189, 190, 191, 192, 193, 194, 195, 196, 197, 198, 199, 200, 201, 202, 203, 204, 205, 206, 207, 208, 209, 210, 211, 212, 213, 214, 215, 216, 217, 218, 219, 220, 221, 222, 223, 224, 225, 226, 227, 228, 229, 230, 231, 232, 233, 234, 235, 236, 237, 238, 239, 240, 241, 242, 243, 244, 245, 246, 247, 248, 249, 250, 251, 252, 253, 254, 255, 256, 257, 258, 259, 260, 261, 262, 263, 264, 265, 266, 267, 268, 269, 270, 271, 272, 273, 274, 275, 276, 277, 278, 279, 280, 281, 282, 283, 284, 285, 286, 287, 288, 289, 290, 291, 292, 293, 294, 295, 296, 297, 298, 299, 300, 301, 302, 303, 304, 305, 306, 307, 308, 309, 310, 311, 312, 313, 314, 315, 316, 317, 318, 319, 320, 321, 322, 323, 324, 325, 326, 327, 328, 329, 330, 331, 332, 333, 334, 335, 336, 337, 338, 339, 340, 341, 342, 343, 344, 345, 346, 347, 348, 349, 350, 351, 352, 353, 354, 355, 356, 357, 358, 359, 360, 361, 362, 363, 364, 365, 366, 367, 368, 369, 370, 371, 372, 373, 374, 375, 376, 377, 378, 379, 380, 381, 382, 383, 384, 385, 386, 387, 388, 389, 390, 391, 392, 393, 394, 395, 396, 397, 398, 399, 400, 401, 402, 403, 404, 405, 406, 407, 408, 409, 410, 411, 412, 413, 414, 415, 416, 417, 418, 419, 420, 421, 422, 423, 424, 425, 426, 427, 428, 429, 430, 431, 432, 433, 434, 435, 436, 437, 438, 439, 440, 441, 442, 443, 444, 445, 446, 447, 448, 449, 450, 451, 452, 453, 454, 455, 456, 457, 458, 459, 460, 461, 462, 463, 464, 465, 466, 467, 468, 469, 470, 471, 472, 473, 474, 475, 476, 477, 478, 479, 480, 481, 482, 483, 484, 485, 486, 487, 488, 489, 490, 491, 492, 493, 494, 495, 496, 497, 498, 499, 500, 501, 502, 503, 504, 505, 506, 507, 508, 509, 510, 511, 512, 513, 514, 515, 516, 517, 518, 519, 520, 521, 522, 523, 524, 525, 526, 527, 528, 529, 530, 531, 532, 533, 534, 535, 536, 537, 538, 539, 540, 541, 542, 543, 544, 545, 546, 547, 548, 549, 550, 551, 552, 553, 554, 555, 556, 557, 558, 559, 560, 561, 562, 563, 564, 565, 566, 567, 568, 569, 570, 571, 572, 573, 574, 575, 576, 577, 578, 579, 580, 581],
      "AcquisitionTime": ["155336.745000", "155337.532500", "155338.322500", "155339.110000", "155339.897500", "155340.685000", "155341.475000", "155342.262500", "155343.050000", "155343.837500", "155344.627500", "155345.415000", "155346.202500", "155346.992500", "155347.780000", "155348.567500", "155349.355000", "155350.145000", "155350.932500", "155351.720000", "155352.507500", "155353.297500", "155354.085000", "155354.872500", "155355.660000", "155356.450000", "155357.237500", "155358.025000", "155358.812500", "155359.602500", "155400.390000", "155401.177500", "155401.965000", "155402.755000", "155403.542500", "155404.330000", "155405.120000", "155405.907500", "155406.695000", "155407.482500", "155408.272500", "155409.060000", "155409.847500", "155410.635000", "155411.425000", "155412.212500", "155413.000000", "155413.787500", "155414.577500", "155415.365000", "155416.152500", "155416.940000", "155417.730000", "155418.517500", "155419.305000", "155420.095000", "155420.882500", "155421.670000", "155422.457500", "155423.247500", "155424.035000", "155424.822500", "155425.610000", "155426.400000", "155427.187500", "155427.975000", "155428.762500", "155429.552500", "155430.340000", "155431.127500", "155431.915000", "155432.705000", "155433.492500", "155434.280000", "155435.067500", "155435.857500", "155436.645000", "155437.432500", "155438.222500", "155439.010000", "155439.797500", "155440.585000", "155441.375000", "155442.162500", "155442.950000", "155443.737500", "155444.527500", "155445.315000", "155446.102500", "155446.890000", "155447.680000", "155448.467500", "155449.255000", "155450.042500", "155450.832500", "155451.620000", "155452.407500", "155453.195000", "155453.985000", "155454.772500", "155455.560000", "155456.350000", "155457.137500", "155457.925000", "155458.712500", "155459.502500", "155500.290000", "155501.077500", "155501.865000", "155502.655000", "155503.442500", "155504.230000", "155505.017500", "155505.807500", "155506.595000", "155507.382500", "155508.170000", "155508.960000", "155509.747500", "155510.535000", "155511.322500", "155512.112500", "155512.900000", "155513.687500", "155514.477500", "155515.265000", "155516.052500", "155516.840000", "155517.630000", "155518.417500", "155519.205000", "155519.992500", "155520.782500", "155521.570000", "155522.357500", "155523.145000", "155523.935000", "155524.722500", "155525.510000", "155526.297500", "155527.087500", "155527.875000", "155528.662500", "155529.450000", "155530.240000", "155531.027500", "155531.815000", "155532.605000", "155533.392500", "155534.180000", "155534.967500", "155535.757500", "155536.545000", "155537.332500", "155538.120000", "155538.910000", "155539.697500", "155540.485000", "155541.272500", "155542.062500", "155542.850000", "155543.637500", "155544.425000", "155545.215000", "155546.002500", "155546.790000", "155547.577500", "155548.367500", "155549.155000", "155549.942500", "155550.732500", "155551.520000", "155552.307500", "155553.095000", "155553.885000", "155554.672500", "155555.460000", "155556.247500", "155557.037500", "155557.825000", "155558.612500", "155559.400000", "155600.190000", "155600.977500", "155601.765000", "155602.552500", "155603.342500", "155604.130000", "155604.917500", "155605.705000", "155606.495000", "155607.282500", "155608.070000", "155608.860000", "155609.647500", "155610.435000", "155611.222500", "155612.012500", "155612.800000", "155613.587500", "155614.375000", "155615.165000", "155615.952500", "155616.740000", "155617.527500", "155618.317500", "155619.105000", "155619.892500", "155620.680000", "155621.470000", "155622.257500", "155623.045000", "155623.832500", "155624.622500", "155625.410000", "155626.197500", "155626.987500", "155627.775000", "155628.562500", "155629.350000", "155630.140000", "155630.927500", "155631.715000", "155632.502500", "155633.292500", "155634.080000", "155634.867500", "155635.655000", "155636.445000", "155637.232500", "155638.020000", "155638.807500", "155639.597500", "155640.385000", "155641.172500", "155641.960000", "155642.750000", "155643.537500", "155644.325000", "155645.115000", "155645.902500", "155646.690000", "155647.477500", "155648.267500", "155649.055000", "155649.842500", "155650.630000", "155651.420000", "155652.207500", "155652.995000", "155653.782500", "155654.572500", "155655.360000", "155656.147500", "155656.935000", "155657.725000", "155658.512500", "155659.300000", "155700.087500", "155700.877500", "155701.665000", "155702.452500", "155703.242500", "155704.030000", "155704.817500", "155705.605000", "155706.395000", "155707.182500", "155707.970000", "155708.757500", "155709.547500", "155710.335000", "155711.122500", "155711.910000", "155712.700000", "155713.487500", "155714.275000", "155715.062500", "155715.852500", "155716.640000", "155717.427500", "155718.215000", "155719.005000", "155719.792500", "155720.580000", "155721.370000", "155722.157500", "155722.945000", "155723.732500", "155724.522500", "155725.310000", "155726.097500", "155726.885000", "155727.675000", "155728.462500", "155729.250000", "155730.037500", "155730.827500", "155731.615000", "155732.402500", "155733.190000", "155733.980000", "155734.767500", "155735.555000", "155736.345000", "155737.132500", "155737.920000", "155738.707500", "155739.497500", "155740.285000", "155741.072500", "155741.860000", "155742.650000", "155743.437500", "155744.225000", "155745.012500", "155745.802500", "155746.590000", "155747.377500", "155748.165000", "155748.955000", "155749.742500", "155750.530000", "155751.317500", "155752.107500", "155752.895000", "155753.682500", "155754.472500", "155755.260000", "155756.047500", "155756.835000", "155757.625000", "155758.412500", "155759.200000", "155759.987500", "155800.777500", "155801.565000", "155802.352500", "155803.140000", "155803.930000", "155804.717500", "155805.505000", "155806.292500", "155807.082500", "155807.870000", "155808.657500", "155809.445000", "155810.235000", "155811.022500", "155811.810000", "155812.600000", "155813.387500", "155814.175000", "155814.962500", "155815.752500", "155816.540000", "155817.327500", "155818.115000", "155818.905000", "155819.692500", "155820.480000", "155821.267500", "155822.057500", "155822.845000", "155823.632500", "155824.420000", "155825.210000", "155825.997500", "155826.785000", "155827.572500", "155828.362500", "155829.150000", "155829.937500", "155830.727500", "155831.515000", "155832.302500", "155833.090000", "155833.880000", "155834.667500", "155835.455000", "155836.242500", "155837.032500", "155837.820000", "155838.607500", "155839.395000", "155840.185000", "155840.972500", "155841.760000", "155842.547500", "155843.337500", "155844.125000", "155844.912500", "155845.700000", "155846.490000", "155847.277500", "155848.065000", "155848.855000", "155849.642500", "155850.430000", "155851.217500", "155852.007500", "155852.795000", "155853.582500", "155854.370000", "155855.160000", "155855.947500", "155856.735000", "155857.522500", "155858.312500", "155859.100000", "155859.887500", "155900.675000", "155901.465000", "155902.252500", "155903.040000", "155903.827500", "155904.617500", "155905.405000", "155906.192500", "155906.982500", "155907.770000", "155908.557500", "155909.345000", "155910.135000", "155910.922500", "155911.710000", "155912.497500", "155913.287500", "155914.075000", "155914.862500", "155915.650000", "155916.440000", "155917.227500", "155918.015000", "155918.802500", "155919.592500", "155920.380000", "155921.167500", "155921.955000", "155922.745000", "155923.532500", "155924.320000", "155925.110000", "155925.897500", "155926.685000", "155927.472500", "155928.262500", "155929.050000", "155929.837500", "155930.625000", "155931.415000", "155932.202500", "155932.990000", "155933.777500", "155934.567500", "155935.355000", "155936.142500", "155936.930000", "155937.720000", "155938.507500", "155939.295000", "155940.082500", "155940.872500", "155941.660000", "155942.447500", "155943.237500", "155944.025000", "155944.812500", "155945.600000", "155946.390000", "155947.177500", "155947.965000", "155948.752500", "155949.542500", "155950.330000", "155951.117500", "155951.905000", "155952.695000", "155953.482500", "155954.270000", "155955.057500", "155955.847500", "155956.635000", "155957.422500", "155958.210000", "155959.000000", "155959.787500", "160000.575000", "160001.365000", "160002.152500", "160002.940000", "160003.727500", "160004.517500", "160005.305000", "160006.092500", "160006.880000", "160007.670000", "160008.457500", "160009.245000", "160010.032500", "160010.822500", "160011.610000", "160012.397500", "160013.185000", "160013.975000", "160014.762500", "160015.550000", "160016.337500", "160017.127500", "160017.915000", "160018.702500", "160019.492500", "160020.280000", "160021.067500", "160021.855000", "160022.645000", "160023.432500", "160024.220000", "160025.007500", "160025.797500", "160026.585000", "160027.372500", "160028.160000", "160028.950000", "160029.737500", "160030.525000", "160031.312500", "160032.102500", "160032.890000", "160033.677500", "160034.465000", "160035.255000", "160036.042500", "160036.830000", "160037.620000", "160038.407500", "160039.195000", "160039.982500", "160040.772500", "160041.560000", "160042.347500", "160043.135000", "160043.925000", "160044.712500", "160045.500000", "160046.287500", "160047.077500", "160047.865000", "160048.652500", "160049.440000", "160050.230000", "160051.017500", "160051.805000", "160052.595000", "160053.382500", "160054.170000", "160054.957500", "160055.747500", "160056.535000", "160057.322500", "160058.110000", "160058.900000", "160059.687500", "160100.475000", "160101.262500", "160102.052500", "160102.840000", "160103.627500", "160104.415000", "160105.205000", "160105.992500", "160106.780000", "160107.567500", "160108.357500", "160109.145000", "160109.932500", "160110.722500", "160111.510000", "160112.297500", "160113.085000", "160113.875000"],
      "ContentTime": ["162255.296000", "162255.296000", "162255.296000", "162255.296000", "162255.296000", "162255.312000", "162255.312000", "162355.265000", "162355.265000", "162355.265000", "162355.281000", "162355.281000", "162355.281000", "162355.281000", "162355.281000", "162355.281000", "162355.281000", "162355.296000", "162355.296000", "162355.296000", "162355.296000", "162355.296000", "162355.296000", "162355.312000", "162355.312000", "162355.312000", "162355.312000", "162355.312000", "162355.312000", "162355.312000", "162355.312000", "162355.328000", "162355.328000", "162355.328000", "162455.265000", "162455.265000", "162455.265000", "162455.281000", "162455.281000", "162455.281000", "162455.281000", "162455.281000", "162455.281000", "162455.281000", "162455.296000", "162455.296000", "162455.296000", "162455.296000", "162455.296000", "162455.296000", "162455.296000", "162455.312000", "162455.312000", "162455.312000", "162455.312000", "162455.312000", "162455.312000", "162455.312000", "162455.328000", "162455.328000", "162455.328000", "162455.328000", "162555.265000", "162555.265000", "162555.265000", "162555.281000", "162555.281000", "162555.281000", "162555.281000", "162555.281000", "162555.281000", "162555.281000", "162555.296000", "162555.296000", "162555.296000", "162555.296000", "162555.296000", "162555.296000", "162555.296000", "162555.312000", "162555.312000", "162555.312000", "162555.312000", "162555.312000", "162555.312000", "162555.312000", "162555.312000", "162555.328000", "162555.328000", "162655.265000", "162655.265000", "162655.265000", "162655.281000", "162655.281000", "162655.281000", "162655.281000", "162655.281000", "162655.281000", "162655.281000", "162655.296000", "162655.296000", "162655.296000", "162655.296000", "162655.296000", "162655.296000", "162655.296000", "162655.312000", "162655.312000", "162655.312000", "162655.312000", "162655.312000", "162655.312000", "162655.328000", "162655.328000", "162655.328000", "162655.328000", "162655.343000", "162755.265000", "162755.265000", "162755.265000", "162755.281000", "162755.281000", "162755.281000", "162755.281000", "162755.281000", "162755.281000", "162755.281000", "162755.296000", "162755.296000", "162755.296000", "162755.296000", "162755.296000", "162755.296000", "162755.296000", "162755.312000", "162755.312000", "162755.312000", "162755.312000", "162755.312000", "162755.312000", "162755.312000", "162755.328000", "162755.328000", "162755.328000", "162755.328000", "162855.265000", "162855.265000", "162855.265000", "162855.281000", "162855.281000", "162855.281000", "162855.281000", "162855.281000", "162855.281000", "162855.281000", "162855.296000", "162855.296000", "162855.296000", "162855.296000", "162855.296000", "162855.296000", "162855.296000", "162855.312000", "162855.312000", "162855.312000", "162855.312000", "162855.312000", "162855.312000", "162855.312000", "162855.328000", "162855.328000", "162855.328000", "162955.265000", "162955.265000", "162955.265000", "162955.281000", "162955.281000", "162955.281000", "162955.281000", "162955.281000", "162955.281000", "162955.281000", "162955.296000", "162955.296000", "162955.296000", "162955.296000", "162955.296000", "162955.296000", "162955.296000", "162955.296000", "162955.312000", "162955.312000", "162955.312000", "162955.312000", "162955.328000", "162955.328000", "162955.328000", "162955.328000", "162955.328000", "163055.265000", "163055.265000", "163055.265000", "163055.281000", "163055.281000", "163055.281000", "163055.281000", "163055.281000", "163055.281000", "163055.296000", "163055.296000", "163055.296000", "163055.296000", "163055.296000", "163055.296000", "163055.296000", "163055.312000", "163055.312000", "163055.312000", "163055.312000", "163055.312000", "163055.312000", "163055.312000", "163055.328000", "163055.328000", "163055.328000", "163055.328000", "163055.343000", "163155.265000", "163155.265000", "163155.265000", "163155.281000", "163155.281000", "163155.281000", "163155.281000", "163155.281000", "163155.281000", "163155.281000", "163155.296000", "163155.296000", "163155.296000", "163155.296000", "163155.296000", "163155.296000", "163155.296000", "163155.312000", "163155.312000", "163155.312000", "163155.328000", "163155.328000", "163155.328000", "163155.328000", "163155.328000", "163155.328000", "163155.328000", "163255.265000", "163255.265000", "163255.265000", "163255.281000", "163255.281000", "163255.281000", "163255.281000", "163255.281000", "163255.281000", "163255.281000", "163255.296000", "163255.296000", "163255.296000", "163255.296000", "163255.296000", "163255.296000", "163255.296000", "163255.312000", "163255.312000", "163255.312000", "163255.312000", "163255.312000", "163255.312000", "163255.312000", "163255.328000", "163255.328000", "163255.328000", "163255.328000", "163355.265000", "163355.265000", "163355.265000", "163355.281000", "163355.281000", "163355.281000", "163355.281000", "163355.281000", "163355.281000", "163355.281000", "163355.296000", "163355.296000", "163355.296000", "163355.296000", "163355.296000", "163355.296000", "163355.296000", "163355.312000", "163355.312000", "163355.312000", "163355.312000", "163355.312000", "163355.312000", "163355.312000", "163355.328000", "163355.328000", "163355.328000", "163455.265000", "163455.281000", "163455.281000", "163455.281000", "163455.281000", "163455.281000", "163455.281000", "163455.281000", "163455.296000", "163455.296000", "163455.296000", "163455.296000", "163455.296000", "163455.296000", "163455.296000", "163455.312000", "163455.312000", "163455.312000", "163455.312000", "163455.312000", "163455.312000", "163455.328000", "163455.328000", "163455.328000", "163455.328000", "163455.328000", "163455.328000", "163455.328000", "163555.265000", "163555.281000", "163555.281000", "163555.281000", "163555.281000", "163555.281000", "163555.281000", "163555.281000", "163555.296000", "163555.296000", "163555.296000", "163555.296000", "163555.296000", "163555.296000", "163555.296000", "163555.312000", "163555.312000", "163555.312000", "163555.312000", "163555.312000", "163555.312000", "163555.312000", "163555.328000", "163555.328000", "163555.328000", "163555.328000", "163555.328000", "163655.265000", "163655.281000", "163655.281000", "163655.281000", "163655.281000", "163655.281000", "163655.281000", "163655.281000", "163655.296000", "163655.296000", "163655.296000", "163655.296000", "163655.296000", "163655.296000", "163655.296000", "163655.312000", "163655.312000", "163655.312000", "163655.312000", "163655.312000", "163655.312000", "163655.328000", "163655.328000", "163655.328000", "163655.328000", "163655.343000", "163655.343000", "163755.265000", "163755.281000", "163755.281000", "163755.281000", "163755.281000", "163755.281000", "163755.281000", "163755.281000", "163755.296000", "163755.296000", "163755.296000", "163755.296000", "163755.296000", "163755.296000", "163755.296000", "163755.312000", "163755.312000", "163755.312000", "163755.312000", "163755.312000", "163755.312000", "163755.312000", "163755.328000", "163755.328000", "163755.328000", "163755.328000", "163755.328000", "163755.328000", "163855.265000", "163855.281000", "163855.281000", "163855.281000", "163855.281000", "163855.281000", "163855.281000", "163855.281000", "163855.296000", "163855.296000", "163855.296000", "163855.296000", "163855.296000", "163855.296000", "163855.296000", "163855.312000", "163855.312000", "163855.312000", "163855.312000", "163855.312000", "163855.312000", "163855.328000", "163855.328000", "163855.328000", "163855.328000", "163855.328000", "163855.328000", "163915.265000", "163915.281000", "163915.281000", "163915.281000", "163915.281000", "163915.281000", "163915.281000", "163915.281000", "163915.296000", "164015.265000", "164015.281000", "164015.281000", "164015.281000", "164015.281000", "164015.281000", "164015.281000", "164015.281000", "164015.296000", "164015.296000", "164015.296000", "164015.296000", "164015.296000", "164015.312000", "164015.312000", "164015.312000", "164015.312000", "164015.312000", "164015.312000", "164015.312000", "164015.328000", "164015.328000", "164015.328000", "164015.328000", "164015.328000", "164015.328000", "164015.328000", "164115.265000", "164115.281000", "164115.281000", "164115.281000", "164115.281000", "164115.281000", "164115.281000", "164115.281000", "164115.296000", "164115.296000", "164115.296000", "164115.296000", "164115.296000", "164115.296000", "164115.296000", "164115.312000", "164115.312000", "164115.312000", "164115.312000", "164115.312000", "164115.312000", "164115.312000", "164115.328000", "164115.328000", "164115.328000", "164115.328000", "164115.328000", "164115.328000", "164215.265000", "164215.281000", "164215.281000", "164215.281000", "164215.281000", "164215.281000", "164215.281000", "164215.281000", "164215.296000", "164215.296000", "164215.296000", "164215.296000", "164215.296000", "164215.296000", "164215.296000", "164215.312000", "164215.312000", "164215.312000", "164215.312000", "164215.312000", "164215.312000", "164215.328000", "164215.328000", "164215.328000", "164215.328000", "164215.328000", "164215.328000", "164315.265000", "164315.265000", "164315.281000", "164315.281000", "164315.281000", "164315.281000", "164315.281000", "164315.281000", "164315.281000", "164315.296000", "164315.296000", "164315.296000", "164315.296000", "164315.296000", "164315.312000", "164315.312000", "164315.312000", "164315.312000", "164315.312000", "164315.312000", "164315.312000", "164315.328000", "164315.328000", "164315.328000", "164315.328000", "164315.328000", "164315.328000", "164315.343000", "164348.625000", "164348.625000", "164348.625000", "164348.625000", "164348.640000", "164348.640000", "164348.640000", "164348.640000", "164348.640000", "164348.656000", "164348.656000", "164348.656000", "164348.656000", "164348.656000", "164348.671000", "164348.671000"],
