{
  "AcquisitionMatrixPE": 104,
  "AcquisitionNumber": 1,
  "AcquisitionTime": "16:43:11.757500",
  "BandwidthPerPixelPhaseEncode": 13.935,
  "BaseResolution": 104,
  "CoilString": "C:HEA;HEP",
  "ConversionSoftware": "dcm2niix",
  "ConversionSoftwareVersion": "v1.0.20210317",
  "DerivedVendorReportedEchoSpacing": 0.000690017,
  "DeviceSerialNumber": "35450",
  "DwellTime": 2.5e-06,
  "EchoTime": 0.0348,
  "EffectiveEchoSpacing": 0.000690017,
  "FlipAngle": 55,
  "ImageComments": "Unaliased MB8/PE3",
  "ImageOrientationPatientDICOM": [1, 0, 0, 0, 0.977783, -0.209619],
  "ImageType": [
    "ORIGINAL",
    "PRIMARY",
    "M",
    "MB",
    "ND",
    "MOSAIC"
],
  "ImagingFrequency": 123.235,
  "InPlanePhaseEncodingDirectionDICOM": "COL",
  "InstitutionAddress": "Univeristy Ave. 197,Newark,North East,US,07102-1814",
  "InstitutionName": "RUBIC",
  "InstitutionalDepartmentName": "Department",
  "MRAcquisitionType": "2D",
  "MagneticFieldStrength": 3,
  "Manufacturer": "Siemens",
  "ManufacturersModelName": "TrioTim",
  "Modality": "MR",
  "MultibandAccelerationFactor": 8,
  "PartialFourier": 0.875,
  "PatientPosition": "HFS",
  "PercentPhaseFOV": 100,
  "PercentSampling": 100,
  "PhaseEncodingDirection": "j-",
  "PhaseEncodingSteps": 91,
  "PhaseResolution": 1,
  "PixelBandwidth": 1923,
  "ProcedureStepDescription": "Cole^Michael",
  "ProtocolName": "cmrr_mbep2d_bold_2mm_MB8_Task_8x",
  "PulseSequenceDetails": "%CustomerSeq%\\cmrr_mbep2d_bold",
  "ReceiveCoilName": "32Ch_Head",
  "ReconMatrixPE": 104,
  "RepetitionTime": 0.785,
  "SAR": 0.133822,
  "ScanOptions": "PFP\\FS",
  "ScanningSequence": "EP",
  "SequenceName": "epfid2d1_104",
  "SequenceVariant": "SK\\SS",
  "SeriesDescription": "cmrr_mbep2d_bold_2mm_MB8_Task_8x",
  "SeriesNumber": 29,
  "ShimSetting": [2130, -328, -7257, 503, 37, -427, -91, 18],
  "SliceThickness": 2,
  "SliceTiming": [0, 0.4375, 0.0875, 0.525, 0.175, 0.615, 0.2625, 0.7025, 0.35, 0, 0.4375, 0.0875, 0.525, 0.175, 0.615, 0.2625, 0.7025, 0.35, 0, 0.4375, 0.0875, 0.525, 0.175, 0.615, 0.2625, 0.7025, 0.35, 0, 0.4375, 0.0875, 0.525, 0.175, 0.615, 0.2625, 0.7025, 0.35, 0, 0.4375, 0.0875, 0.525, 0.175, 0.615, 0.2625, 0.7025, 0.35, 0, 0.4375, 0.0875, 0.525, 0.175, 0.615, 0.2625, 0.7025, 0.35, 0, 0.4375, 0.0875, 0.525, 0.175, 0.615, 0.2625, 0.7025, 0.35, 0, 0.4375, 0.0875, 0.525, 0.175, 0.615, 0.2625, 0.7025, 0.35],
  "SoftwareVersions": "syngo MR B19",
  "SpacingBetweenSlices": 2,
  "StationName": "MRC35450",
  "TaskName": "cpro",
  "TotalReadoutTime": 0.0710717,
  "TxRefAmp": 338.566,
  "dcmmeta_affine": [
    [-2.0, 0.0, 0.0, 102.6440658569336],
    [0.0, 1.9555665254592896, -0.4192371368408203, -74.48454284667969],
    [0.0, 0.4192371368408203, 1.95556640625, -110.92923736572266],
    [0.0, 0.0, 0.0, 1.0]
],
  "dcmmeta_reorient_transform": [
    [0.0, -1.0, 0.0, 103.0],
    [1.0, 0.0, 0.0, 0.0],
    [0.0, 0.0, 1.0, 0.0],
    [0.0, 0.0, 0.0, 1.0]
],
  "dcmmeta_shape": [104, 104, 72, 581],
  "dcmmeta_slice_dim": 2,
  "dcmmeta_version": 0.6,
  "global": {
    "const": {
      "AcquisitionMatrix": [104, 0, 0, 104],
      "AngioFlag": "N",
      "BitsAllocated": 16,
      "BitsStored": 12,
      "Columns": 936,
      "EchoNumbers": 1,
      "EchoTime": 34.8,
      "EchoTrainLength": 1,
      "FlipAngle": 55.0,
      "HighBit": 11,
      "ImageOrientationPatient": [1.0, 0.0, 0.0, 0.0, 0.97778323558311, -0.2096185683871],
      "ImagePositionPatient": [-934.64406776428, -940.45445237786, 106.65483853079],
      "ImageType": [
        "ORIGINAL",
        "PRIMARY",
        "M",
        "MB",
        "ND",
        "MOSAIC"
],
      "ImagedNucleus": "1H",
      "ImagingFrequency": 123.23451,
      "InPlanePhaseEncodingDirection": "COL",
      "MRAcquisitionType": "2D",
      "MagneticFieldStrength": 3.0,
      "Manufacturer": "SIEMENS",
      "ManufacturerModelName": "TrioTim",
      "Modality": "MR",
      "NumberOfAverages": 1.0,
      "NumberOfPhaseEncodingSteps": 91,
      "PercentPhaseFieldOfView": 100.0,
      "PercentSampling": 100.0,
      "PerformedProcedureStepStartTime": "145144.000000",
      "PhotometricInterpretation": "MONOCHROME2",
      "PixelBandwidth": 1923.0,
      "PixelRepresentation": 0,
      "PixelSpacing": [2.0, 2.0],
      "ProtocolName": "cmrr_mbep2d_bold_2mm_MB8_Task_8x",
      "RepetitionTime": 785.0,
      "Rows": 936,
      "SAR": 0.13382157815659,
      "SamplesPerPixel": 1,
      "ScanOptions": [
        "PFP",
        "FS"
],
      "ScanningSequence": "EP",
      "SequenceName": "epfid2d1_104",
      "SequenceVariant": [
        "SK",
        "SS"
],
      "SeriesDescription": "cmrr_mbep2d_bold_2mm_MB8_Task_8x",
      "SeriesNumber": 29,
      "SeriesTime": "182922.406000",
      "SliceLocation": -92.851402831447,
      "SliceThickness": 2.0,
      "SmallestImagePixelValue": 0,
      "SoftwareVersions": "syngo MR B19",
      "SpacingBetweenSlices": 1.9999999862589,
      "SpecificCharacterSet": "ISO_IR 100",
      "StudyID": "1",
      "StudyTime": "145143.968000",
      "TransmitCoilName": "Body",
      "VariableFlipAngleFlag": "N",
      "WindowCenterWidthExplanation": "Algo1",
      "dBdt": 0.0},
    "slices": {}
  },
  "time": {
    "samples": {
      "AcquisitionNumber": [1, 2, 3, 4, 5, 6, 7, 8, 9, 10, 11, 12, 13, 14, 15, 16, 17, 18, 19, 20, 21, 22, 23, 24, 25, 26, 27, 28, 29, 30, 31, 32, 33, 34, 35, 36, 37, 38, 39, 40, 41, 42, 43, 44, 45, 46, 47, 48, 49, 50, 51, 52, 53, 54, 55, 56, 57, 58, 59, 60, 61, 62, 63, 64, 65, 66, 67, 68, 69, 70, 71, 72, 73, 74, 75, 76, 77, 78, 79, 80, 81, 82, 83, 84, 85, 86, 87, 88, 89, 90, 91, 92, 93, 94, 95, 96, 97, 98, 99, 100, 101, 102, 103, 104, 105, 106, 107, 108, 109, 110, 111, 112, 113, 114, 115, 116, 117, 118, 119, 120, 121, 122, 123, 124, 125, 126, 127, 128, 129, 130, 131, 132, 133, 134, 135, 136, 137, 138, 139, 140, 141, 142, 143, 144, 145, 146, 147, 148, 149, 150, 151, 152, 153, 154, 155, 156, 157, 158, 159, 160, 161, 162, 163, 164, 165, 166, 167, 168, 169, 170, 171, 172, 173, 174, 175, 176, 177, 178, 179, 180, 181, 182, 183, 184, 185, 186, 187, 188, 189, 190, 191, 192, 193, 194, 195, 196, 197, 198, 199, 200, 201, 202, 203, 204, 205, 206, 207, 208, 209, 210, 211, 212, 213, 214, 215, 216, 217, 218, 219, 220, 221, 222, 223, 224, 225, 226, 227, 228, 229, 230, 231, 232, 233, 234, 235, 236, 237, 238, 239, 240, 241, 242, 243, 244, 245, 246, 247, 248, 249, 250, 251, 252, 253, 254, 255, 256, 257, 258, 259, 260, 261, 262, 263, 264, 265, 266, 267, 268, 269, 270, 271, 272, 273, 274, 275, 276, 277, 278, 279, 280, 281, 282, 283, 284, 285, 286, 287, 288, 289, 290, 291, 292, 293, 294, 295, 296, 297, 298, 299, 300, 301, 302, 303, 304, 305, 306, 307, 308, 309, 310, 311, 312, 313, 314, 315, 316, 317, 318, 319, 320, 321, 322, 323, 324, 325, 326, 327, 328, 329, 330, 331, 332, 333, 334, 335, 336, 337, 338, 339, 340, 341, 342, 343, 344, 345, 346, 347, 348, 349, 350, 351, 352, 353, 354, 355, 356, 357, 358, 359, 360, 361, 362, 363, 364, 365, 366, 367, 368, 369, 370, 371, 372, 373, 374, 375, 376, 377, 378, 379, 380, 381, 382, 383, 384, 385, 386, 387, 388, 389, 390, 391, 392, 393, 394, 395, 396, 397, 398, 399, 400, 401, 402, 403, 404, 405, 406, 407, 408, 409, 410, 411, 412, 413, 414, 415, 416, 417, 418, 419, 420, 421, 422, 423, 424, 425, 426, 427, 428, 429, 430, 431, 432, 433, 434, 435, 436, 437, 438, 439, 440, 441, 442, 443, 444, 445, 446, 447, 448, 449, 450, 451, 452, 453, 454, 455, 456, 457, 458, 459, 460, 461, 462, 463, 464, 465, 466, 467, 468, 469, 470, 471, 472, 473, 474, 475, 476, 477, 478, 479, 480, 481, 482, 483, 484, 485, 486, 487, 488, 489, 490, 491, 492, 493, 494, 495, 496, 497, 498, 499, 500, 501, 502, 503, 504, 505, 506, 507, 508, 509, 510, 511, 512, 513, 514, 515, 516, 517, 518, 519, 520, 521, 522, 523, 524, 525, 526, 527, 528, 529, 530, 531, 532, 533, 534, 535, 536, 537, 538, 539, 540, 541, 542, 543, 544, 545, 546, 547, 548, 549, 550, 551, 552, 553, 554, 555, 556, 557, 558, 559, 560, 561, 562, 563, 564, 565, 566, 567, 568, 569, 570, 571, 572, 573, 574, 575, 576, 577, 578, 579, 580, 581],
      "AcquisitionTime": ["164311.757500", "164312.547500", "164313.335000", "164314.122500", "164314.910000", "164315.700000", "164316.487500", "164317.275000", "164318.065000", "164318.852500", "164319.640000", "164320.427500", "164321.217500", "164322.005000", "164322.792500", "164323.580000", "164324.370000", "164325.157500", "164325.945000", "164326.732500", "164327.522500", "164328.310000", "164329.097500", "164329.885000", "164330.675000", "164331.462500", "164332.250000", "164333.037500", "164333.827500", "164334.615000", "164335.402500", "164336.192500", "164336.980000", "164337.767500", "164338.555000", "164339.345000", "164340.132500", "164340.920000", "164341.707500", "164342.497500", "164343.285000", "164344.072500", "164344.860000", "164345.650000", "164346.437500", "164347.225000", "164348.012500", "164348.802500", "164349.590000", "164350.377500", "164351.165000", "164351.955000", "164352.742500", "164353.530000", "164354.320000", "164355.107500", "164355.895000", "164356.682500", "164357.472500", "164358.260000", "164359.047500", "164359.835000", "164400.625000", "164401.412500", "164402.200000", "164402.987500", "164403.777500", "164404.565000", "164405.352500", "164406.140000", "164406.930000", "164407.717500", "164408.505000", "164409.292500", "164410.082500", "164410.870000", "164411.657500", "164412.447500", "164413.235000", "164414.022500", "164414.810000", "164415.600000", "164416.387500", "164417.175000", "164417.962500", "164418.752500", "164419.540000", "164420.327500", "164421.115000", "164421.905000", "164422.692500", "164423.480000", "164424.267500", "164425.057500", "164425.845000", "164426.632500", "164427.420000", "164428.210000", "164428.997500", "164429.785000", "164430.575000", "164431.362500", "164432.150000", "164432.937500", "164433.727500", "164434.515000", "164435.302500", "164436.090000", "164436.880000", "164437.667500", "164438.455000", "164439.242500", "164440.032500", "164440.820000", "164441.607500", "164442.395000", "164443.185000", "164443.972500", "164444.760000", "164445.547500", "164446.337500", "164447.125000", "164447.912500", "164448.702500", "164449.490000", "164450.277500", "164451.065000", "164451.855000", "164452.642500", "164453.430000", "164454.217500", "164455.007500", "164455.795000", "164456.582500", "164457.370000", "164458.160000", "164458.947500", "164459.735000", "164500.522500", "164501.312500", "164502.100000", "164502.887500", "164503.675000", "164504.465000", "164505.252500", "164506.040000", "164506.830000", "164507.617500", "164508.405000", "164509.192500", "164509.982500", "164510.770000", "164511.557500", "164512.345000", "164513.135000", "164513.922500", "164514.710000", "164515.497500", "164516.287500", "164517.075000", "164517.862500", "164518.650000", "164519.440000", "164520.227500", "164521.015000", "164521.802500", "164522.592500", "164523.380000", "164524.167500", "164524.957500", "164525.745000", "164526.532500", "164527.320000", "164528.110000", "164528.897500", "164529.685000", "164530.472500", "164531.262500", "164532.050000", "164532.837500", "164533.625000", "164534.415000", "164535.202500", "164535.990000", "164536.777500", "164537.567500", "164538.355000", "164539.142500", "164539.930000", "164540.720000", "164541.507500", "164542.295000", "164543.085000", "164543.872500", "164544.660000", "164545.447500", "164546.237500", "164547.025000", "164547.812500", "164548.600000", "164549.390000", "164550.177500", "164550.965000", "164551.752500", "164552.542500", "164553.330000", "164554.117500", "164554.905000", "164555.695000", "164556.482500", "164557.270000", "164558.057500", "164558.847500", "164559.635000", "164600.422500", "164601.212500", "164602.000000", "164602.787500", "164603.575000", "164604.365000", "164605.152500", "164605.940000", "164606.727500", "164607.517500", "164608.305000", "164609.092500", "164609.880000", "164610.670000", "164611.457500", "164612.245000", "164613.032500", "164613.822500", "164614.610000", "164615.397500", "164616.187500", "164616.975000", "164617.762500", "164618.550000", "164619.340000", "164620.127500", "164620.915000", "164621.702500", "164622.492500", "164623.280000", "164624.067500", "164624.855000", "164625.645000", "164626.432500", "164627.220000", "164628.007500", "164628.797500", "164629.585000", "164630.372500", "164631.160000", "164631.950000", "164632.737500", "164633.525000", "164634.315000", "164635.102500", "164635.890000", "164636.677500", "164637.467500", "164638.255000", "164639.042500", "164639.830000", "164640.620000", "164641.407500", "164642.195000", "164642.982500", "164643.772500", "164644.560000", "164645.347500", "164646.135000", "164646.925000", "164647.712500", "164648.500000", "164649.287500", "164650.077500", "164650.865000", "164651.652500", "164652.442500", "164653.230000", "164654.017500", "164654.805000", "164655.595000", "164656.382500", "164657.170000", "164657.957500", "164658.747500", "164659.535000", "164700.322500", "164701.110000", "164701.900000", "164702.687500", "164703.475000", "164704.262500", "164705.052500", "164705.840000", "164706.627500", "164707.415000", "164708.205000", "164708.992500", "164709.780000", "164710.570000", "164711.357500", "164712.145000", "164712.932500", "164713.722500", "164714.510000", "164715.297500", "164716.085000", "164716.875000", "164717.662500", "164718.450000", "164719.237500", "164720.027500", "164720.815000", "164721.602500", "164722.390000", "164723.180000", "164723.967500", "164724.755000", "164725.542500", "164726.332500", "164727.120000", "164727.907500", "164728.697500", "164729.485000", "164730.272500", "164731.060000", "164731.850000", "164732.637500", "164733.425000", "164734.212500", "164735.002500", "164735.790000", "164736.577500", "164737.365000", "164738.155000", "164738.942500", "164739.730000", "164740.517500", "164741.307500", "164742.095000", "164742.882500", "164743.670000", "164744.460000", "164745.247500", "164746.035000", "164746.825000", "164747.612500", "164748.400000", "164749.187500", "164749.977500", "164750.765000", "164751.552500", "164752.340000", "164753.130000", "164753.917500", "164754.705000", "164755.492500", "164756.282500", "164757.070000", "164757.857500", "164758.645000", "164759.435000", "164800.222500", "164801.010000", "164801.797500", "164802.587500", "164803.375000", "164804.162500", "164804.952500", "164805.740000", "164806.527500", "164807.315000", "164808.105000", "164808.892500", "164809.680000", "164810.467500", "164811.257500", "164812.045000", "164812.832500", "164813.620000", "164814.410000", "164815.197500", "164815.985000", "164816.772500", "164817.562500", "164818.350000", "164819.137500", "164819.925000", "164820.715000", "164821.502500", "164822.290000", "164823.080000", "164823.867500", "164824.655000", "164825.442500", "164826.232500", "164827.020000", "164827.807500", "164828.595000", "164829.385000", "164830.172500", "164830.960000", "164831.747500", "164832.537500", "164833.325000", "164834.112500", "164834.900000", "164835.690000", "164836.477500", "164837.265000", "164838.052500", "164838.842500", "164839.630000", "164840.417500", "164841.207500", "164841.995000", "164842.782500", "164843.570000", "164844.360000", "164845.147500", "164845.935000", "164846.722500", "164847.512500", "164848.300000", "164849.087500", "164849.875000", "164850.665000", "164851.452500", "164852.240000", "164853.027500", "164853.817500", "164854.605000", "164855.392500", "164856.180000", "164856.970000", "164857.757500", "164858.545000", "164859.335000", "164900.122500", "164900.910000", "164901.697500", "164902.487500", "164903.275000", "164904.062500", "164904.850000", "164905.640000", "164906.427500", "164907.215000", "164908.002500", "164908.792500", "164909.580000", "164910.367500", "164911.155000", "164911.945000", "164912.732500", "164913.520000", "164914.307500", "164915.097500", "164915.885000", "164916.672500", "164917.462500", "164918.250000", "164919.037500", "164919.825000", "164920.615000", "164921.402500", "164922.190000", "164922.977500", "164923.767500", "164924.555000", "164925.342500", "164926.130000", "164926.920000", "164927.707500", "164928.495000", "164929.282500", "164930.072500", "164930.860000", "164931.647500", "164932.437500", "164933.225000", "164934.012500", "164934.800000", "164935.590000", "164936.377500", "164937.165000", "164937.952500", "164938.742500", "164939.530000", "164940.317500", "164941.105000", "164941.895000", "164942.682500", "164943.470000", "164944.257500", "164945.047500", "164945.835000", "164946.622500", "164947.410000", "164948.200000", "164948.987500", "164949.775000", "164950.565000", "164951.352500", "164952.140000", "164952.927500", "164953.717500", "164954.505000", "164955.292500", "164956.080000", "164956.870000", "164957.657500", "164958.445000", "164959.232500", "165000.022500", "165000.810000", "165001.597500", "165002.385000", "165003.175000", "165003.962500", "165004.750000", "165005.537500", "165006.327500", "165007.115000", "165007.902500", "165008.692500", "165009.480000", "165010.267500", "165011.055000", "165011.845000", "165012.632500", "165013.420000", "165014.207500", "165014.997500", "165015.785000", "165016.572500", "165017.360000", "165018.150000", "165018.937500", "165019.725000", "165020.512500", "165021.302500", "165022.090000", "165022.877500", "165023.665000", "165024.455000", "165025.242500", "165026.030000", "165026.820000", "165027.607500", "165028.395000", "165029.182500", "165029.972500", "165030.760000", "165031.547500", "165032.335000", "165033.125000", "165033.912500", "165034.700000", "165035.487500", "165036.277500", "165037.065000", "165037.852500", "165038.640000", "165039.430000", "165040.217500", "165041.005000", "165041.792500", "165042.582500", "165043.370000", "165044.157500", "165044.947500", "165045.735000", "165046.522500", "165047.310000", "165048.100000", "165048.887500"],
      "ContentTime": ["182922.406000", "182922.421000", "182922.421000", "182922.421000", "182922.421000", "182922.421000", "182922.437000", "182922.437000", "183022.390000", "183022.390000", "183022.406000", "183022.406000", "183022.406000", "183022.406000", "183022.406000", "183022.406000", "183022.406000", "183022.421000", "183022.421000", "183022.421000", "183022.421000", "183022.437000", "183022.437000", "183022.437000", "183022.437000", "183022.437000", "183022.437000", "183022.437000", "183022.453000", "183022.453000", "183022.453000", "183022.453000", "183022.453000", "183022.453000", "183022.468000", "183022.468000", "183122.390000", "183122.390000", "183122.406000", "183122.406000", "183122.406000", "183122.406000", "183122.406000", "183122.406000", "183122.406000", "183122.421000", "183122.421000", "183122.421000", "183122.421000", "183122.421000", "183122.421000", "183122.421000", "183122.421000", "183122.437000", "183122.437000", "183122.437000", "183122.437000", "183122.437000", "183122.453000", "183122.453000", "183122.453000", "183122.453000", "183122.453000", "183122.468000", "183122.468000", "183222.390000", "183222.390000", "183222.406000", "183222.406000", "183222.406000", "183222.406000", "183222.406000", "183222.406000", "183222.406000", "183222.421000", "183222.421000", "183222.421000", "183222.421000", "183222.421000", "183222.421000", "183222.421000", "183222.437000", "183222.437000", "183222.437000", "183222.437000", "183222.437000", "183222.437000", "183222.437000", "183222.453000", "183222.453000", "183222.453000", "183222.453000", "183222.453000", "183322.390000", "183322.390000", "183322.406000", "183322.406000", "183322.406000", "183322.406000", "183322.406000", "183322.406000", "183322.406000", "183322.421000", "183322.421000", "183322.421000", "183322.421000", "183322.421000", "183322.421000", "183322.421000", "183322.437000", "183322.437000", "183322.437000", "183322.437000", "183322.437000", "183322.437000", "183322.437000", "183322.453000", "183322.453000", "183322.453000", "183322.453000", "183322.453000", "183422.390000", "183422.390000", "183422.406000", "183422.406000", "183422.406000", "183422.406000", "183422.406000", "183422.406000", "183422.406000", "183422.421000", "183422.421000", "183422.421000", "183422.421000", "183422.421000", "183422.421000", "183422.421000", "183422.437000", "183422.437000", "183422.437000", "183422.437000", "183422.437000", "183422.437000", "183422.437000", "183422.453000", "183422.453000", "183422.453000", "183422.453000", "183422.453000", "183522.390000", "183522.390000", "183522.406000", "183522.406000", "183522.406000", "183522.406000", "183522.406000", "183522.406000", "183522.406000", "183522.421000", "183522.421000", "183522.421000", "183522.421000", "183522.421000", "183522.421000", "183522.421000", "183522.437000", "183522.437000", "183522.437000", "183522.437000", "183522.437000", "183522.437000", "183522.437000", "183522.453000", "183522.453000", "183522.453000", "183522.453000", "183522.453000", "183522.468000", "183622.390000", "183622.390000", "183622.406000", "183622.406000", "183622.406000", "183622.406000", "183622.406000", "183622.406000", "183622.406000", "183622.421000", "183622.421000", "183622.421000", "183622.421000", "183622.421000", "183622.421000", "183622.421000", "183622.437000", "183622.437000", "183622.437000", "183622.437000", "183622.437000", "183622.437000", "183622.437000", "183622.453000", "183622.453000", "183622.453000", "183622.453000", "183622.453000", "183722.390000", "183722.390000", "183722.406000", "183722.406000", "183722.406000", "183722.406000", "183722.406000", "183722.406000", "183722.406000", "183722.421000", "183722.421000", "183722.421000", "183722.421000", "183722.421000", "183722.421000", "183722.421000", "183722.437000", "183722.437000", "183722.437000", "183722.437000", "183722.437000", "183722.453000", "183722.453000", "183722.453000", "183722.453000", "183722.453000", "183722.453000", "183722.453000", "183822.390000", "183822.390000", "183822.406000", "183822.406000", "183822.406000", "183822.406000", "183822.406000", "183822.406000", "183822.406000", "183822.421000", "183822.421000", "183822.421000", "183822.421000", "183822.421000", "183822.421000", "183822.421000", "183822.437000", "183822.437000", "183822.437000", "183822.437000", "183822.437000", "183822.437000", "183822.437000", "183822.453000", "183822.453000", "183822.453000", "183822.453000", "183822.453000", "183922.390000", "183922.390000", "183922.406000", "183922.406000", "183922.406000", "183922.406000", "183922.406000", "183922.406000", "183922.406000", "183922.421000", "183922.421000", "183922.421000", "183922.421000", "183922.421000", "183922.421000", "183922.421000", "183922.437000", "183922.437000", "183922.437000", "183922.437000", "183922.437000", "183922.453000", "183922.453000", "183922.453000", "183922.453000", "183922.453000", "183922.453000", "183922.453000", "184022.390000", "184022.390000", "184022.406000", "184022.406000", "184022.406000", "184022.406000", "184022.406000", "184022.406000", "184022.406000", "184022.421000", "184022.421000", "184022.421000", "184022.421000", "184022.421000", "184022.421000", "184022.421000", "184022.421000", "184022.437000", "184022.437000", "184022.437000", "184022.437000", "184022.437000", "184022.437000", "184022.453000", "184022.453000", "184022.453000", "184022.453000", "184022.453000", "184022.453000", "184122.390000", "184122.390000", "184122.406000", "184122.406000", "184122.406000", "184122.406000", "184122.406000", "184122.406000", "184122.406000", "184122.421000", "184122.421000", "184122.421000", "184122.421000", "184122.421000", "184122.421000", "184122.421000", "184122.437000", "184122.437000", "184122.437000", "184122.437000", "184122.437000", "184122.437000", "184122.437000", "184122.453000", "184122.453000", "184122.453000", "184122.453000", "184122.453000", "184222.390000", "184222.390000", "184222.406000", "184222.406000", "184222.406000", "184222.406000", "184222.406000", "184222.406000", "184222.406000", "184222.421000", "184222.421000", "184222.421000", "184222.421000", "184222.421000", "184222.421000", "184222.421000", "184222.437000", "184222.437000", "184222.437000", "184222.437000", "184222.437000", "184222.453000", "184222.453000", "184222.453000", "184222.453000", "184222.453000", "184222.453000", "184222.453000", "184322.390000", "184322.390000", "184322.406000", "184322.406000", "184322.406000", "184322.406000", "184322.406000", "184322.406000", "184322.406000", "184322.421000", "184322.421000", "184322.421000", "184322.421000", "184322.421000", "184322.421000", "184322.421000", "184322.437000", "184322.437000", "184322.437000", "184322.437000", "184322.453000", "184322.453000", "184322.453000", "184322.453000", "184322.453000", "184322.453000", "184322.453000", "184322.468000", "184422.390000", "184422.390000", "184422.406000", "184422.406000", "184422.406000", "184422.406000", "184422.406000", "184422.406000", "184422.406000", "184422.421000", "184422.421000", "184422.421000", "184422.421000", "184422.421000", "184422.421000", "184422.421000", "184422.437000", "184422.437000", "184422.437000", "184422.437000", "184422.437000", "184422.437000", "184422.437000", "184422.453000", "184422.453000", "184422.453000", "184422.453000", "184422.453000", "184422.453000", "184522.390000", "184522.390000", "184522.406000", "184522.406000", "184522.406000", "184522.406000", "184522.406000", "184522.406000", "184522.421000", "184522.421000", "184522.421000", "184522.421000", "184522.421000", "184522.421000", "184522.437000", "184522.437000", "184522.437000", "184522.437000", "184522.437000", "184522.437000", "184522.437000", "184522.453000", "184522.453000", "184522.453000", "184522.453000", "184522.453000", "184522.453000", "184522.453000", "184622.390000", "184622.390000", "184622.406000", "184622.406000", "184622.406000", "184622.406000", "184622.406000", "184622.406000", "184622.406000", "184622.421000", "184622.421000", "184622.421000", "184622.421000", "184622.421000", "184622.421000", "184622.421000", "184622.437000", "184622.437000", "184622.437000", "184622.437000", "184622.437000", "184622.437000", "184622.453000", "184622.453000", "184622.453000", "184622.453000", "184622.453000", "184622.453000", "184722.390000", "184722.390000", "184722.406000", "184722.406000", "184722.406000", "184722.406000", "184722.406000", "184722.406000", "184722.406000", "184722.421000", "184722.421000", "184722.421000", "184722.421000", "184722.421000", "184722.421000", "184722.421000", "184722.437000", "184722.437000", "184722.437000", "184722.437000", "184722.437000", "184722.437000", "184722.437000", "184722.453000", "184722.453000", "184722.453000", "184722.453000", "184722.453000", "184822.390000", "184822.390000", "184822.406000", "184822.406000", "184822.406000", "184822.406000", "184822.421000", "184822.421000", "184822.421000", "184822.421000", "184822.421000", "184822.421000", "184822.437000", "184822.437000", "184822.437000", "184822.437000", "184822.437000", "184822.437000", "184822.437000", "184822.453000", "184822.453000", "184822.453000", "184822.453000", "184822.453000", "184822.453000", "184822.453000", "184822.468000", "184822.468000", "184922.390000", "184922.390000", "184922.406000", "184922.406000", "184922.406000", "184922.406000", "184922.406000", "184922.406000", "184922.406000", "184922.421000", "184922.421000", "184922.421000", "184922.421000", "184922.421000", "184922.421000", "184922.421000", "184922.437000", "184922.437000", "184922.437000", "184922.437000", "184922.437000", "184922.437000", "184922.437000", "184922.453000", "184922.453000", "184922.453000", "184922.453000", "184922.453000", "184922.453000", "184938.390000", "184938.390000", "184938.406000", "184938.406000", "184938.406000", "184938.406000", "184938.406000", "184938.421000"],
