{
  "AcquisitionMatrixPE": 104,
  "AcquisitionNumber": 1,
  "AcquisitionTime": "16:01:40.775000",
  "BandwidthPerPixelPhaseEncode": 13.935,
  "BaseResolution": 104,
  "CoilString": "C:HEA;HEP",
  "ConversionSoftware": "dcm2niix",
  "ConversionSoftwareVersion": "v1.0.20210317",
  "DerivedVendorReportedEchoSpacing": 0.000690017,
  "DeviceSerialNumber": "35450",
  "DwellTime": 2.5e-06,
  "EchoTime": 0.0348,
  "EffectiveEchoSpacing": 0.000690017,
  "FlipAngle": 55,
  "ImageComments": "Unaliased MB8/PE3",
  "ImageOrientationPatientDICOM": [1, 0, 0, 0, 0.977783, -0.209619],
  "ImageType": [
    "ORIGINAL",
    "PRIMARY",
    "M",
    "MB",
    "ND",
    "MOSAIC"
],
  "ImagingFrequency": 123.235,
  "InPlanePhaseEncodingDirectionDICOM": "COL",
  "InstitutionAddress": "Univeristy Ave. 197,Newark,North East,US,07102-1814",
  "InstitutionName": "RUBIC",
  "InstitutionalDepartmentName": "Department",
  "MRAcquisitionType": "2D",
  "MagneticFieldStrength": 3,
  "Manufacturer": "Siemens",
  "ManufacturersModelName": "TrioTim",
  "Modality": "MR",
  "MultibandAccelerationFactor": 8,
  "PartialFourier": 0.875,
  "PatientPosition": "HFS",
  "PercentPhaseFOV": 100,
  "PercentSampling": 100,
  "PhaseEncodingDirection": "j-",
  "PhaseEncodingSteps": 91,
  "PhaseResolution": 1,
  "PixelBandwidth": 1923,
  "ProcedureStepDescription": "Cole^Michael",
  "ProtocolName": "cmrr_mbep2d_bold_2mm_MB8_Task_8x",
  "PulseSequenceDetails": "%CustomerSeq%\\cmrr_mbep2d_bold",
  "ReceiveCoilName": "32Ch_Head",
  "ReconMatrixPE": 104,
  "RepetitionTime": 0.785,
  "SAR": 0.133822,
  "ScanOptions": "PFP\\FS",
  "ScanningSequence": "EP",
  "SequenceName": "epfid2d1_104",
  "SequenceVariant": "SK\\SS",
  "SeriesDescription": "cmrr_mbep2d_bold_2mm_MB8_Task_8x",
  "SeriesNumber": 19,
  "ShimSetting": [2130, -328, -7257, 503, 37, -427, -91, 18],
  "SliceThickness": 2,
  "SliceTiming": [0, 0.4375, 0.0875, 0.525, 0.175, 0.6125, 0.2625, 0.7, 0.35, 0, 0.4375, 0.0875, 0.525, 0.175, 0.6125, 0.2625, 0.7, 0.35, 0, 0.4375, 0.0875, 0.525, 0.175, 0.6125, 0.2625, 0.7, 0.35, 0, 0.4375, 0.0875, 0.525, 0.175, 0.6125, 0.2625, 0.7, 0.35, 0, 0.4375, 0.0875, 0.525, 0.175, 0.6125, 0.2625, 0.7, 0.35, 0, 0.4375, 0.0875, 0.525, 0.175, 0.6125, 0.2625, 0.7, 0.35, 0, 0.4375, 0.0875, 0.525, 0.175, 0.6125, 0.2625, 0.7, 0.35, 0, 0.4375, 0.0875, 0.525, 0.175, 0.6125, 0.2625, 0.7, 0.35],
  "SoftwareVersions": "syngo MR B19",
  "SpacingBetweenSlices": 2,
  "StationName": "MRC35450",
  "TaskName": "cpro",
  "TotalReadoutTime": 0.0710717,
  "TxRefAmp": 338.566,
  "dcmmeta_affine": [
    [-2.0, 0.0, 0.0, 102.6440658569336],
    [0.0, 1.9555665254592896, -0.4192371368408203, -74.48454284667969],
    [0.0, 0.4192371368408203, 1.95556640625, -110.92923736572266],
    [0.0, 0.0, 0.0, 1.0]
],
  "dcmmeta_reorient_transform": [
    [0.0, -1.0, 0.0, 103.0],
    [1.0, 0.0, 0.0, 0.0],
    [0.0, 0.0, 1.0, 0.0],
    [0.0, 0.0, 0.0, 1.0]
],
  "dcmmeta_shape": [104, 104, 72, 581],
  "dcmmeta_slice_dim": 2,
  "dcmmeta_version": 0.6,
  "global": {
    "const": {
      "AcquisitionMatrix": [104, 0, 0, 104],
      "AngioFlag": "N",
      "BitsAllocated": 16,
      "BitsStored": 12,
      "Columns": 936,
      "EchoNumbers": 1,
      "EchoTime": 34.8,
      "EchoTrainLength": 1,
      "FlipAngle": 55.0,
      "HighBit": 11,
      "ImageOrientationPatient": [1.0, 0.0, 0.0, 0.0, 0.97778323558311, -0.2096185683871],
      "ImagePositionPatient": [-934.64406776428, -940.45445237786, 106.65483853079],
      "ImageType": [
        "ORIGINAL",
        "PRIMARY",
        "M",
        "MB",
        "ND",
        "MOSAIC"
],
      "ImagedNucleus": "1H",
      "ImagingFrequency": 123.23451,
      "InPlanePhaseEncodingDirection": "COL",
      "MRAcquisitionType": "2D",
      "MagneticFieldStrength": 3.0,
      "Manufacturer": "SIEMENS",
      "ManufacturerModelName": "TrioTim",
      "Modality": "MR",
      "NumberOfAverages": 1.0,
      "NumberOfPhaseEncodingSteps": 91,
      "PercentPhaseFieldOfView": 100.0,
      "PercentSampling": 100.0,
      "PerformedProcedureStepStartTime": "145144.000000",
      "PhotometricInterpretation": "MONOCHROME2",
      "PixelBandwidth": 1923.0,
      "PixelRepresentation": 0,
      "PixelSpacing": [2.0, 2.0],
      "ProtocolName": "cmrr_mbep2d_bold_2mm_MB8_Task_8x",
      "RepetitionTime": 785.0,
      "Rows": 936,
      "SAR": 0.13382157815659,
      "SamplesPerPixel": 1,
      "ScanOptions": [
        "PFP",
        "FS"
],
      "ScanningSequence": "EP",
      "SequenceName": "epfid2d1_104",
      "SequenceVariant": [
        "SK",
        "SS"
],
      "SeriesDescription": "cmrr_mbep2d_bold_2mm_MB8_Task_8x",
      "SeriesNumber": 19,
      "SeriesTime": "164411.343000",
      "SliceLocation": -92.851402831447,
      "SliceThickness": 2.0,
      "SmallestImagePixelValue": 0,
      "SoftwareVersions": "syngo MR B19",
      "SpacingBetweenSlices": 1.9999999862589,
      "SpecificCharacterSet": "ISO_IR 100",
      "StudyID": "1",
      "StudyTime": "145143.968000",
      "TransmitCoilName": "Body",
      "VariableFlipAngleFlag": "N",
      "WindowCenterWidthExplanation": "Algo1",
      "dBdt": 0.0},
    "slices": {}
  },
  "time": {
    "samples": {
      "AcquisitionNumber": [1, 2, 3, 4, 5, 6, 7, 8, 9, 10, 11, 12, 13, 14, 15, 16, 17, 18, 19, 20, 21, 22, 23, 24, 25, 26, 27, 28, 29, 30, 31, 32, 33, 34, 35, 36, 37, 38, 39, 40, 41, 42, 43, 44, 45, 46, 47, 48, 49, 50, 51, 52, 53, 54, 55, 56, 57, 58, 59, 60, 61, 62, 63, 64, 65, 66, 67, 68, 69, 70, 71, 72, 73, 74, 75, 76, 77, 78, 79, 80, 81, 82, 83, 84, 85, 86, 87, 88, 89, 90, 91, 92, 93, 94, 95, 96, 97, 98, 99, 100, 101, 102, 103, 104, 105, 106, 107, 108, 109, 110, 111, 112, 113, 114, 115, 116, 117, 118, 119, 120, 121, 122, 123, 124, 125, 126, 127, 128, 129, 130, 131, 132, 133, 134, 135, 136, 137, 138, 139, 140, 141, 142, 143, 144, 145, 146, 147, 148, 149, 150, 151, 152, 153, 154, 155, 156, 157, 158, 159, 160, 161, 162, 163, 164, 165, 166, 167, 168, 169, 170, 171, 172, 173, 174, 175, 176, 177, 178, 179, 180, 181, 182, 183, 184, 185, 186, 187, 188, 189, 190, 191, 192, 193, 194, 195, 196, 197, 198, 199, 200, 201, 202, 203, 204, 205, 206, 207, 208, 209, 210, 211, 212, 213, 214, 215, 216, 217, 218, 219, 220, 221, 222, 223, 224, 225, 226, 227, 228, 229, 230, 231, 232, 233, 234, 235, 236, 237, 238, 239, 240, 241, 242, 243, 244, 245, 246, 247, 248, 249, 250, 251, 252, 253, 254, 255, 256, 257, 258, 259, 260, 261, 262, 263, 264, 265, 266, 267, 268, 269, 270, 271, 272, 273, 274, 275, 276, 277, 278, 279, 280, 281, 282, 283, 284, 285, 286, 287, 288, 289, 290, 291, 292, 293, 294, 295, 296, 297, 298, 299, 300, 301, 302, 303, 304, 305, 306, 307, 308, 309, 310, 311, 312, 313, 314, 315, 316, 317, 318, 319, 320, 321, 322, 323, 324, 325, 326, 327, 328, 329, 330, 331, 332, 333, 334, 335, 336, 337, 338, 339, 340, 341, 342, 343, 344, 345, 346, 347, 348, 349, 350, 351, 352, 353, 354, 355, 356, 357, 358, 359, 360, 361, 362, 363, 364, 365, 366, 367, 368, 369, 370, 371, 372, 373, 374, 375, 376, 377, 378, 379, 380, 381, 382, 383, 384, 385, 386, 387, 388, 389, 390, 391, 392, 393, 394, 395, 396, 397, 398, 399, 400, 401, 402, 403, 404, 405, 406, 407, 408, 409, 410, 411, 412, 413, 414, 415, 416, 417, 418, 419, 420, 421, 422, 423, 424, 425, 426, 427, 428, 429, 430, 431, 432, 433, 434, 435, 436, 437, 438, 439, 440, 441, 442, 443, 444, 445, 446, 447, 448, 449, 450, 451, 452, 453, 454, 455, 456, 457, 458, 459, 460, 461, 462, 463, 464, 465, 466, 467, 468, 469, 470, 471, 472, 473, 474, 475, 476, 477, 478, 479, 480, 481, 482, 483, 484, 485, 486, 487, 488, 489, 490, 491, 492, 493, 494, 495, 496, 497, 498, 499, 500, 501, 502, 503, 504, 505, 506, 507, 508, 509, 510, 511, 512, 513, 514, 515, 516, 517, 518, 519, 520, 521, 522, 523, 524, 525, 526, 527, 528, 529, 530, 531, 532, 533, 534, 535, 536, 537, 538, 539, 540, 541, 542, 543, 544, 545, 546, 547, 548, 549, 550, 551, 552, 553, 554, 555, 556, 557, 558, 559, 560, 561, 562, 563, 564, 565, 566, 567, 568, 569, 570, 571, 572, 573, 574, 575, 576, 577, 578, 579, 580, 581],
      "AcquisitionTime": ["160140.775000", "160141.562500", "160142.352500", "160143.140000", "160143.927500", "160144.715000", "160145.505000", "160146.292500", "160147.080000", "160147.867500", "160148.657500", "160149.445000", "160150.232500", "160151.020000", "160151.810000", "160152.597500", "160153.385000", "160154.172500", "160154.962500", "160155.750000", "160156.537500", "160157.325000", "160158.115000", "160158.902500", "160159.690000", "160200.480000", "160201.267500", "160202.055000", "160202.842500", "160203.632500", "160204.420000", "160205.207500", "160205.995000", "160206.785000", "160207.572500", "160208.360000", "160209.147500", "160209.937500", "160210.725000", "160211.512500", "160212.300000", "160213.090000", "160213.877500", "160214.665000", "160215.452500", "160216.242500", "160217.030000", "160217.817500", "160218.607500", "160219.395000", "160220.182500", "160220.970000", "160221.760000", "160222.547500", "160223.335000", "160224.122500", "160224.912500", "160225.700000", "160226.487500", "160227.275000", "160228.065000", "160228.852500", "160229.640000", "160230.427500", "160231.217500", "160232.005000", "160232.792500", "160233.580000", "160234.370000", "160235.157500", "160235.945000", "160236.735000", "160237.522500", "160238.310000", "160239.097500", "160239.887500", "160240.675000", "160241.462500", "160242.250000", "160243.040000", "160243.827500", "160244.615000", "160245.402500", "160246.192500", "160246.980000", "160247.767500", "160248.555000", "160249.345000", "160250.132500", "160250.920000", "160251.707500", "160252.497500", "160253.285000", "160254.072500", "160254.862500", "160255.650000", "160256.437500", "160257.225000", "160258.015000", "160258.802500", "160259.590000", "160300.377500", "160301.167500", "160301.955000", "160302.742500", "160303.530000", "160304.320000", "160305.107500", "160305.895000", "160306.682500", "160307.472500", "160308.260000", "160309.047500", "160309.835000", "160310.625000", "160311.412500", "160312.200000", "160312.990000", "160313.777500", "160314.565000", "160315.352500", "160316.142500", "160316.930000", "160317.717500", "160318.505000", "160319.295000", "160320.082500", "160320.870000", "160321.657500", "160322.447500", "160323.235000", "160324.022500", "160324.810000", "160325.600000", "160326.387500", "160327.175000", "160327.962500", "160328.752500", "160329.540000", "160330.327500", "160331.117500", "160331.905000", "160332.692500", "160333.480000", "160334.270000", "160335.057500", "160335.845000", "160336.632500", "160337.422500", "160338.210000", "160338.997500", "160339.785000", "160340.575000", "160341.362500", "160342.150000", "160342.937500", "160343.727500", "160344.515000", "160345.302500", "160346.090000", "160346.880000", "160347.667500", "160348.455000", "160349.245000", "160350.032500", "160350.820000", "160351.607500", "160352.397500", "160353.185000", "160353.972500", "160354.760000", "160355.550000", "160356.337500", "160357.125000", "160357.912500", "160358.702500", "160359.490000", "160400.277500", "160401.065000", "160401.855000", "160402.642500", "160403.430000", "160404.217500", "160405.007500", "160405.795000", "160406.582500", "160407.372500", "160408.160000", "160408.947500", "160409.735000", "160410.525000", "160411.312500", "160412.100000", "160412.887500", "160413.677500", "160414.465000", "160415.252500", "160416.040000", "160416.830000", "160417.617500", "160418.405000", "160419.192500", "160419.982500", "160420.770000", "160421.557500", "160422.345000", "160423.135000", "160423.922500", "160424.710000", "160425.500000", "160426.287500", "160427.075000", "160427.862500", "160428.652500", "160429.440000", "160430.227500", "160431.015000", "160431.805000", "160432.592500", "160433.380000", "160434.167500", "160434.957500", "160435.745000", "160436.532500", "160437.320000", "160438.110000", "160438.897500", "160439.685000", "160440.472500", "160441.262500", "160442.050000", "160442.837500", "160443.627500", "160444.415000", "160445.202500", "160445.990000", "160446.780000", "160447.567500", "160448.355000", "160449.142500", "160449.932500", "160450.720000", "160451.507500", "160452.295000", "160453.085000", "160453.872500", "160454.660000", "160455.447500", "160456.237500", "160457.025000", "160457.812500", "160458.602500", "160459.390000", "160500.177500", "160500.965000", "160501.755000", "160502.542500", "160503.330000", "160504.117500", "160504.907500", "160505.695000", "160506.482500", "160507.270000", "160508.060000", "160508.847500", "160509.635000", "160510.422500", "160511.212500", "160512.000000", "160512.787500", "160513.575000", "160514.365000", "160515.152500", "160515.940000", "160516.730000", "160517.517500", "160518.305000", "160519.092500", "160519.882500", "160520.670000", "160521.457500", "160522.245000", "160523.035000", "160523.822500", "160524.610000", "160525.397500", "160526.187500", "160526.975000", "160527.762500", "160528.550000", "160529.340000", "160530.127500", "160530.915000", "160531.702500", "160532.492500", "160533.280000", "160534.067500", "160534.857500", "160535.645000", "160536.432500", "160537.220000", "160538.010000", "160538.797500", "160539.585000", "160540.372500", "160541.162500", "160541.950000", "160542.737500", "160543.525000", "160544.315000", "160545.102500", "160545.890000", "160546.677500", "160547.467500", "160548.255000", "160549.042500", "160549.830000", "160550.620000", "160551.407500", "160552.195000", "160552.985000", "160553.772500", "160554.560000", "160555.347500", "160556.137500", "160556.925000", "160557.712500", "160558.500000", "160559.290000", "160600.077500", "160600.865000", "160601.652500", "160602.442500", "160603.230000", "160604.017500", "160604.805000", "160605.595000", "160606.382500", "160607.170000", "160607.957500", "160608.747500", "160609.535000", "160610.322500", "160611.112500", "160611.900000", "160612.687500", "160613.475000", "160614.265000", "160615.052500", "160615.840000", "160616.627500", "160617.417500", "160618.205000", "160618.992500", "160619.780000", "160620.570000", "160621.357500", "160622.145000", "160622.932500", "160623.722500", "160624.510000", "160625.297500", "160626.085000", "160626.875000", "160627.662500", "160628.450000", "160629.240000", "160630.027500", "160630.815000", "160631.602500", "160632.392500", "160633.180000", "160633.967500", "160634.755000", "160635.545000", "160636.332500", "160637.120000", "160637.907500", "160638.697500", "160639.485000", "160640.272500", "160641.060000", "160641.850000", "160642.637500", "160643.425000", "160644.212500", "160645.002500", "160645.790000", "160646.577500", "160647.367500", "160648.155000", "160648.942500", "160649.730000", "160650.520000", "160651.307500", "160652.095000", "160652.882500", "160653.672500", "160654.460000", "160655.247500", "160656.035000", "160656.825000", "160657.612500", "160658.400000", "160659.187500", "160659.977500", "160700.765000", "160701.552500", "160702.340000", "160703.130000", "160703.917500", "160704.705000", "160705.495000", "160706.282500", "160707.070000", "160707.857500", "160708.647500", "160709.435000", "160710.222500", "160711.010000", "160711.800000", "160712.587500", "160713.375000", "160714.162500", "160714.952500", "160715.740000", "160716.527500", "160717.315000", "160718.105000", "160718.892500", "160719.680000", "160720.467500", "160721.257500", "160722.045000", "160722.832500", "160723.622500", "160724.410000", "160725.197500", "160725.985000", "160726.775000", "160727.562500", "160728.350000", "160729.137500", "160729.927500", "160730.715000", "160731.502500", "160732.290000", "160733.080000", "160733.867500", "160734.655000", "160735.442500", "160736.232500", "160737.020000", "160737.807500", "160738.595000", "160739.385000", "160740.172500", "160740.960000", "160741.750000", "160742.537500", "160743.325000", "160744.112500", "160744.902500", "160745.690000", "160746.477500", "160747.265000", "160748.055000", "160748.842500", "160749.630000", "160750.417500", "160751.207500", "160751.995000", "160752.782500", "160753.570000", "160754.360000", "160755.147500", "160755.935000", "160756.722500", "160757.512500", "160758.300000", "160759.087500", "160759.877500", "160800.665000", "160801.452500", "160802.240000", "160803.030000", "160803.817500", "160804.605000", "160805.392500", "160806.182500", "160806.970000", "160807.757500", "160808.545000", "160809.335000", "160810.122500", "160810.910000", "160811.697500", "160812.487500", "160813.275000", "160814.062500", "160814.852500", "160815.640000", "160816.427500", "160817.215000", "160818.005000", "160818.792500", "160819.580000", "160820.367500", "160821.157500", "160821.945000", "160822.732500", "160823.520000", "160824.310000", "160825.097500", "160825.885000", "160826.672500", "160827.462500", "160828.250000", "160829.037500", "160829.825000", "160830.615000", "160831.402500", "160832.190000", "160832.980000", "160833.767500", "160834.555000", "160835.342500", "160836.132500", "160836.920000", "160837.707500", "160838.495000", "160839.285000", "160840.072500", "160840.860000", "160841.647500", "160842.437500", "160843.225000", "160844.012500", "160844.800000", "160845.590000", "160846.377500", "160847.165000", "160847.952500", "160848.742500", "160849.530000", "160850.317500", "160851.107500", "160851.895000", "160852.682500", "160853.470000", "160854.260000", "160855.047500", "160855.835000", "160856.622500", "160857.412500", "160858.200000", "160858.987500", "160859.775000", "160900.565000", "160901.352500", "160902.140000", "160902.927500", "160903.717500", "160904.505000", "160905.292500", "160906.080000", "160906.870000", "160907.657500", "160908.445000", "160909.235000", "160910.022500", "160910.810000", "160911.597500", "160912.387500", "160913.175000", "160913.962500", "160914.750000", "160915.540000", "160916.327500", "160917.115000", "160917.902500"],
      "ContentTime": ["164411.343000", "164411.343000", "164511.312000", "164511.312000", "164511.328000", "164511.328000", "164511.328000", "164511.328000", "164511.328000", "164511.328000", "164511.328000", "164511.343000", "164511.343000", "164511.343000", "164511.343000", "164511.343000", "164511.343000", "164511.343000", "164511.359000", "164511.359000", "164511.359000", "164511.359000", "164511.359000", "164511.359000", "164511.359000", "164511.375000", "164511.375000", "164511.375000", "164511.375000", "164511.375000", "164611.312000", "164611.312000", "164611.328000", "164611.328000", "164611.328000", "164611.328000", "164611.328000", "164611.328000", "164611.328000", "164611.343000", "164611.343000", "164611.343000", "164611.343000", "164611.343000", "164611.343000", "164611.343000", "164611.359000", "164611.359000", "164611.359000", "164611.359000", "164611.359000", "164611.359000", "164611.359000", "164611.375000", "164611.375000", "164611.375000", "164611.375000", "164711.312000", "164711.312000", "164711.328000", "164711.328000", "164711.328000", "164711.328000", "164711.328000", "164711.328000", "164711.328000", "164711.343000", "164711.343000", "164711.343000", "164711.343000", "164711.343000", "164711.343000", "164711.343000", "164711.359000", "164711.359000", "164711.359000", "164711.359000", "164711.359000", "164711.375000", "164711.375000", "164711.375000", "164711.375000", "164711.375000", "164711.375000", "164811.312000", "164811.312000", "164811.328000", "164811.328000", "164811.328000", "164811.328000", "164811.328000", "164811.328000", "164811.328000", "164811.343000", "164811.343000", "164811.343000", "164811.343000", "164811.343000", "164811.343000", "164811.343000", "164811.359000", "164811.359000", "164811.359000", "164811.359000", "164811.359000", "164811.375000", "164811.375000", "164811.375000", "164811.375000", "164811.375000", "164811.375000", "164811.375000", "164911.312000", "164911.312000", "164911.328000", "164911.328000", "164911.328000", "164911.328000", "164911.328000", "164911.328000", "164911.328000", "164911.343000", "164911.343000", "164911.343000", "164911.343000", "164911.343000", "164911.343000", "164911.343000", "164911.359000", "164911.359000", "164911.359000", "164911.359000", "164911.359000", "164911.359000", "164911.359000", "164911.375000", "164911.375000", "164911.375000", "164911.375000", "165011.312000", "165011.312000", "165011.328000", "165011.328000", "165011.328000", "165011.328000", "165011.328000", "165011.328000", "165011.328000", "165011.343000", "165011.343000", "165011.343000", "165011.343000", "165011.343000", "165011.343000", "165011.343000", "165011.359000", "165011.359000", "165011.359000", "165011.359000", "165011.359000", "165011.375000", "165011.375000", "165011.375000", "165011.375000", "165011.375000", "165011.375000", "165011.390000", "165111.312000", "165111.328000", "165111.328000", "165111.328000", "165111.328000", "165111.328000", "165111.328000", "165111.328000", "165111.328000", "165111.343000", "165111.343000", "165111.343000", "165111.343000", "165111.359000", "165111.359000", "165111.359000", "165111.359000", "165111.359000", "165111.359000", "165111.359000", "165111.375000", "165111.375000", "165111.375000", "165111.375000", "165111.375000", "165111.375000", "165111.375000", "165151.312000", "165151.312000", "165151.328000", "165151.328000", "165151.328000", "165151.328000", "165151.328000", "165151.328000", "165151.328000", "165151.343000", "165151.343000", "165151.343000", "165151.343000", "165151.343000", "165151.343000", "165151.343000", "165151.359000", "165151.359000", "165151.359000", "165251.312000", "165251.312000", "165251.328000", "165251.328000", "165251.328000", "165251.328000", "165251.328000", "165251.328000", "165251.328000", "165251.343000", "165251.343000", "165251.343000", "165251.343000", "165251.343000", "165251.343000", "165251.343000", "165251.359000", "165251.359000", "165251.359000", "165251.359000", "165251.359000", "165251.359000", "165251.359000", "165251.375000", "165251.375000", "165251.375000", "165251.375000", "165351.312000", "165351.328000", "165351.328000", "165351.328000", "165351.328000", "165351.328000", "165351.328000", "165351.328000", "165351.343000", "165351.343000", "165351.343000", "165351.343000", "165351.343000", "165351.343000", "165351.343000", "165351.359000", "165351.359000", "165351.359000", "165351.359000", "165351.375000", "165351.375000", "165351.375000", "165351.375000", "165351.375000", "165351.375000", "165351.390000", "165351.390000", "165451.312000", "165451.312000", "165451.328000", "165451.328000", "165451.328000", "165451.328000", "165451.328000", "165451.328000", "165451.328000", "165451.343000", "165451.343000", "165451.343000", "165451.343000", "165451.359000", "165451.359000", "165451.359000", "165451.359000", "165451.359000", "165451.359000", "165451.375000", "165451.375000", "165451.375000", "165451.375000", "165451.375000", "165451.375000", "165451.375000", "165451.390000", "165451.390000", "165551.312000", "165551.312000", "165551.328000", "165551.328000", "165551.328000", "165551.328000", "165551.328000", "165551.328000", "165551.328000", "165551.343000", "165551.343000", "165551.343000", "165551.343000", "165551.343000", "165551.343000", "165551.343000", "165551.359000", "165551.359000", "165551.359000", "165551.359000", "165551.359000", "165551.359000", "165551.359000", "165551.375000", "165551.375000", "165551.375000", "165551.375000", "165651.312000", "165651.312000", "165651.328000", "165651.328000", "165651.328000", "165651.328000", "165651.328000", "165651.328000", "165651.328000", "165651.343000", "165651.343000", "165651.343000", "165651.343000", "165651.343000", "165651.343000", "165651.343000", "165651.359000", "165651.359000", "165651.359000", "165651.359000", "165651.359000", "165651.359000", "165651.359000", "165651.375000", "165651.375000", "165651.375000", "165651.375000", "165651.375000", "165751.312000", "165751.312000", "165751.328000", "165751.328000", "165751.328000", "165751.328000", "165751.328000", "165751.328000", "165751.328000", "165751.343000", "165751.343000", "165751.343000", "165751.343000", "165751.343000", "165751.343000", "165751.343000", "165751.359000", "165751.359000", "165751.359000", "165751.359000", "165751.359000", "165751.375000", "165751.375000", "165751.375000", "165751.375000", "165751.375000", "165751.375000", "165851.312000", "165851.312000", "165851.328000", "165851.328000", "165851.328000", "165851.328000", "165851.328000", "165851.328000", "165851.328000", "165851.343000", "165851.343000", "165851.343000", "165851.343000", "165851.343000", "165851.343000", "165851.359000", "165851.359000", "165851.359000", "165851.359000", "165851.359000", "165851.359000", "165851.359000", "165851.375000", "165851.375000", "165851.375000", "165851.375000", "165851.375000", "165951.312000", "165951.312000", "165951.328000", "165951.328000", "165951.328000", "165951.328000", "165951.328000", "165951.328000", "165951.328000", "165951.343000", "165951.343000", "165951.343000", "165951.343000", "165951.343000", "165951.343000", "165951.343000", "165951.359000", "165951.359000", "165951.359000", "165951.359000", "165951.359000", "165951.375000", "165951.375000", "165951.375000", "165951.375000", "165951.375000", "165951.375000", "165951.375000", "170051.312000", "170051.312000", "170051.328000", "170051.328000", "170051.328000", "170051.328000", "170051.328000", "170051.328000", "170051.328000", "170051.343000", "170051.343000", "170051.343000", "170051.343000", "170051.343000", "170051.343000", "170051.343000", "170051.359000", "170051.359000", "170051.359000", "170051.359000", "170051.359000", "170051.359000", "170051.375000", "170051.375000", "170051.375000", "170051.375000", "170051.375000", "170051.390000", "170131.312000", "170131.312000", "170131.328000", "170131.328000", "170131.328000", "170131.328000", "170131.328000", "170131.328000", "170131.328000", "170131.343000", "170131.343000", "170131.343000", "170131.343000", "170131.343000", "170131.343000", "170131.343000", "170131.359000", "170131.359000", "170131.359000", "170231.312000", "170231.312000", "170231.328000", "170231.328000", "170231.328000", "170231.328000", "170231.328000", "170231.328000", "170231.328000", "170231.343000", "170231.343000", "170231.343000", "170231.343000", "170231.343000", "170231.343000", "170231.343000", "170231.359000", "170231.359000", "170231.359000", "170231.359000", "170231.359000", "170231.359000", "170231.359000", "170231.375000", "170231.375000", "170231.375000", "170231.375000", "170231.375000", "170331.312000", "170331.312000", "170331.328000", "170331.328000", "170331.328000", "170331.328000", "170331.328000", "170331.328000", "170331.343000", "170331.343000", "170331.343000", "170331.343000", "170331.343000", "170331.343000", "170331.343000", "170331.359000", "170331.359000", "170331.359000", "170331.359000", "170331.359000", "170331.375000", "170331.375000", "170331.375000", "170331.375000", "170331.375000", "170331.375000", "170331.390000", "170331.390000", "170431.312000", "170431.312000", "170431.328000", "170431.328000", "170431.328000", "170431.328000", "170431.328000", "170431.328000", "170431.328000", "170431.343000", "170431.343000", "170431.343000", "170431.343000", "170431.343000", "170431.343000", "170431.359000", "170431.359000", "170431.359000", "170431.359000", "170431.359000", "170431.359000", "170431.375000", "170431.375000", "170431.375000", "170431.375000", "170431.375000", "170431.390000", "170431.390000", "170431.390000", "170506.796000", "170506.812000", "170506.812000", "170506.812000", "170506.812000", "170506.828000", "170506.828000", "170506.828000", "170506.828000", "170506.828000", "170506.828000", "170506.828000", "170506.843000", "170506.843000", "170506.843000", "170506.843000", "170506.843000"],
