{
  "AcquisitionMatrixPE": 104,
  "AcquisitionNumber": 1,
  "AcquisitionTime": "11:37:7.705000",
  "BandwidthPerPixelPhaseEncode": 13.935,
  "BaseResolution": 104,
  "CoilString": "C:HEA;HEP",
  "ConversionSoftware": "dcm2niix",
  "ConversionSoftwareVersion": "v1.0.20210317",
  "DerivedVendorReportedEchoSpacing": 0.000690017,
  "DeviceSerialNumber": "35450",
  "DwellTime": 2.5e-06,
  "EchoTime": 0.0348,
  "EffectiveEchoSpacing": 0.000690017,
  "FlipAngle": 55,
  "ImageComments": "Unaliased MB8/PE3 (remote)",
  "ImageOrientationPatientDICOM": [0.99933, 0.00648301, 0.036031, 3.82248e-08, 0.984195, -0.177086],
  "ImageType": [
    "ORIGINAL",
    "PRIMARY",
    "M",
    "MB",
    "ND",
    "MOSAIC"
],
  "ImagingFrequency": 123.234,
  "InPlanePhaseEncodingDirectionDICOM": "COL",
  "InstitutionAddress": "Univeristy Ave. 197,Newark,North East,US,07102-1814",
  "InstitutionName": "RUBIC",
  "InstitutionalDepartmentName": "Department",
  "MRAcquisitionType": "2D",
  "MagneticFieldStrength": 3,
  "Manufacturer": "Siemens",
  "ManufacturersModelName": "TrioTim",
  "Modality": "MR",
  "MultibandAccelerationFactor": 8,
  "PartialFourier": 0.875,
  "PatientPosition": "HFS",
  "PercentPhaseFOV": 100,
  "PercentSampling": 100,
  "PhaseEncodingDirection": "j-",
  "PhaseEncodingSteps": 91,
  "PhaseResolution": 1,
  "PixelBandwidth": 1923,
  "ProcedureStepDescription": "Cole^Michael",
  "ProtocolName": "cmrr_mbep2d_bold_2mm_MB8_Task_8x",
  "PulseSequenceDetails": "%CustomerSeq%\\cmrr_mbep2d_bold",
  "ReceiveCoilName": "32Ch_Head",
  "ReconMatrixPE": 104,
  "RepetitionTime": 0.785,
  "SAR": 0.13573,
  "ScanOptions": "PFP\\FS",
  "ScanningSequence": "EP",
  "SequenceName": "epfid2d1_104",
  "SequenceVariant": "SK\\SS",
  "SeriesDescription": "cmrr_mbep2d_bold_2mm_MB8_Task_8x",
  "SeriesNumber": 15,
  "ShimSetting": [2115, -422, -7323, 429, -4, -528, 291, 34],
  "SliceThickness": 2,
  "SliceTiming": [0, 0.4375, 0.0875, 0.525, 0.175, 0.615, 0.2625, 0.7025, 0.35, 0, 0.4375, 0.0875, 0.525, 0.175, 0.615, 0.2625, 0.7025, 0.35, 0, 0.4375, 0.0875, 0.525, 0.175, 0.615, 0.2625, 0.7025, 0.35, 0, 0.4375, 0.0875, 0.525, 0.175, 0.615, 0.2625, 0.7025, 0.35, 0, 0.4375, 0.0875, 0.525, 0.175, 0.615, 0.2625, 0.7025, 0.35, 0, 0.4375, 0.0875, 0.525, 0.175, 0.615, 0.2625, 0.7025, 0.35, 0, 0.4375, 0.0875, 0.525, 0.175, 0.615, 0.2625, 0.7025, 0.35, 0, 0.4375, 0.0875, 0.525, 0.175, 0.615, 0.2625, 0.7025, 0.35],
  "SoftwareVersions": "syngo MR B19",
  "SpacingBetweenSlices": 2,
  "StationName": "MRC35450",
  "TaskName": "cpro",
  "TotalReadoutTime": 0.0710717,
  "TxRefAmp": 330.342,
  "dcmmeta_affine": [
    [-1.9986592531204224, 7.644957378261097e-08, 0.07321910560131073, 97.94116973876953],
    [-0.012966025620698929, 1.968390703201294, -0.353935182094574, -68.1293716430664],
    [0.0720619186758995, 0.35417258739471436, 1.9670711755752563, -112.65989685058594],
    [0.0, 0.0, 0.0, 1.0]
],
  "dcmmeta_reorient_transform": [
    [0.0, -1.0, 0.0, 103.0],
    [1.0, 0.0, 0.0, 0.0],
    [0.0, 0.0, 1.0, 0.0],
    [0.0, 0.0, 0.0, 1.0]
],
  "dcmmeta_shape": [104, 104, 72, 581],
  "dcmmeta_slice_dim": 2,
  "dcmmeta_version": 0.6,
  "global": {
    "const": {
      "AcquisitionMatrix": [104, 0, 0, 104],
      "AngioFlag": "N",
      "BitsAllocated": 16,
      "BitsStored": 12,
      "Columns": 936,
      "EchoNumbers": 1,
      "EchoTime": 34.8,
      "EchoTrainLength": 1,
      "FlipAngle": 55.0,
      "HighBit": 11,
      "ImageOrientationPatient": [0.99932964560817, 0.00648301262826, 0.03603095829861, 3.8224788e-08, 0.98419532808976, -0.1770862958173],
      "ImagePositionPatient": [-929.38347407467, -958.85924507308, 41.177919513658],
      "ImageType": [
        "ORIGINAL",
        "PRIMARY",
        "M",
        "MB",
        "ND",
        "MOSAIC"
],
      "ImagedNucleus": "1H",
      "ImagingFrequency": 123.234464,
      "InPlanePhaseEncodingDirection": "COL",
      "MRAcquisitionType": "2D",
      "MagneticFieldStrength": 3.0,
      "Manufacturer": "SIEMENS",
      "ManufacturerModelName": "TrioTim",
      "Modality": "MR",
      "NumberOfAverages": 1.0,
      "NumberOfPhaseEncodingSteps": 91,
      "PercentPhaseFieldOfView": 100.0,
      "PercentSampling": 100.0,
      "PerformedProcedureStepStartTime": "102115.062000",
      "PhotometricInterpretation": "MONOCHROME2",
      "PixelBandwidth": 1923.0,
      "PixelRepresentation": 0,
      "PixelSpacing": [2.0, 2.0],
      "ProtocolName": "cmrr_mbep2d_bold_2mm_MB8_Task_8x",
      "RepetitionTime": 785.0,
      "Rows": 936,
      "SAR": 0.13573005539095,
      "SamplesPerPixel": 1,
      "ScanOptions": [
        "PFP",
        "FS"
],
      "ScanningSequence": "EP",
      "SequenceName": "epfid2d1_104",
      "SequenceVariant": [
        "SK",
        "SS"
],
      "SeriesDescription": "cmrr_mbep2d_bold_2mm_MB8_Task_8x",
      "SeriesNumber": 15,
      "SeriesTime": "113740.328000",
      "SliceLocation": -95.162744010769,
      "SliceThickness": 2.0,
      "SmallestImagePixelValue": 0,
      "SoftwareVersions": "syngo MR B19",
      "SpacingBetweenSlices": 2.0000000234719,
      "SpecificCharacterSet": "ISO_IR 100",
      "StudyID": "1",
      "StudyTime": "102114.937000",
      "TransmitCoilName": "Body",
      "VariableFlipAngleFlag": "N",
      "WindowCenterWidthExplanation": "Algo1",
      "dBdt": 0.0},
    "slices": {}
  },
  "time": {
    "samples": {
      "AcquisitionNumber": [1, 2, 3, 4, 5, 6, 7, 8, 9, 10, 11, 12, 13, 14, 15, 16, 17, 18, 19, 20, 21, 22, 23, 24, 25, 26, 27, 28, 29, 30, 31, 32, 33, 34, 35, 36, 37, 38, 39, 40, 41, 42, 43, 44, 45, 46, 47, 48, 49, 50, 51, 52, 53, 54, 55, 56, 57, 58, 59, 60, 61, 62, 63, 64, 65, 66, 67, 68, 69, 70, 71, 72, 73, 74, 75, 76, 77, 78, 79, 80, 81, 82, 83, 84, 85, 86, 87, 88, 89, 90, 91, 92, 93, 94, 95, 96, 97, 98, 99, 100, 101, 102, 103, 104, 105, 106, 107, 108, 109, 110, 111, 112, 113, 114, 115, 116, 117, 118, 119, 120, 121, 122, 123, 124, 125, 126, 127, 128, 129, 130, 131, 132, 133, 134, 135, 136, 137, 138, 139, 140, 141, 142, 143, 144, 145, 146, 147, 148, 149, 150, 151, 152, 153, 154, 155, 156, 157, 158, 159, 160, 161, 162, 163, 164, 165, 166, 167, 168, 169, 170, 171, 172, 173, 174, 175, 176, 177, 178, 179, 180, 181, 182, 183, 184, 185, 186, 187, 188, 189, 190, 191, 192, 193, 194, 195, 196, 197, 198, 199, 200, 201, 202, 203, 204, 205, 206, 207, 208, 209, 210, 211, 212, 213, 214, 215, 216, 217, 218, 219, 220, 221, 222, 223, 224, 225, 226, 227, 228, 229, 230, 231, 232, 233, 234, 235, 236, 237, 238, 239, 240, 241, 242, 243, 244, 245, 246, 247, 248, 249, 250, 251, 252, 253, 254, 255, 256, 257, 258, 259, 260, 261, 262, 263, 264, 265, 266, 267, 268, 269, 270, 271, 272, 273, 274, 275, 276, 277, 278, 279, 280, 281, 282, 283, 284, 285, 286, 287, 288, 289, 290, 291, 292, 293, 294, 295, 296, 297, 298, 299, 300, 301, 302, 303, 304, 305, 306, 307, 308, 309, 310, 311, 312, 313, 314, 315, 316, 317, 318, 319, 320, 321, 322, 323, 324, 325, 326, 327, 328, 329, 330, 331, 332, 333, 334, 335, 336, 337, 338, 339, 340, 341, 342, 343, 344, 345, 346, 347, 348, 349, 350, 351, 352, 353, 354, 355, 356, 357, 358, 359, 360, 361, 362, 363, 364, 365, 366, 367, 368, 369, 370, 371, 372, 373, 374, 375, 376, 377, 378, 379, 380, 381, 382, 383, 384, 385, 386, 387, 388, 389, 390, 391, 392, 393, 394, 395, 396, 397, 398, 399, 400, 401, 402, 403, 404, 405, 406, 407, 408, 409, 410, 411, 412, 413, 414, 415, 416, 417, 418, 419, 420, 421, 422, 423, 424, 425, 426, 427, 428, 429, 430, 431, 432, 433, 434, 435, 436, 437, 438, 439, 440, 441, 442, 443, 444, 445, 446, 447, 448, 449, 450, 451, 452, 453, 454, 455, 456, 457, 458, 459, 460, 461, 462, 463, 464, 465, 466, 467, 468, 469, 470, 471, 472, 473, 474, 475, 476, 477, 478, 479, 480, 481, 482, 483, 484, 485, 486, 487, 488, 489, 490, 491, 492, 493, 494, 495, 496, 497, 498, 499, 500, 501, 502, 503, 504, 505, 506, 507, 508, 509, 510, 511, 512, 513, 514, 515, 516, 517, 518, 519, 520, 521, 522, 523, 524, 525, 526, 527, 528, 529, 530, 531, 532, 533, 534, 535, 536, 537, 538, 539, 540, 541, 542, 543, 544, 545, 546, 547, 548, 549, 550, 551, 552, 553, 554, 555, 556, 557, 558, 559, 560, 561, 562, 563, 564, 565, 566, 567, 568, 569, 570, 571, 572, 573, 574, 575, 576, 577, 578, 579, 580, 581],
      "AcquisitionTime": ["113707.705000", "113708.495000", "113709.282500", "113710.070000", "113710.857500", "113711.647500", "113712.435000", "113713.222500", "113714.012500", "113714.800000", "113715.587500", "113716.375000", "113717.165000", "113717.952500", "113718.740000", "113719.527500", "113720.317500", "113721.105000", "113721.892500", "113722.680000", "113723.470000", "113724.257500", "113725.045000", "113725.832500", "113726.622500", "113727.410000", "113728.197500", "113728.985000", "113729.775000", "113730.562500", "113731.350000", "113732.140000", "113732.927500", "113733.715000", "113734.502500", "113735.292500", "113736.080000", "113736.867500", "113737.655000", "113738.445000", "113739.232500", "113740.020000", "113740.807500", "113741.597500", "113742.385000", "113743.172500", "113743.960000", "113744.750000", "113745.537500", "113746.325000", "113747.112500", "113747.902500", "113748.690000", "113749.477500", "113750.267500", "113751.055000", "113751.842500", "113752.630000", "113753.420000", "113754.207500", "113754.995000", "113755.782500", "113756.572500", "113757.360000", "113758.147500", "113758.935000", "113759.725000", "113800.512500", "113801.300000", "113802.087500", "113802.877500", "113803.665000", "113804.452500", "113805.240000", "113806.030000", "113806.817500", "113807.605000", "113808.395000", "113809.182500", "113809.970000", "113810.757500", "113811.547500", "113812.335000", "113813.122500", "113813.910000", "113814.700000", "113815.487500", "113816.275000", "113817.062500", "113817.852500", "113818.640000", "113819.427500", "113820.215000", "113821.005000", "113821.792500", "113822.580000", "113823.367500", "113824.157500", "113824.945000", "113825.732500", "113826.522500", "113827.310000", "113828.097500", "113828.885000", "113829.675000", "113830.462500", "113831.250000", "113832.037500", "113832.827500", "113833.615000", "113834.402500", "113835.190000", "113835.980000", "113836.767500", "113837.555000", "113838.342500", "113839.132500", "113839.920000", "113840.707500", "113841.495000", "113842.285000", "113843.072500", "113843.860000", "113844.650000", "113845.437500", "113846.225000", "113847.012500", "113847.802500", "113848.590000", "113849.377500", "113850.165000", "113850.955000", "113851.742500", "113852.530000", "113853.317500", "113854.107500", "113854.895000", "113855.682500", "113856.470000", "113857.260000", "113858.047500", "113858.835000", "113859.622500", "113900.412500", "113901.200000", "113901.987500", "113902.777500", "113903.565000", "113904.352500", "113905.140000", "113905.930000", "113906.717500", "113907.505000", "113908.292500", "113909.082500", "113909.870000", "113910.657500", "113911.445000", "113912.235000", "113913.022500", "113913.810000", "113914.597500", "113915.387500", "113916.175000", "113916.962500", "113917.750000", "113918.540000", "113919.327500", "113920.115000", "113920.905000", "113921.692500", "113922.480000", "113923.267500", "113924.057500", "113924.845000", "113925.632500", "113926.420000", "113927.210000", "113927.997500", "113928.785000", "113929.572500", "113930.362500", "113931.150000", "113931.937500", "113932.725000", "113933.515000", "113934.302500", "113935.090000", "113935.877500", "113936.667500", "113937.455000", "113938.242500", "113939.032500", "113939.820000", "113940.607500", "113941.395000", "113942.185000", "113942.972500", "113943.760000", "113944.547500", "113945.337500", "113946.125000", "113946.912500", "113947.700000", "113948.490000", "113949.277500", "113950.065000", "113950.852500", "113951.642500", "113952.430000", "113953.217500", "113954.005000", "113954.795000", "113955.582500", "113956.370000", "113957.160000", "113957.947500", "113958.735000", "113959.522500", "114000.312500", "114001.100000", "114001.887500", "114002.675000", "114003.465000", "114004.252500", "114005.040000", "114005.827500", "114006.617500", "114007.405000", "114008.192500", "114008.980000", "114009.770000", "114010.557500", "114011.345000", "114012.135000", "114012.922500", "114013.710000", "114014.497500", "114015.287500", "114016.075000", "114016.862500", "114017.650000", "114018.440000", "114019.227500", "114020.015000", "114020.802500", "114021.592500", "114022.380000", "114023.167500", "114023.955000", "114024.745000", "114025.532500", "114026.320000", "114027.107500", "114027.897500", "114028.685000", "114029.472500", "114030.262500", "114031.050000", "114031.837500", "114032.625000", "114033.415000", "114034.202500", "114034.990000", "114035.777500", "114036.567500", "114037.355000", "114038.142500", "114038.930000", "114039.720000", "114040.507500", "114041.295000", "114042.082500", "114042.872500", "114043.660000", "114044.447500", "114045.235000", "114046.025000", "114046.812500", "114047.600000", "114048.390000", "114049.177500", "114049.965000", "114050.752500", "114051.542500", "114052.330000", "114053.117500", "114053.905000", "114054.695000", "114055.482500", "114056.270000", "114057.057500", "114057.847500", "114058.635000", "114059.422500", "114100.210000", "114101.000000", "114101.787500", "114102.575000", "114103.362500", "114104.152500", "114104.940000", "114105.727500", "114106.517500", "114107.305000", "114108.092500", "114108.880000", "114109.670000", "114110.457500", "114111.245000", "114112.032500", "114112.822500", "114113.610000", "114114.397500", "114115.185000", "114115.975000", "114116.762500", "114117.550000", "114118.337500", "114119.127500", "114119.915000", "114120.702500", "114121.490000", "114122.280000", "114123.067500", "114123.855000", "114124.645000", "114125.432500", "114126.220000", "114127.007500", "114127.797500", "114128.585000", "114129.372500", "114130.160000", "114130.950000", "114131.737500", "114132.525000", "114133.312500", "114134.102500", "114134.890000", "114135.677500", "114136.465000", "114137.255000", "114138.042500", "114138.830000", "114139.617500", "114140.407500", "114141.195000", "114141.982500", "114142.772500", "114143.560000", "114144.347500", "114145.135000", "114145.925000", "114146.712500", "114147.500000", "114148.287500", "114149.077500", "114149.865000", "114150.652500", "114151.440000", "114152.230000", "114153.017500", "114153.805000", "114154.592500", "114155.382500", "114156.170000", "114156.957500", "114157.745000", "114158.535000", "114159.322500", "114200.110000", "114200.900000", "114201.687500", "114202.475000", "114203.262500", "114204.052500", "114204.840000", "114205.627500", "114206.415000", "114207.205000", "114207.992500", "114208.780000", "114209.567500", "114210.357500", "114211.145000", "114211.932500", "114212.720000", "114213.510000", "114214.297500", "114215.085000", "114215.872500", "114216.662500", "114217.450000", "114218.237500", "114219.027500", "114219.815000", "114220.602500", "114221.390000", "114222.180000", "114222.967500", "114223.755000", "114224.542500", "114225.332500", "114226.120000", "114226.907500", "114227.695000", "114228.485000", "114229.272500", "114230.060000", "114230.847500", "114231.637500", "114232.425000", "114233.212500", "114234.000000", "114234.790000", "114235.577500", "114236.365000", "114237.155000", "114237.942500", "114238.730000", "114239.517500", "114240.307500", "114241.095000", "114241.882500", "114242.670000", "114243.460000", "114244.247500", "114245.035000", "114245.822500", "114246.612500", "114247.400000", "114248.187500", "114248.975000", "114249.765000", "114250.552500", "114251.340000", "114252.127500", "114252.917500", "114253.705000", "114254.492500", "114255.282500", "114256.070000", "114256.857500", "114257.645000", "114258.435000", "114259.222500", "114300.010000", "114300.797500", "114301.587500", "114302.375000", "114303.162500", "114303.950000", "114304.740000", "114305.527500", "114306.315000", "114307.102500", "114307.892500", "114308.680000", "114309.467500", "114310.255000", "114311.045000", "114311.832500", "114312.620000", "114313.410000", "114314.197500", "114314.985000", "114315.772500", "114316.562500", "114317.350000", "114318.137500", "114318.925000", "114319.715000", "114320.502500", "114321.290000", "114322.077500", "114322.867500", "114323.655000", "114324.442500", "114325.230000", "114326.020000", "114326.807500", "114327.595000", "114328.385000", "114329.172500", "114329.960000", "114330.747500", "114331.537500", "114332.325000", "114333.112500", "114333.900000", "114334.690000", "114335.477500", "114336.265000", "114337.052500", "114337.842500", "114338.630000", "114339.417500", "114340.205000", "114340.995000", "114341.782500", "114342.570000", "114343.357500", "114344.147500", "114344.935000", "114345.722500", "114346.512500", "114347.300000", "114348.087500", "114348.875000", "114349.665000", "114350.452500", "114351.240000", "114352.027500", "114352.817500", "114353.605000", "114354.392500", "114355.180000", "114355.970000", "114356.757500", "114357.545000", "114358.332500", "114359.122500", "114359.910000", "114400.697500", "114401.485000", "114402.275000", "114403.062500", "114403.850000", "114404.640000", "114405.427500", "114406.215000", "114407.002500", "114407.792500", "114408.580000", "114409.367500", "114410.155000", "114410.945000", "114411.732500", "114412.520000", "114413.307500", "114414.097500", "114414.885000", "114415.672500", "114416.460000", "114417.250000", "114418.037500", "114418.825000", "114419.612500", "114420.402500", "114421.190000", "114421.977500", "114422.767500", "114423.555000", "114424.342500", "114425.130000", "114425.920000", "114426.707500", "114427.495000", "114428.282500", "114429.072500", "114429.860000", "114430.647500", "114431.435000", "114432.225000", "114433.012500", "114433.800000", "114434.587500", "114435.377500", "114436.165000", "114436.952500", "114437.740000", "114438.530000", "114439.317500", "114440.105000", "114440.895000", "114441.682500", "114442.470000", "114443.257500", "114444.047500", "114444.835000"],
      "ContentTime": ["113740.328000", "113740.328000", "113740.328000", "113740.328000", "113740.328000", "113740.328000", "113740.328000", "113740.343000", "113740.343000", "113740.343000", "113740.343000", "113740.343000", "113740.343000", "113740.343000", "113740.359000", "113740.359000", "113740.359000", "113740.359000", "113740.359000", "113740.359000", "113740.359000", "113740.375000", "113740.375000", "113740.375000", "113740.375000", "113740.375000", "113740.375000", "113740.375000", "113740.375000", "113740.390000", "113740.390000", "113740.390000", "113740.390000", "113740.390000", "113740.390000", "113740.390000", "113740.390000", "113740.406000", "113740.406000", "113800.296000", "113800.312000", "113800.312000", "113800.312000", "113800.312000", "113800.312000", "113800.312000", "113800.312000", "113800.312000", "113800.328000", "113800.328000", "113800.328000", "113800.328000", "113800.328000", "113800.328000", "113800.343000", "113800.343000", "113800.343000", "113800.343000", "113800.343000", "113800.359000", "113800.359000", "113800.359000", "113800.359000", "113800.359000", "113800.359000", "113820.296000", "113820.296000", "113820.312000", "113820.312000", "113820.312000", "113820.312000", "113820.312000", "113820.312000", "113820.312000", "113820.328000", "113820.328000", "113820.328000", "113820.328000", "113820.328000", "113820.328000", "113820.328000", "113820.328000", "113820.343000", "113820.343000", "113820.343000", "113820.343000", "113820.343000", "113820.343000", "113820.343000", "113820.359000", "113840.296000", "113840.296000", "113840.312000", "113840.312000", "113840.312000", "113840.312000", "113840.312000", "113840.312000", "113840.312000", "113840.328000", "113840.328000", "113840.328000", "113840.328000", "113840.328000", "113840.328000", "113840.328000", "113840.328000", "113840.343000", "113840.343000", "113840.343000", "113840.343000", "113840.343000", "113840.343000", "113840.343000", "113840.359000", "113840.359000", "113900.296000", "113900.296000", "113900.312000", "113900.312000", "113900.312000", "113900.312000", "113900.312000", "113900.312000", "113900.328000", "113900.328000", "113900.328000", "113900.328000", "113900.328000", "113900.328000", "113900.328000", "113900.343000", "113900.343000", "113900.343000", "113900.343000", "113900.343000", "113900.343000", "113900.343000", "113900.359000", "113900.359000", "113900.359000", "113920.296000", "113920.296000", "113920.312000", "113920.312000", "113920.312000", "113920.312000", "113920.312000", "113920.312000", "113920.312000", "113920.328000", "113920.328000", "113920.328000", "113920.328000", "113920.328000", "113920.328000", "113920.328000", "113920.328000", "113920.343000", "113920.343000", "113920.343000", "113920.343000", "113920.343000", "113920.343000", "113920.343000", "113920.359000", "113920.359000", "113940.296000", "113940.296000", "113940.312000", "113940.312000", "113940.312000", "113940.312000", "113940.312000", "113940.312000", "113940.312000", "113940.328000", "113940.328000", "113940.328000", "113940.328000", "113940.328000", "113940.328000", "113940.343000", "113940.343000", "113940.343000", "113940.343000", "113940.343000", "113940.343000", "113940.359000", "113940.359000", "113940.359000", "113940.359000", "114000.296000", "114000.296000", "114000.312000", "114000.312000", "114000.312000", "114000.312000", "114000.312000", "114000.312000", "114000.312000", "114000.328000", "114000.328000", "114000.328000", "114000.328000", "114000.328000", "114000.328000", "114000.328000", "114000.328000", "114000.343000", "114000.343000", "114000.343000", "114000.343000", "114000.359000", "114000.359000", "114000.359000", "114000.359000", "114000.359000", "114020.296000", "114020.296000", "114020.312000", "114020.312000", "114020.312000", "114020.312000", "114020.312000", "114020.312000", "114020.312000", "114020.328000", "114020.328000", "114020.328000", "114020.328000", "114020.328000", "114020.328000", "114020.328000", "114020.328000", "114020.343000", "114020.343000", "114020.343000", "114020.343000", "114020.343000", "114020.343000", "114020.343000", "114020.359000", "114040.296000", "114040.296000", "114040.312000", "114040.312000", "114040.312000", "114040.312000", "114040.312000", "114040.312000", "114040.312000", "114040.328000", "114040.328000", "114040.328000", "114040.328000", "114040.328000", "114040.328000", "114040.328000", "114040.328000", "114040.343000", "114040.343000", "114040.343000", "114040.343000", "114040.343000", "114040.343000", "114040.343000", "114040.359000", "114040.359000", "114100.296000", "114100.296000", "114100.312000", "114100.312000", "114100.312000", "114100.312000", "114100.312000", "114100.312000", "114100.312000", "114100.328000", "114100.328000", "114100.328000", "114100.328000", "114100.328000", "114100.328000", "114100.328000", "114100.328000", "114100.343000", "114100.343000", "114100.343000", "114100.343000", "114100.343000", "114100.359000", "114100.359000", "114100.359000", "114120.296000", "114120.296000", "114120.312000", "114120.312000", "114120.312000", "114120.312000", "114120.312000", "114120.328000", "114120.328000", "114120.328000", "114120.328000", "114120.328000", "114120.328000", "114120.328000", "114120.328000", "114120.343000", "114120.343000", "114120.343000", "114120.343000", "114120.343000", "114120.343000", "114120.359000", "114120.359000", "114120.359000", "114120.359000", "114140.296000", "114140.296000", "114140.312000", "114140.312000", "114140.312000", "114140.312000", "114140.312000", "114140.328000", "114140.328000", "114140.328000", "114140.328000", "114140.328000", "114140.328000", "114140.343000", "114140.343000", "114140.343000", "114140.343000", "114140.343000", "114140.343000", "114140.343000", "114140.359000", "114140.359000", "114140.359000", "114140.359000", "114140.359000", "114140.359000", "114200.296000", "114200.296000", "114200.312000", "114200.328000", "114200.328000", "114200.328000", "114200.328000", "114200.328000", "114200.328000", "114200.328000", "114200.328000", "114200.343000", "114200.343000", "114200.343000", "114200.343000", "114200.343000", "114200.343000", "114200.359000", "114200.359000", "114200.359000", "114200.359000", "114200.375000", "114200.375000", "114200.375000", "114200.375000", "114220.296000", "114220.296000", "114220.312000", "114220.312000", "114220.312000", "114220.312000", "114220.312000", "114220.312000", "114220.312000", "114220.328000", "114220.328000", "114220.328000", "114220.328000", "114220.343000", "114220.343000", "114220.343000", "114220.343000", "114220.343000", "114220.343000", "114220.343000", "114220.359000", "114220.359000", "114220.359000", "114220.359000", "114220.359000", "114220.359000", "114240.296000", "114240.296000", "114240.312000", "114240.312000", "114240.312000", "114240.312000", "114240.312000", "114240.312000", "114240.312000", "114240.328000", "114240.328000", "114240.328000", "114240.328000", "114240.328000", "114240.343000", "114240.343000", "114240.343000", "114240.343000", "114240.343000", "114240.343000", "114240.343000", "114240.359000", "114240.359000", "114240.359000", "114240.359000", "114300.296000", "114300.296000", "114300.312000", "114300.312000", "114300.312000", "114300.312000", "114300.312000", "114300.312000", "114300.312000", "114300.328000", "114300.328000", "114300.328000", "114300.328000", "114300.328000", "114300.328000", "114300.328000", "114300.328000", "114300.343000", "114300.343000", "114300.343000", "114300.343000", "114300.359000", "114300.359000", "114300.359000", "114300.359000", "114300.359000", "114320.296000", "114320.296000", "114320.312000", "114320.312000", "114320.312000", "114320.312000", "114320.312000", "114320.312000", "114320.312000", "114320.328000", "114320.328000", "114320.328000", "114320.328000", "114320.328000", "114320.328000", "114320.328000", "114320.328000", "114320.343000", "114320.343000", "114320.343000", "114320.343000", "114320.343000", "114320.343000", "114320.343000", "114320.359000", "114340.296000", "114340.296000", "114340.312000", "114340.312000", "114340.312000", "114340.312000", "114340.312000", "114340.312000", "114340.312000", "114340.328000", "114340.328000", "114340.328000", "114340.328000", "114340.328000", "114340.328000", "114340.328000", "114340.343000", "114340.343000", "114340.343000", "114340.343000", "114340.343000", "114340.343000", "114340.343000", "114340.343000", "114340.359000", "114340.359000", "114400.296000", "114400.296000", "114400.312000", "114400.312000", "114400.312000", "114400.312000", "114400.312000", "114400.312000", "114400.312000", "114400.328000", "114400.328000", "114400.328000", "114400.328000", "114400.328000", "114400.328000", "114400.328000", "114400.328000", "114400.343000", "114400.343000", "114400.343000", "114400.343000", "114400.343000", "114400.343000", "114400.343000", "114400.359000", "114420.296000", "114420.296000", "114420.312000", "114420.312000", "114420.312000", "114420.312000", "114420.312000", "114420.312000", "114420.312000", "114420.328000", "114420.328000", "114420.328000", "114420.328000", "114420.328000", "114420.328000", "114420.328000", "114420.328000", "114420.343000", "114420.343000", "114420.343000", "114420.343000", "114420.343000", "114420.343000", "114420.343000", "114420.359000", "114420.359000", "114440.296000", "114440.296000", "114440.312000", "114440.312000", "114440.312000", "114440.312000", "114440.312000", "114440.312000", "114440.312000", "114440.328000", "114440.328000", "114440.328000", "114440.328000", "114440.328000", "114440.328000", "114440.328000", "114440.343000", "114440.343000", "114440.343000", "114440.343000", "114440.343000", "114440.343000", "114440.343000", "114440.359000", "114440.359000", "114445.234000", "114445.234000", "114445.234000", "114445.250000", "114445.250000", "114445.250000", "114445.250000"],
