{
  "AcquisitionMatrixPE": 104,
  "AcquisitionNumber": 1,
  "AcquisitionTime": "15:58:37.725000",
  "BandwidthPerPixelPhaseEncode": 13.935,
  "BaseResolution": 104,
  "CoilString": "C:HEA;HEP",
  "ConversionSoftware": "dcm2niix",
  "ConversionSoftwareVersion": "v1.0.20210317",
  "DerivedVendorReportedEchoSpacing": 0.000690017,
  "DeviceSerialNumber": "35450",
  "DwellTime": 2.5e-06,
  "EchoTime": 0.0348,
  "EffectiveEchoSpacing": 0.000690017,
  "FlipAngle": 55,
  "ImageComments": "Unaliased MB8/PE3 (remote)",
  "ImageOrientationPatientDICOM": [0.999658, 0.000912558, 0.0261313, 4.30659e-08, 0.999391, -0.0349024],
  "ImageType": [
    "ORIGINAL",
    "PRIMARY",
    "M",
    "MB",
    "ND",
    "MOSAIC"
],
  "ImagingFrequency": 123.234,
  "InPlanePhaseEncodingDirectionDICOM": "COL",
  "InstitutionAddress": "Univeristy Ave. 197,Newark,North East,US,07102-1814",
  "InstitutionName": "RUBIC",
  "InstitutionalDepartmentName": "Department",
  "MRAcquisitionType": "2D",
  "MagneticFieldStrength": 3,
  "Manufacturer": "Siemens",
  "ManufacturersModelName": "TrioTim",
  "Modality": "MR",
  "MultibandAccelerationFactor": 8,
  "PartialFourier": 0.875,
  "PatientPosition": "HFS",
  "PercentPhaseFOV": 100,
  "PercentSampling": 100,
  "PhaseEncodingDirection": "j-",
  "PhaseEncodingSteps": 91,
  "PhaseResolution": 1,
  "PixelBandwidth": 1923,
  "ProcedureStepDescription": "Cole^Michael",
  "ProtocolName": "cmrr_mbep2d_bold_2mm_MB8_Task_8x",
  "PulseSequenceDetails": "%CustomerSeq%\\cmrr_mbep2d_bold",
  "ReceiveCoilName": "32Ch_Head",
  "ReconMatrixPE": 104,
  "RepetitionTime": 0.785,
  "SAR": 0.128718,
  "ScanOptions": "PFP\\FS",
  "ScanningSequence": "EP",
  "SequenceName": "epfid2d1_104",
  "SequenceVariant": "SK\\SS",
  "SeriesDescription": "cmrr_mbep2d_bold_2mm_MB8_Task_8x",
  "SeriesNumber": 17,
  "ShimSetting": [2150, -340, -7322, 618, -60, -372, 126, 24],
  "SliceThickness": 2,
  "SliceTiming": [0, 0.4375, 0.0875, 0.525, 0.175, 0.6125, 0.2625, 0.7, 0.35, 0, 0.4375, 0.0875, 0.525, 0.175, 0.6125, 0.2625, 0.7, 0.35, 0, 0.4375, 0.0875, 0.525, 0.175, 0.6125, 0.2625, 0.7, 0.35, 0, 0.4375, 0.0875, 0.525, 0.175, 0.6125, 0.2625, 0.7, 0.35, 0, 0.4375, 0.0875, 0.525, 0.175, 0.6125, 0.2625, 0.7, 0.35, 0, 0.4375, 0.0875, 0.525, 0.175, 0.6125, 0.2625, 0.7, 0.35, 0, 0.4375, 0.0875, 0.525, 0.175, 0.6125, 0.2625, 0.7, 0.35, 0, 0.4375, 0.0875, 0.525, 0.175, 0.6125, 0.2625, 0.7, 0.35],
  "SoftwareVersions": "syngo MR B19",
  "SpacingBetweenSlices": 2,
  "StationName": "MRC35450",
  "TaskName": "cpro",
  "TotalReadoutTime": 0.0710717,
  "TxRefAmp": 322.77,
  "dcmmeta_affine": [
    [-1.9993162155151367, 8.613184121486483e-08, 0.052294399589300156, 105.27387237548828],
    [-0.001825116341933608, 1.998781442642212, -0.06978103518486023, -87.05563354492188],
    [0.05226253718137741, 0.06980489194393158, 1.9980981349945068, -96.70436096191406],
    [0.0, 0.0, 0.0, 1.0]
],
  "dcmmeta_reorient_transform": [
    [0.0, -1.0, 0.0, 103.0],
    [1.0, 0.0, 0.0, 0.0],
    [0.0, 0.0, 1.0, 0.0],
    [0.0, 0.0, 0.0, 1.0]
],
  "dcmmeta_shape": [104, 104, 72, 581],
  "dcmmeta_slice_dim": 2,
  "dcmmeta_version": 0.6,
  "global": {
    "const": {
      "AcquisitionMatrix": [104, 0, 0, 104],
      "AngioFlag": "N",
      "BitsAllocated": 16,
      "BitsStored": 12,
      "Columns": 936,
      "EchoNumbers": 1,
      "EchoTime": 34.8,
      "EchoTrainLength": 1,
      "FlipAngle": 55.0,
      "HighBit": 11,
      "ImageOrientationPatient": [0.99965810356638, 0.00091255818684, 0.02613126884819, 4.306592e-08, 0.99939072397178, -0.0349024474665],
      "ImagePositionPatient": [-936.98945823123, -951.07118842279, -82.21683544361],
      "ImageType": [
        "ORIGINAL",
        "PRIMARY",
        "M",
        "MB",
        "ND",
        "MOSAIC"
],
      "ImagedNucleus": "1H",
      "ImagingFrequency": 123.234403,
      "InPlanePhaseEncodingDirection": "COL",
      "MRAcquisitionType": "2D",
      "MagneticFieldStrength": 3.0,
      "Manufacturer": "SIEMENS",
      "ManufacturerModelName": "TrioTim",
      "Modality": "MR",
      "NumberOfAverages": 1.0,
      "NumberOfPhaseEncodingSteps": 91,
      "PercentPhaseFieldOfView": 100.0,
      "PercentSampling": 100.0,
      "PerformedProcedureStepStartTime": "144239.500000",
      "PhotometricInterpretation": "MONOCHROME2",
      "PixelBandwidth": 1923.0,
      "PixelRepresentation": 0,
      "PixelSpacing": [2.0, 2.0],
      "ProtocolName": "cmrr_mbep2d_bold_2mm_MB8_Task_8x",
      "RepetitionTime": 785.0,
      "Rows": 936,
      "SAR": 0.12871793755899,
      "SamplesPerPixel": 1,
      "ScanOptions": [
        "PFP",
        "FS"
],
      "ScanningSequence": "EP",
      "SequenceName": "epfid2d1_104",
      "SequenceVariant": [
        "SK",
        "SS"
],
      "SeriesDescription": "cmrr_mbep2d_bold_2mm_MB8_Task_8x",
      "SeriesNumber": 17,
      "SeriesTime": "155858.093000",
      "SliceLocation": -90.822365202648,
      "SliceThickness": 2.0,
      "SmallestImagePixelValue": 0,
      "SoftwareVersions": "syngo MR B19",
      "SpacingBetweenSlices": 2.0000000600615,
      "SpecificCharacterSet": "ISO_IR 100",
      "StudyID": "1",
      "StudyTime": "144239.468000",
      "TransmitCoilName": "Body",
      "VariableFlipAngleFlag": "N",
      "WindowCenterWidthExplanation": "Algo1",
      "dBdt": 0.0},
    "slices": {}
  },
  "time": {
    "samples": {
      "AcquisitionNumber": [1, 2, 3, 4, 5, 6, 7, 8, 9, 10, 11, 12, 13, 14, 15, 16, 17, 18, 19, 20, 21, 22, 23, 24, 25, 26, 27, 28, 29, 30, 31, 32, 33, 34, 35, 36, 37, 38, 39, 40, 41, 42, 43, 44, 45, 46, 47, 48, 49, 50, 51, 52, 53, 54, 55, 56, 57, 58, 59, 60, 61, 62, 63, 64, 65, 66, 67, 68, 69, 70, 71, 72, 73, 74, 75, 76, 77, 78, 79, 80, 81, 82, 83, 84, 85, 86, 87, 88, 89, 90, 91, 92, 93, 94, 95, 96, 97, 98, 99, 100, 101, 102, 103, 104, 105, 106, 107, 108, 109, 110, 111, 112, 113, 114, 115, 116, 117, 118, 119, 120, 121, 122, 123, 124, 125, 126, 127, 128, 129, 130, 131, 132, 133, 134, 135, 136, 137, 138, 139, 140, 141, 142, 143, 144, 145, 146, 147, 148, 149, 150, 151, 152, 153, 154, 155, 156, 157, 158, 159, 160, 161, 162, 163, 164, 165, 166, 167, 168, 169, 170, 171, 172, 173, 174, 175, 176, 177, 178, 179, 180, 181, 182, 183, 184, 185, 186, 187, 188, 189, 190, 191, 192, 193, 194, 195, 196, 197, 198, 199, 200, 201, 202, 203, 204, 205, 206, 207, 208, 209, 210, 211, 212, 213, 214, 215, 216, 217, 218, 219, 220, 221, 222, 223, 224, 225, 226, 227, 228, 229, 230, 231, 232, 233, 234, 235, 236, 237, 238, 239, 240, 241, 242, 243, 244, 245, 246, 247, 248, 249, 250, 251, 252, 253, 254, 255, 256, 257, 258, 259, 260, 261, 262, 263, 264, 265, 266, 267, 268, 269, 270, 271, 272, 273, 274, 275, 276, 277, 278, 279, 280, 281, 282, 283, 284, 285, 286, 287, 288, 289, 290, 291, 292, 293, 294, 295, 296, 297, 298, 299, 300, 301, 302, 303, 304, 305, 306, 307, 308, 309, 310, 311, 312, 313, 314, 315, 316, 317, 318, 319, 320, 321, 322, 323, 324, 325, 326, 327, 328, 329, 330, 331, 332, 333, 334, 335, 336, 337, 338, 339, 340, 341, 342, 343, 344, 345, 346, 347, 348, 349, 350, 351, 352, 353, 354, 355, 356, 357, 358, 359, 360, 361, 362, 363, 364, 365, 366, 367, 368, 369, 370, 371, 372, 373, 374, 375, 376, 377, 378, 379, 380, 381, 382, 383, 384, 385, 386, 387, 388, 389, 390, 391, 392, 393, 394, 395, 396, 397, 398, 399, 400, 401, 402, 403, 404, 405, 406, 407, 408, 409, 410, 411, 412, 413, 414, 415, 416, 417, 418, 419, 420, 421, 422, 423, 424, 425, 426, 427, 428, 429, 430, 431, 432, 433, 434, 435, 436, 437, 438, 439, 440, 441, 442, 443, 444, 445, 446, 447, 448, 449, 450, 451, 452, 453, 454, 455, 456, 457, 458, 459, 460, 461, 462, 463, 464, 465, 466, 467, 468, 469, 470, 471, 472, 473, 474, 475, 476, 477, 478, 479, 480, 481, 482, 483, 484, 485, 486, 487, 488, 489, 490, 491, 492, 493, 494, 495, 496, 497, 498, 499, 500, 501, 502, 503, 504, 505, 506, 507, 508, 509, 510, 511, 512, 513, 514, 515, 516, 517, 518, 519, 520, 521, 522, 523, 524, 525, 526, 527, 528, 529, 530, 531, 532, 533, 534, 535, 536, 537, 538, 539, 540, 541, 542, 543, 544, 545, 546, 547, 548, 549, 550, 551, 552, 553, 554, 555, 556, 557, 558, 559, 560, 561, 562, 563, 564, 565, 566, 567, 568, 569, 570, 571, 572, 573, 574, 575, 576, 577, 578, 579, 580, 581],
      "AcquisitionTime": ["155837.725000", "155838.512500", "155839.300000", "155840.090000", "155840.877500", "155841.665000", "155842.455000", "155843.242500", "155844.030000", "155844.817500", "155845.607500", "155846.395000", "155847.182500", "155847.970000", "155848.760000", "155849.547500", "155850.335000", "155851.122500", "155851.912500", "155852.700000", "155853.487500", "155854.275000", "155855.065000", "155855.852500", "155856.640000", "155857.427500", "155858.217500", "155859.005000", "155859.792500", "155900.582500", "155901.370000", "155902.157500", "155902.945000", "155903.735000", "155904.522500", "155905.310000", "155906.097500", "155906.887500", "155907.675000", "155908.462500", "155909.250000", "155910.040000", "155910.827500", "155911.615000", "155912.402500", "155913.192500", "155913.980000", "155914.767500", "155915.555000", "155916.345000", "155917.132500", "155917.920000", "155918.710000", "155919.497500", "155920.285000", "155921.072500", "155921.862500", "155922.650000", "155923.437500", "155924.225000", "155925.015000", "155925.802500", "155926.590000", "155927.377500", "155928.167500", "155928.955000", "155929.742500", "155930.530000", "155931.320000", "155932.107500", "155932.895000", "155933.682500", "155934.472500", "155935.260000", "155936.047500", "155936.837500", "155937.625000", "155938.412500", "155939.200000", "155939.990000", "155940.777500", "155941.565000", "155942.352500", "155943.142500", "155943.930000", "155944.717500", "155945.505000", "155946.295000", "155947.082500", "155947.870000", "155948.657500", "155949.447500", "155950.235000", "155951.022500", "155951.812500", "155952.600000", "155953.387500", "155954.175000", "155954.965000", "155955.752500", "155956.540000", "155957.327500", "155958.117500", "155958.905000", "155959.692500", "160000.480000", "160001.270000", "160002.057500", "160002.845000", "160003.632500", "160004.422500", "160005.210000", "160005.997500", "160006.785000", "160007.575000", "160008.362500", "160009.150000", "160009.940000", "160010.727500", "160011.515000", "160012.302500", "160013.092500", "160013.880000", "160014.667500", "160015.455000", "160016.245000", "160017.032500", "160017.820000", "160018.607500", "160019.397500", "160020.185000", "160020.972500", "160021.760000", "160022.550000", "160023.337500", "160024.125000", "160024.912500", "160025.702500", "160026.490000", "160027.277500", "160028.067500", "160028.855000", "160029.642500", "160030.430000", "160031.220000", "160032.007500", "160032.795000", "160033.582500", "160034.372500", "160035.160000", "160035.947500", "160036.735000", "160037.525000", "160038.312500", "160039.100000", "160039.887500", "160040.677500", "160041.465000", "160042.252500", "160043.040000", "160043.830000", "160044.617500", "160045.405000", "160046.195000", "160046.982500", "160047.770000", "160048.557500", "160049.347500", "160050.135000", "160050.922500", "160051.710000", "160052.500000", "160053.287500", "160054.075000", "160054.862500", "160055.652500", "160056.440000", "160057.227500", "160058.015000", "160058.805000", "160059.592500", "160100.380000", "160101.167500", "160101.957500", "160102.745000", "160103.532500", "160104.322500", "160105.110000", "160105.897500", "160106.685000", "160107.475000", "160108.262500", "160109.050000", "160109.837500", "160110.627500", "160111.415000", "160112.202500", "160112.990000", "160113.780000", "160114.567500", "160115.355000", "160116.142500", "160116.932500", "160117.720000", "160118.507500", "160119.295000", "160120.085000", "160120.872500", "160121.660000", "160122.450000", "160123.237500", "160124.025000", "160124.812500", "160125.602500", "160126.390000", "160127.177500", "160127.965000", "160128.755000", "160129.542500", "160130.330000", "160131.117500", "160131.907500", "160132.695000", "160133.482500", "160134.270000", "160135.060000", "160135.847500", "160136.635000", "160137.422500", "160138.212500", "160139.000000", "160139.787500", "160140.577500", "160141.365000", "160142.152500", "160142.940000", "160143.730000", "160144.517500", "160145.305000", "160146.092500", "160146.882500", "160147.670000", "160148.457500", "160149.245000", "160150.035000", "160150.822500", "160151.610000", "160152.397500", "160153.187500", "160153.975000", "160154.762500", "160155.550000", "160156.340000", "160157.127500", "160157.915000", "160158.705000", "160159.492500", "160200.280000", "160201.067500", "160201.857500", "160202.645000", "160203.432500", "160204.220000", "160205.010000", "160205.797500", "160206.585000", "160207.372500", "160208.162500", "160208.950000", "160209.737500", "160210.525000", "160211.315000", "160212.102500", "160212.890000", "160213.677500", "160214.467500", "160215.255000", "160216.042500", "160216.832500", "160217.620000", "160218.407500", "160219.195000", "160219.985000", "160220.772500", "160221.560000", "160222.347500", "160223.137500", "160223.925000", "160224.712500", "160225.500000", "160226.290000", "160227.077500", "160227.865000", "160228.652500", "160229.442500", "160230.230000", "160231.017500", "160231.805000", "160232.595000", "160233.382500", "160234.170000", "160234.960000", "160235.747500", "160236.535000", "160237.322500", "160238.112500", "160238.900000", "160239.687500", "160240.475000", "160241.265000", "160242.052500", "160242.840000", "160243.627500", "160244.417500", "160245.205000", "160245.992500", "160246.780000", "160247.570000", "160248.357500", "160249.145000", "160249.932500", "160250.722500", "160251.510000", "160252.297500", "160253.087500", "160253.875000", "160254.662500", "160255.450000", "160256.240000", "160257.027500", "160257.815000", "160258.602500", "160259.392500", "160300.180000", "160300.967500", "160301.755000", "160302.545000", "160303.332500", "160304.120000", "160304.907500", "160305.697500", "160306.485000", "160307.272500", "160308.062500", "160308.850000", "160309.637500", "160310.425000", "160311.215000", "160312.002500", "160312.790000", "160313.577500", "160314.367500", "160315.155000", "160315.942500", "160316.730000", "160317.520000", "160318.307500", "160319.095000", "160319.882500", "160320.672500", "160321.460000", "160322.247500", "160323.035000", "160323.825000", "160324.612500", "160325.400000", "160326.190000", "160326.977500", "160327.765000", "160328.552500", "160329.342500", "160330.130000", "160330.917500", "160331.705000", "160332.495000", "160333.282500", "160334.070000", "160334.857500", "160335.647500", "160336.435000", "160337.222500", "160338.010000", "160338.800000", "160339.587500", "160340.375000", "160341.162500", "160341.952500", "160342.740000", "160343.527500", "160344.317500", "160345.105000", "160345.892500", "160346.680000", "160347.470000", "160348.257500", "160349.045000", "160349.832500", "160350.622500", "160351.410000", "160352.197500", "160352.985000", "160353.775000", "160354.562500", "160355.350000", "160356.137500", "160356.927500", "160357.715000", "160358.502500", "160359.290000", "160400.080000", "160400.867500", "160401.655000", "160402.445000", "160403.232500", "160404.020000", "160404.807500", "160405.597500", "160406.385000", "160407.172500", "160407.960000", "160408.750000", "160409.537500", "160410.325000", "160411.112500", "160411.902500", "160412.690000", "160413.477500", "160414.265000", "160415.055000", "160415.842500", "160416.630000", "160417.417500", "160418.207500", "160418.995000", "160419.782500", "160420.572500", "160421.360000", "160422.147500", "160422.935000", "160423.725000", "160424.512500", "160425.300000", "160426.087500", "160426.877500", "160427.665000", "160428.452500", "160429.240000", "160430.030000", "160430.817500", "160431.605000", "160432.392500", "160433.182500", "160433.970000", "160434.757500", "160435.545000", "160436.335000", "160437.122500", "160437.910000", "160438.700000", "160439.487500", "160440.275000", "160441.062500", "160441.852500", "160442.640000", "160443.427500", "160444.215000", "160445.005000", "160445.792500", "160446.580000", "160447.367500", "160448.157500", "160448.945000", "160449.732500", "160450.520000", "160451.310000", "160452.097500", "160452.885000", "160453.672500", "160454.462500", "160455.250000", "160456.037500", "160456.827500", "160457.615000", "160458.402500", "160459.190000", "160459.980000", "160500.767500", "160501.555000", "160502.342500", "160503.132500", "160503.920000", "160504.707500", "160505.495000", "160506.285000", "160507.072500", "160507.860000", "160508.647500", "160509.437500", "160510.225000", "160511.012500", "160511.800000", "160512.590000", "160513.377500", "160514.165000", "160514.955000", "160515.742500", "160516.530000", "160517.317500", "160518.107500", "160518.895000", "160519.682500", "160520.470000", "160521.260000", "160522.047500", "160522.835000", "160523.622500", "160524.412500", "160525.200000", "160525.987500", "160526.775000", "160527.565000", "160528.352500", "160529.140000", "160529.927500", "160530.717500", "160531.505000", "160532.292500", "160533.082500", "160533.870000", "160534.657500", "160535.445000", "160536.235000", "160537.022500", "160537.810000", "160538.597500", "160539.387500", "160540.175000", "160540.962500", "160541.750000", "160542.540000", "160543.327500", "160544.115000", "160544.902500", "160545.692500", "160546.480000", "160547.267500", "160548.055000", "160548.845000", "160549.632500", "160550.420000", "160551.210000", "160551.997500", "160552.785000", "160553.572500", "160554.362500", "160555.150000", "160555.937500", "160556.725000", "160557.515000", "160558.302500", "160559.090000", "160559.877500", "160600.667500", "160601.455000", "160602.242500", "160603.030000", "160603.820000", "160604.607500", "160605.395000", "160606.182500", "160606.972500", "160607.760000", "160608.547500", "160609.337500", "160610.125000", "160610.912500", "160611.700000", "160612.490000", "160613.277500", "160614.065000", "160614.852500"],
      "ContentTime": ["155858.093000", "155858.109000", "155858.109000", "155858.109000", "155858.109000", "155858.109000", "155858.125000", "155858.125000", "155858.125000", "155858.125000", "155858.125000", "155858.125000", "155858.140000", "155858.140000", "155858.140000", "155858.140000", "155858.140000", "155858.140000", "155858.140000", "155858.140000", "155858.156000", "155858.156000", "155858.156000", "155918.078000", "155918.078000", "155918.078000", "155918.078000", "155918.078000", "155918.078000", "155918.093000", "155918.093000", "155918.093000", "155918.093000", "155918.093000", "155918.109000", "155918.109000", "155918.109000", "155918.109000", "155918.109000", "155918.109000", "155918.125000", "155918.125000", "155918.125000", "155918.125000", "155918.125000", "155918.125000", "155918.125000", "155918.140000", "155918.140000", "155938.078000", "155938.078000", "155938.078000", "155938.078000", "155938.078000", "155938.093000", "155938.093000", "155938.093000", "155938.093000", "155938.093000", "155938.093000", "155938.109000", "155938.109000", "155938.109000", "155938.109000", "155938.109000", "155938.109000", "155938.109000", "155938.109000", "155938.125000", "155938.125000", "155938.125000", "155938.125000", "155938.125000", "155938.125000", "155958.078000", "155958.078000", "155958.078000", "155958.078000", "155958.078000", "155958.078000", "155958.093000", "155958.093000", "155958.093000", "155958.093000", "155958.093000", "155958.093000", "155958.093000", "155958.109000", "155958.109000", "155958.109000", "155958.109000", "155958.109000", "155958.109000", "155958.109000", "155958.125000", "155958.125000", "155958.125000", "155958.125000", "155958.140000", "155958.140000", "160018.078000", "160018.078000", "160018.078000", "160018.078000", "160018.078000", "160018.078000", "160018.093000", "160018.093000", "160018.093000", "160018.093000", "160018.093000", "160018.109000", "160018.109000", "160018.109000", "160018.109000", "160018.109000", "160018.109000", "160018.125000", "160018.125000", "160018.125000", "160018.125000", "160018.125000", "160018.125000", "160018.125000", "160018.140000", "160038.078000", "160038.078000", "160038.078000", "160038.078000", "160038.078000", "160038.078000", "160038.093000", "160038.093000", "160038.093000", "160038.093000", "160038.093000", "160038.109000", "160038.109000", "160038.109000", "160038.109000", "160038.109000", "160038.109000", "160038.125000", "160038.125000", "160038.125000", "160038.125000", "160038.125000", "160038.125000", "160038.125000", "160038.140000", "160038.140000", "160058.078000", "160058.078000", "160058.078000", "160058.078000", "160058.078000", "160058.078000", "160058.093000", "160058.093000", "160058.093000", "160058.093000", "160058.093000", "160058.093000", "160058.109000", "160058.109000", "160058.109000", "160058.109000", "160058.109000", "160058.109000", "160058.125000", "160058.125000", "160058.125000", "160058.125000", "160058.125000", "160058.125000", "160058.125000", "160118.078000", "160118.078000", "160118.078000", "160118.078000", "160118.093000", "160118.093000", "160118.093000", "160118.093000", "160118.093000", "160118.093000", "160118.109000", "160118.109000", "160118.109000", "160118.109000", "160118.109000", "160118.109000", "160118.109000", "160118.125000", "160118.125000", "160118.125000", "160118.125000", "160118.125000", "160118.125000", "160118.125000", "160118.140000", "160118.140000", "160138.078000", "160138.078000", "160138.078000", "160138.078000", "160138.078000", "160138.078000", "160138.093000", "160138.093000", "160138.093000", "160138.093000", "160138.093000", "160138.093000", "160138.109000", "160138.109000", "160138.109000", "160138.109000", "160138.109000", "160138.109000", "160138.109000", "160138.125000", "160138.125000", "160138.125000", "160138.125000", "160138.125000", "160138.125000", "160158.078000", "160158.078000", "160158.078000", "160158.078000", "160158.078000", "160158.078000", "160158.093000", "160158.093000", "160158.093000", "160158.093000", "160158.093000", "160158.093000", "160158.109000", "160158.109000", "160158.109000", "160158.109000", "160158.109000", "160158.109000", "160158.109000", "160158.125000", "160158.125000", "160158.125000", "160158.125000", "160158.125000", "160158.125000", "160218.078000", "160218.078000", "160218.078000", "160218.078000", "160218.078000", "160218.078000", "160218.093000", "160218.093000", "160218.093000", "160218.093000", "160218.093000", "160218.093000", "160218.093000", "160218.109000", "160218.109000", "160218.109000", "160218.109000", "160218.109000", "160218.109000", "160218.109000", "160218.125000", "160218.125000", "160218.125000", "160218.125000", "160218.125000", "160218.125000", "160238.078000", "160238.078000", "160238.078000", "160238.078000", "160238.078000", "160238.078000", "160238.093000", "160238.093000", "160238.093000", "160238.093000", "160238.093000", "160238.093000", "160238.109000", "160238.109000", "160238.109000", "160238.109000", "160238.109000", "160238.109000", "160238.140000", "160238.140000", "160238.140000", "160238.140000", "160238.140000", "160238.140000", "160238.156000", "160258.078000", "160258.078000", "160258.078000", "160258.078000", "160258.078000", "160258.093000", "160258.093000", "160258.093000", "160258.093000", "160258.093000", "160258.093000", "160258.109000", "160258.109000", "160258.109000", "160258.109000", "160258.109000", "160258.109000", "160258.109000", "160258.125000", "160258.125000", "160258.125000", "160258.125000", "160258.125000", "160258.125000", "160258.125000", "160258.140000", "160318.078000", "160318.078000", "160318.078000", "160318.078000", "160318.078000", "160318.078000", "160318.093000", "160318.093000", "160318.093000", "160318.093000", "160318.093000", "160318.093000", "160318.109000", "160318.109000", "160318.109000", "160318.109000", "160318.109000", "160318.109000", "160318.109000", "160318.125000", "160318.125000", "160318.125000", "160318.125000", "160318.125000", "160318.125000", "160338.078000", "160338.078000", "160338.078000", "160338.078000", "160338.078000", "160338.093000", "160338.093000", "160338.093000", "160338.093000", "160338.093000", "160338.093000", "160338.093000", "160338.109000", "160338.109000", "160338.109000", "160338.109000", "160338.109000", "160338.109000", "160338.109000", "160338.125000", "160338.125000", "160338.125000", "160338.125000", "160338.125000", "160338.125000", "160338.125000", "160358.078000", "160358.078000", "160358.078000", "160358.078000", "160358.078000", "160358.078000", "160358.093000", "160358.093000", "160358.093000", "160358.093000", "160358.093000", "160358.093000", "160358.093000", "160358.109000", "160358.109000", "160358.109000", "160358.109000", "160358.109000", "160358.109000", "160358.125000", "160358.125000", "160358.125000", "160358.125000", "160358.125000", "160358.125000", "160418.078000", "160418.078000", "160418.078000", "160418.078000", "160418.078000", "160418.078000", "160418.093000", "160418.093000", "160418.093000", "160418.093000", "160418.093000", "160418.093000", "160418.109000", "160418.109000", "160418.109000", "160418.109000", "160418.109000", "160418.109000", "160418.109000", "160418.125000", "160418.125000", "160418.125000", "160418.125000", "160418.125000", "160418.125000", "160418.140000", "160438.078000", "160438.078000", "160438.078000", "160438.078000", "160438.078000", "160438.078000", "160438.093000", "160438.093000", "160438.093000", "160438.093000", "160438.093000", "160438.093000", "160438.109000", "160438.109000", "160438.109000", "160438.109000", "160438.109000", "160438.109000", "160438.109000", "160438.125000", "160438.125000", "160438.125000", "160438.125000", "160438.125000", "160438.140000", "160458.078000", "160458.078000", "160458.078000", "160458.078000", "160458.078000", "160458.078000", "160458.093000", "160458.093000", "160458.093000", "160458.093000", "160458.093000", "160458.093000", "160458.109000", "160458.109000", "160458.109000", "160458.109000", "160458.109000", "160458.109000", "160458.109000", "160458.125000", "160458.125000", "160458.125000", "160458.125000", "160458.125000", "160458.125000", "160458.125000", "160518.078000", "160518.078000", "160518.078000", "160518.078000", "160518.078000", "160518.093000", "160518.093000", "160518.093000", "160518.093000", "160518.093000", "160518.093000", "160518.093000", "160518.109000", "160518.109000", "160518.109000", "160518.109000", "160518.109000", "160518.109000", "160518.109000", "160518.125000", "160518.125000", "160518.125000", "160518.125000", "160518.125000", "160518.125000", "160538.078000", "160538.078000", "160538.078000", "160538.078000", "160538.078000", "160538.078000", "160538.093000", "160538.093000", "160538.093000", "160538.093000", "160538.093000", "160538.109000", "160538.109000", "160538.109000", "160538.109000", "160538.125000", "160538.125000", "160538.125000", "160538.125000", "160538.125000", "160538.125000", "160538.125000", "160538.140000", "160538.140000", "160538.140000", "160538.140000", "160558.078000", "160558.078000", "160558.078000", "160558.078000", "160558.078000", "160558.078000", "160558.093000", "160558.093000", "160558.093000", "160558.093000", "160558.093000", "160558.093000", "160558.109000", "160558.109000", "160558.109000", "160558.109000", "160558.109000", "160558.109000", "160558.109000", "160558.125000", "160558.125000", "160558.125000", "160558.125000", "160558.125000", "160558.125000", "160615.609000", "160615.625000", "160615.625000", "160615.625000", "160615.625000", "160615.625000", "160615.625000", "160615.640000", "160615.640000", "160615.640000", "160615.640000", "160615.640000", "160615.640000", "160615.640000", "160615.656000", "160615.656000", "160615.656000", "160615.656000", "160615.656000", "160615.656000", "160615.671000", "160615.671000", "160615.671000"],
      "DataSetTrailingPadding": [
        "\u0000\u0000\u0000\u0000\u0000\u0000\u0000\u0000\u0000\u0000\u0000\u0000\u0000\u0000\u0000\u0000\u0000\u0000\u0000\u0000\u0000\u0000\u0000\u0000\u0000\u0000\u0000\u0000\u0000\u0000\u0000\u0000\u0000\u0000\u0000\u0000\u0000\u0000\u0000\u0000\u0000\u0000\u0000\u0000\u0000\u0000\u0000\u0000\u0000\u0000\u0000\u0000\u0000\u0000\u0000\u0000\u0000\u0000\u0000\u0000\u0000\u0000\u0000\u0000\u0000\u0000\u0000\u0000\u0000\u0000\u0000\u0000\u0000\u0000\u0000\u0000\u0000\u0000\u0000\u0000\u0000\u0000\u0000\u0000\u0000\u0000\u0000\u0000\u0000\u0000\u0000\u0000\u0000\u0000\u0000\u0000\u0000\u0000\u0000\u0000\u0000\u0000\u0000\u0000\u0000\u0000\u0000\u0000\u0000\u0000\u0000\u0000\u0000\u0000\u0000\u0000\u0000\u0000\u0000\u0000\u0000\u0000\u0000\u0000\u0000\u0000\u0000\u0000\u0000\u0000\u0000\u0000\u0000\u0000\u0000\u0000\u0000\u0000\u0000\u0000\u0000\u0000\u0000\u0000\u0000\u0000\u0000\u0000\u0000\u0000\u0000\u0000\u0000\u0000\u0000\u0000",
        "\u0000\u0000\u0000\u0000\u0000\u0000\u0000\u0000\u0000\u0000\u0000\u0000\u0000\u0000\u0000\u0000\u0000\u0000\u0000\u0000\u0000\u0000\u0000\u0000\u0000\u0000\u0000\u0000\u0000\u0000\u0000\u0000\u0000\u0000\u0000\u0000\u0000\u0000\u0000\u0000\u0000\u0000\u0000\u0000\u0000\u0000\u0000\u0000\u0000\u0000\u0000\u0000\u0000\u0000\u0000\u0000\u0000\u0000\u0000\u0000\u0000\u0000\u0000\u0000\u0000\u0000\u0000\u0000\u0000\u0000\u0000\u0000\u0000\u0000\u0000\u0000\u0000\u0000\u0000\u0000\u0000\u0000\u0000\u0000\u0000\u0000\u0000\u0000\u0000\u0000\u0000\u0000\u0000\u0000\u0000\u0000\u0000\u0000\u0000\u0000\u0000\u0000\u0000\u0000\u0000\u0000\u0000\u0000\u0000\u0000\u0000\u0000\u0000\u0000\u0000\u0000\u0000\u0000\u0000\u0000\u0000\u0000\u0000\u0000\u0000\u0000\u0000\u0000\u0000\u0000\u0000\u0000\u0000\u0000\u0000\u0000\u0000\u0000\u0000\u0000\u0000\u0000\u0000\u0000\u0000\u0000\u0000\u0000\u0000\u0000\u0000\u0000\u0000\u0000\u0000\u0000",
