{
  "AcquisitionMatrixPE": 104,
  "AcquisitionNumber": 1,
  "AcquisitionTime": "16:06:41.722500",
  "BandwidthPerPixelPhaseEncode": 13.935,
  "BaseResolution": 104,
  "CoilString": "C:HEA;HEP",
  "ConversionSoftware": "dcm2niix",
  "ConversionSoftwareVersion": "v1.0.20210317",
  "DerivedVendorReportedEchoSpacing": 0.000690017,
  "DeviceSerialNumber": "35450",
  "DwellTime": 2.5e-06,
  "EchoTime": 0.0348,
  "EffectiveEchoSpacing": 0.000690017,
  "FlipAngle": 55,
  "ImageComments": "Unaliased MB8/PE3 (remote)",
  "ImageOrientationPatientDICOM": [0.999658, 0.000912558, 0.0261313, 4.30659e-08, 0.999391, -0.0349024],
  "ImageType": [
    "ORIGINAL",
    "PRIMARY",
    "M",
    "MB",
    "ND",
    "MOSAIC"
],
  "ImagingFrequency": 123.234,
  "InPlanePhaseEncodingDirectionDICOM": "COL",
  "InstitutionAddress": "Univeristy Ave. 197,Newark,North East,US,07102-1814",
  "InstitutionName": "RUBIC",
  "InstitutionalDepartmentName": "Department",
  "MRAcquisitionType": "2D",
  "MagneticFieldStrength": 3,
  "Manufacturer": "Siemens",
  "ManufacturersModelName": "TrioTim",
  "Modality": "MR",
  "MultibandAccelerationFactor": 8,
  "PartialFourier": 0.875,
  "PatientPosition": "HFS",
  "PercentPhaseFOV": 100,
  "PercentSampling": 100,
  "PhaseEncodingDirection": "j-",
  "PhaseEncodingSteps": 91,
  "PhaseResolution": 1,
  "PixelBandwidth": 1923,
  "ProcedureStepDescription": "Cole^Michael",
  "ProtocolName": "cmrr_mbep2d_bold_2mm_MB8_Task_8x",
  "PulseSequenceDetails": "%CustomerSeq%\\cmrr_mbep2d_bold",
  "ReceiveCoilName": "32Ch_Head",
  "ReconMatrixPE": 104,
  "RepetitionTime": 0.785,
  "SAR": 0.128718,
  "ScanOptions": "PFP\\FS",
  "ScanningSequence": "EP",
  "SequenceName": "epfid2d1_104",
  "SequenceVariant": "SK\\SS",
  "SeriesDescription": "cmrr_mbep2d_bold_2mm_MB8_Task_8x",
  "SeriesNumber": 19,
  "ShimSetting": [2150, -340, -7322, 618, -60, -372, 126, 24],
  "SliceThickness": 2,
  "SliceTiming": [0, 0.44, 0.0875, 0.5275, 0.175, 0.615, 0.265, 0.7025, 0.3525, 0, 0.44, 0.0875, 0.5275, 0.175, 0.615, 0.265, 0.7025, 0.3525, 0, 0.44, 0.0875, 0.5275, 0.175, 0.615, 0.265, 0.7025, 0.3525, 0, 0.44, 0.0875, 0.5275, 0.175, 0.615, 0.265, 0.7025, 0.3525, 0, 0.44, 0.0875, 0.5275, 0.175, 0.615, 0.265, 0.7025, 0.3525, 0, 0.44, 0.0875, 0.5275, 0.175, 0.615, 0.265, 0.7025, 0.3525, 0, 0.44, 0.0875, 0.5275, 0.175, 0.615, 0.265, 0.7025, 0.3525, 0, 0.44, 0.0875, 0.5275, 0.175, 0.615, 0.265, 0.7025, 0.3525],
  "SoftwareVersions": "syngo MR B19",
  "SpacingBetweenSlices": 2,
  "StationName": "MRC35450",
  "TaskName": "cpro",
  "TotalReadoutTime": 0.0710717,
  "TxRefAmp": 322.77,
  "dcmmeta_affine": [
    [-1.9993162155151367, 8.613184121486483e-08, 0.052294399589300156, 105.27387237548828],
    [-0.001825116341933608, 1.998781442642212, -0.06978103518486023, -87.05563354492188],
    [0.05226253718137741, 0.06980489194393158, 1.9980981349945068, -96.70436096191406],
    [0.0, 0.0, 0.0, 1.0]
],
  "dcmmeta_reorient_transform": [
    [0.0, -1.0, 0.0, 103.0],
    [1.0, 0.0, 0.0, 0.0],
    [0.0, 0.0, 1.0, 0.0],
    [0.0, 0.0, 0.0, 1.0]
],
  "dcmmeta_shape": [104, 104, 72, 581],
  "dcmmeta_slice_dim": 2,
  "dcmmeta_version": 0.6,
  "global": {
    "const": {
      "AcquisitionMatrix": [104, 0, 0, 104],
      "AngioFlag": "N",
      "BitsAllocated": 16,
      "BitsStored": 12,
      "Columns": 936,
      "EchoNumbers": 1,
      "EchoTime": 34.8,
      "EchoTrainLength": 1,
      "FlipAngle": 55.0,
      "HighBit": 11,
      "ImageOrientationPatient": [0.99965810356638, 0.00091255818684, 0.02613126884819, 4.306592e-08, 0.99939072397178, -0.0349024474665],
      "ImagePositionPatient": [-936.98945823123, -951.07118842279, -82.21683544361],
      "ImageType": [
        "ORIGINAL",
        "PRIMARY",
        "M",
        "MB",
        "ND",
        "MOSAIC"
],
      "ImagedNucleus": "1H",
      "ImagingFrequency": 123.234403,
      "InPlanePhaseEncodingDirection": "COL",
      "MRAcquisitionType": "2D",
      "MagneticFieldStrength": 3.0,
      "Manufacturer": "SIEMENS",
      "ManufacturerModelName": "TrioTim",
      "Modality": "MR",
      "NumberOfAverages": 1.0,
      "NumberOfPhaseEncodingSteps": 91,
      "PercentPhaseFieldOfView": 100.0,
      "PercentSampling": 100.0,
      "PerformedProcedureStepStartTime": "144239.500000",
      "PhotometricInterpretation": "MONOCHROME2",
      "PixelBandwidth": 1923.0,
      "PixelRepresentation": 0,
      "PixelSpacing": [2.0, 2.0],
      "ProtocolName": "cmrr_mbep2d_bold_2mm_MB8_Task_8x",
      "RepetitionTime": 785.0,
      "Rows": 936,
      "SAR": 0.12871793755899,
      "SamplesPerPixel": 1,
      "ScanOptions": [
        "PFP",
        "FS"
],
      "ScanningSequence": "EP",
      "SequenceName": "epfid2d1_104",
      "SequenceVariant": [
        "SK",
        "SS"
],
      "SeriesDescription": "cmrr_mbep2d_bold_2mm_MB8_Task_8x",
      "SeriesNumber": 19,
      "SeriesTime": "160702.796000",
      "SliceLocation": -90.822365202648,
      "SliceThickness": 2.0,
      "SmallestImagePixelValue": 0,
      "SoftwareVersions": "syngo MR B19",
      "SpacingBetweenSlices": 2.0000000600615,
      "SpecificCharacterSet": "ISO_IR 100",
      "StudyID": "1",
      "StudyTime": "144239.468000",
      "TransmitCoilName": "Body",
      "VariableFlipAngleFlag": "N",
      "WindowCenterWidthExplanation": "Algo1",
      "dBdt": 0.0},
    "slices": {}
  },
  "time": {
    "samples": {
      "AcquisitionNumber": [1, 2, 3, 4, 5, 6, 7, 8, 9, 10, 11, 12, 13, 14, 15, 16, 17, 18, 19, 20, 21, 22, 23, 24, 25, 26, 27, 28, 29, 30, 31, 32, 33, 34, 35, 36, 37, 38, 39, 40, 41, 42, 43, 44, 45, 46, 47, 48, 49, 50, 51, 52, 53, 54, 55, 56, 57, 58, 59, 60, 61, 62, 63, 64, 65, 66, 67, 68, 69, 70, 71, 72, 73, 74, 75, 76, 77, 78, 79, 80, 81, 82, 83, 84, 85, 86, 87, 88, 89, 90, 91, 92, 93, 94, 95, 96, 97, 98, 99, 100, 101, 102, 103, 104, 105, 106, 107, 108, 109, 110, 111, 112, 113, 114, 115, 116, 117, 118, 119, 120, 121, 122, 123, 124, 125, 126, 127, 128, 129, 130, 131, 132, 133, 134, 135, 136, 137, 138, 139, 140, 141, 142, 143, 144, 145, 146, 147, 148, 149, 150, 151, 152, 153, 154, 155, 156, 157, 158, 159, 160, 161, 162, 163, 164, 165, 166, 167, 168, 169, 170, 171, 172, 173, 174, 175, 176, 177, 178, 179, 180, 181, 182, 183, 184, 185, 186, 187, 188, 189, 190, 191, 192, 193, 194, 195, 196, 197, 198, 199, 200, 201, 202, 203, 204, 205, 206, 207, 208, 209, 210, 211, 212, 213, 214, 215, 216, 217, 218, 219, 220, 221, 222, 223, 224, 225, 226, 227, 228, 229, 230, 231, 232, 233, 234, 235, 236, 237, 238, 239, 240, 241, 242, 243, 244, 245, 246, 247, 248, 249, 250, 251, 252, 253, 254, 255, 256, 257, 258, 259, 260, 261, 262, 263, 264, 265, 266, 267, 268, 269, 270, 271, 272, 273, 274, 275, 276, 277, 278, 279, 280, 281, 282, 283, 284, 285, 286, 287, 288, 289, 290, 291, 292, 293, 294, 295, 296, 297, 298, 299, 300, 301, 302, 303, 304, 305, 306, 307, 308, 309, 310, 311, 312, 313, 314, 315, 316, 317, 318, 319, 320, 321, 322, 323, 324, 325, 326, 327, 328, 329, 330, 331, 332, 333, 334, 335, 336, 337, 338, 339, 340, 341, 342, 343, 344, 345, 346, 347, 348, 349, 350, 351, 352, 353, 354, 355, 356, 357, 358, 359, 360, 361, 362, 363, 364, 365, 366, 367, 368, 369, 370, 371, 372, 373, 374, 375, 376, 377, 378, 379, 380, 381, 382, 383, 384, 385, 386, 387, 388, 389, 390, 391, 392, 393, 394, 395, 396, 397, 398, 399, 400, 401, 402, 403, 404, 405, 406, 407, 408, 409, 410, 411, 412, 413, 414, 415, 416, 417, 418, 419, 420, 421, 422, 423, 424, 425, 426, 427, 428, 429, 430, 431, 432, 433, 434, 435, 436, 437, 438, 439, 440, 441, 442, 443, 444, 445, 446, 447, 448, 449, 450, 451, 452, 453, 454, 455, 456, 457, 458, 459, 460, 461, 462, 463, 464, 465, 466, 467, 468, 469, 470, 471, 472, 473, 474, 475, 476, 477, 478, 479, 480, 481, 482, 483, 484, 485, 486, 487, 488, 489, 490, 491, 492, 493, 494, 495, 496, 497, 498, 499, 500, 501, 502, 503, 504, 505, 506, 507, 508, 509, 510, 511, 512, 513, 514, 515, 516, 517, 518, 519, 520, 521, 522, 523, 524, 525, 526, 527, 528, 529, 530, 531, 532, 533, 534, 535, 536, 537, 538, 539, 540, 541, 542, 543, 544, 545, 546, 547, 548, 549, 550, 551, 552, 553, 554, 555, 556, 557, 558, 559, 560, 561, 562, 563, 564, 565, 566, 567, 568, 569, 570, 571, 572, 573, 574, 575, 576, 577, 578, 579, 580, 581],
      "AcquisitionTime": ["160641.722500", "160642.512500", "160643.300000", "160644.087500", "160644.877500", "160645.665000", "160646.452500", "160647.240000", "160648.030000", "160648.817500", "160649.605000", "160650.392500", "160651.182500", "160651.970000", "160652.757500", "160653.545000", "160654.335000", "160655.122500", "160655.910000", "160656.697500", "160657.487500", "160658.275000", "160659.062500", "160659.850000", "160700.640000", "160701.427500", "160702.215000", "160703.005000", "160703.792500", "160704.580000", "160705.367500", "160706.157500", "160706.945000", "160707.732500", "160708.520000", "160709.310000", "160710.097500", "160710.885000", "160711.672500", "160712.462500", "160713.250000", "160714.037500", "160714.825000", "160715.615000", "160716.402500", "160717.190000", "160717.977500", "160718.767500", "160719.555000", "160720.342500", "160721.132500", "160721.920000", "160722.707500", "160723.495000", "160724.285000", "160725.072500", "160725.860000", "160726.647500", "160727.437500", "160728.225000", "160729.012500", "160729.800000", "160730.590000", "160731.377500", "160732.165000", "160732.952500", "160733.742500", "160734.530000", "160735.317500", "160736.105000", "160736.895000", "160737.682500", "160738.470000", "160739.260000", "160740.047500", "160740.835000", "160741.622500", "160742.412500", "160743.200000", "160743.987500", "160744.775000", "160745.565000", "160746.352500", "160747.140000", "160747.927500", "160748.717500", "160749.505000", "160750.292500", "160751.080000", "160751.870000", "160752.657500", "160753.445000", "160754.232500", "160755.022500", "160755.810000", "160756.597500", "160757.387500", "160758.175000", "160758.962500", "160759.750000", "160800.540000", "160801.327500", "160802.115000", "160802.902500", "160803.692500", "160804.480000", "160805.267500", "160806.055000", "160806.845000", "160807.632500", "160808.420000", "160809.207500", "160809.997500", "160810.785000", "160811.572500", "160812.360000", "160813.150000", "160813.937500", "160814.725000", "160815.515000", "160816.302500", "160817.090000", "160817.877500", "160818.667500", "160819.455000", "160820.242500", "160821.030000", "160821.820000", "160822.607500", "160823.395000", "160824.182500", "160824.972500", "160825.760000", "160826.547500", "160827.335000", "160828.125000", "160828.912500", "160829.700000", "160830.487500", "160831.277500", "160832.065000", "160832.852500", "160833.642500", "160834.430000", "160835.217500", "160836.005000", "160836.795000", "160837.582500", "160838.370000", "160839.157500", "160839.947500", "160840.735000", "160841.522500", "160842.310000", "160843.100000", "160843.887500", "160844.675000", "160845.462500", "160846.252500", "160847.040000", "160847.827500", "160848.617500", "160849.405000", "160850.192500", "160850.980000", "160851.770000", "160852.557500", "160853.345000", "160854.132500", "160854.922500", "160855.710000", "160856.497500", "160857.285000", "160858.075000", "160858.862500", "160859.650000", "160900.437500", "160901.227500", "160902.015000", "160902.802500", "160903.590000", "160904.380000", "160905.167500", "160905.955000", "160906.745000", "160907.532500", "160908.320000", "160909.107500", "160909.897500", "160910.685000", "160911.472500", "160912.260000", "160913.050000", "160913.837500", "160914.625000", "160915.412500", "160916.202500", "160916.990000", "160917.777500", "160918.565000", "160919.355000", "160920.142500", "160920.930000", "160921.717500", "160922.507500", "160923.295000", "160924.082500", "160924.872500", "160925.660000", "160926.447500", "160927.235000", "160928.025000", "160928.812500", "160929.600000", "160930.387500", "160931.177500", "160931.965000", "160932.752500", "160933.540000", "160934.330000", "160935.117500", "160935.905000", "160936.692500", "160937.482500", "160938.270000", "160939.057500", "160939.845000", "160940.635000", "160941.422500", "160942.210000", "160943.000000", "160943.787500", "160944.575000", "160945.362500", "160946.152500", "160946.940000", "160947.727500", "160948.515000", "160949.305000", "160950.092500", "160950.880000", "160951.667500", "160952.457500", "160953.245000", "160954.032500", "160954.820000", "160955.610000", "160956.397500", "160957.185000", "160957.972500", "160958.762500", "160959.550000", "161000.337500", "161001.127500", "161001.915000", "161002.702500", "161003.490000", "161004.280000", "161005.067500", "161005.855000", "161006.642500", "161007.432500", "161008.220000", "161009.007500", "161009.795000", "161010.585000", "161011.372500", "161012.160000", "161012.947500", "161013.737500", "161014.525000", "161015.312500", "161016.100000", "161016.890000", "161017.677500", "161018.465000", "161019.255000", "161020.042500", "161020.830000", "161021.617500", "161022.407500", "161023.195000", "161023.982500", "161024.770000", "161025.560000", "161026.347500", "161027.135000", "161027.922500", "161028.712500", "161029.500000", "161030.287500", "161031.075000", "161031.865000", "161032.652500", "161033.440000", "161034.227500", "161035.017500", "161035.805000", "161036.592500", "161037.382500", "161038.170000", "161038.957500", "161039.745000", "161040.535000", "161041.322500", "161042.110000", "161042.897500", "161043.687500", "161044.475000", "161045.262500", "161046.050000", "161046.840000", "161047.627500", "161048.415000", "161049.202500", "161049.992500", "161050.780000", "161051.567500", "161052.355000", "161053.145000", "161053.932500", "161054.720000", "161055.510000", "161056.297500", "161057.085000", "161057.872500", "161058.662500", "161059.450000", "161100.237500", "161101.025000", "161101.815000", "161102.602500", "161103.390000", "161104.177500", "161104.967500", "161105.755000", "161106.542500", "161107.330000", "161108.120000", "161108.907500", "161109.695000", "161110.482500", "161111.272500", "161112.060000", "161112.847500", "161113.637500", "161114.425000", "161115.212500", "161116.000000", "161116.790000", "161117.577500", "161118.365000", "161119.152500", "161119.942500", "161120.730000", "161121.517500", "161122.305000", "161123.095000", "161123.882500", "161124.670000", "161125.457500", "161126.247500", "161127.035000", "161127.822500", "161128.610000", "161129.400000", "161130.187500", "161130.975000", "161131.765000", "161132.552500", "161133.340000", "161134.127500", "161134.917500", "161135.705000", "161136.492500", "161137.280000", "161138.070000", "161138.857500", "161139.645000", "161140.432500", "161141.222500", "161142.010000", "161142.797500", "161143.585000", "161144.375000", "161145.162500", "161145.950000", "161146.737500", "161147.527500", "161148.315000", "161149.102500", "161149.892500", "161150.680000", "161151.467500", "161152.255000", "161153.045000", "161153.832500", "161154.620000", "161155.407500", "161156.197500", "161156.985000", "161157.772500", "161158.560000", "161159.350000", "161200.137500", "161200.925000", "161201.712500", "161202.502500", "161203.290000", "161204.077500", "161204.867500", "161205.655000", "161206.442500", "161207.230000", "161208.020000", "161208.807500", "161209.595000", "161210.382500", "161211.172500", "161211.960000", "161212.747500", "161213.535000", "161214.325000", "161215.112500", "161215.900000", "161216.687500", "161217.477500", "161218.265000", "161219.052500", "161219.840000", "161220.630000", "161221.417500", "161222.205000", "161222.995000", "161223.782500", "161224.570000", "161225.357500", "161226.147500", "161226.935000", "161227.722500", "161228.510000", "161229.300000", "161230.087500", "161230.875000", "161231.662500", "161232.452500", "161233.240000", "161234.027500", "161234.815000", "161235.605000", "161236.392500", "161237.180000", "161237.967500", "161238.757500", "161239.545000", "161240.332500", "161241.122500", "161241.910000", "161242.697500", "161243.485000", "161244.275000", "161245.062500", "161245.850000", "161246.637500", "161247.427500", "161248.215000", "161249.002500", "161249.790000", "161250.580000", "161251.367500", "161252.155000", "161252.942500", "161253.732500", "161254.520000", "161255.307500", "161256.095000", "161256.885000", "161257.672500", "161258.460000", "161259.250000", "161300.037500", "161300.825000", "161301.612500", "161302.402500", "161303.190000", "161303.977500", "161304.765000", "161305.555000", "161306.342500", "161307.130000", "161307.917500", "161308.707500", "161309.495000", "161310.282500", "161311.070000", "161311.860000", "161312.647500", "161313.435000", "161314.222500", "161315.012500", "161315.800000", "161316.587500", "161317.377500", "161318.165000", "161318.952500", "161319.740000", "161320.530000", "161321.317500", "161322.105000", "161322.892500", "161323.682500", "161324.470000", "161325.257500", "161326.045000", "161326.835000", "161327.622500", "161328.410000", "161329.197500", "161329.987500", "161330.775000", "161331.562500", "161332.350000", "161333.140000", "161333.927500", "161334.715000", "161335.505000", "161336.292500", "161337.080000", "161337.867500", "161338.657500", "161339.445000", "161340.232500", "161341.020000", "161341.810000", "161342.597500", "161343.385000", "161344.172500", "161344.962500", "161345.750000", "161346.537500", "161347.325000", "161348.115000", "161348.902500", "161349.690000", "161350.477500", "161351.267500", "161352.055000", "161352.842500", "161353.632500", "161354.420000", "161355.207500", "161355.995000", "161356.785000", "161357.572500", "161358.360000", "161359.147500", "161359.937500", "161400.725000", "161401.512500", "161402.300000", "161403.090000", "161403.877500", "161404.665000", "161405.452500", "161406.242500", "161407.030000", "161407.817500", "161408.605000", "161409.395000", "161410.182500", "161410.970000", "161411.760000", "161412.547500", "161413.335000", "161414.122500", "161414.912500", "161415.700000", "161416.487500", "161417.275000", "161418.065000", "161418.852500"],
      "ContentTime": ["160702.796000", "160702.796000", "160702.796000", "160702.796000", "160702.796000", "160702.796000", "160702.812000", "160702.812000", "160702.812000", "160702.812000", "160702.812000", "160702.812000", "160702.812000", "160702.828000", "160702.828000", "160702.828000", "160702.828000", "160702.828000", "160702.828000", "160702.843000", "160702.843000", "160702.843000", "160702.843000", "160702.843000", "160722.765000", "160722.765000", "160722.765000", "160722.765000", "160722.765000", "160722.781000", "160722.781000", "160722.781000", "160722.781000", "160722.781000", "160722.781000", "160722.781000", "160722.796000", "160722.796000", "160722.796000", "160722.796000", "160722.796000", "160722.812000", "160722.812000", "160722.812000", "160722.812000", "160722.812000", "160722.812000", "160722.828000", "160722.828000", "160742.765000", "160742.765000", "160742.765000", "160742.765000", "160742.765000", "160742.765000", "160742.781000", "160742.781000", "160742.781000", "160742.781000", "160742.781000", "160742.781000", "160742.796000", "160742.796000", "160742.796000", "160742.796000", "160742.796000", "160742.796000", "160742.796000", "160742.796000", "160742.812000", "160742.812000", "160742.812000", "160742.812000", "160742.812000", "160742.812000", "160802.765000", "160802.765000", "160802.765000", "160802.765000", "160802.765000", "160802.765000", "160802.781000", "160802.781000", "160802.781000", "160802.781000", "160802.781000", "160802.781000", "160802.796000", "160802.796000", "160802.796000", "160802.796000", "160802.796000", "160802.796000", "160802.796000", "160802.796000", "160802.812000", "160802.812000", "160802.812000", "160802.812000", "160802.812000", "160822.765000", "160822.765000", "160822.765000", "160822.765000", "160822.765000", "160822.781000", "160822.781000", "160822.781000", "160822.781000", "160822.781000", "160822.781000", "160822.781000", "160822.796000", "160822.796000", "160822.796000", "160822.796000", "160822.796000", "160822.796000", "160822.796000", "160822.812000", "160822.812000", "160822.812000", "160822.812000", "160822.812000", "160822.812000", "160822.828000", "160842.765000", "160842.765000", "160842.765000", "160842.765000", "160842.765000", "160842.765000", "160842.781000", "160842.781000", "160842.781000", "160842.781000", "160842.781000", "160842.781000", "160842.781000", "160842.796000", "160842.796000", "160842.796000", "160842.796000", "160842.796000", "160842.796000", "160842.796000", "160842.812000", "160842.812000", "160842.812000", "160842.812000", "160842.812000", "160902.765000", "160902.765000", "160902.765000", "160902.765000", "160902.765000", "160902.765000", "160902.781000", "160902.781000", "160902.781000", "160902.781000", "160902.781000", "160902.781000", "160902.781000", "160902.796000", "160902.796000", "160902.796000", "160902.796000", "160902.796000", "160902.796000", "160902.796000", "160902.812000", "160902.812000", "160902.812000", "160902.812000", "160902.812000", "160902.812000", "160922.765000", "160922.765000", "160922.765000", "160922.765000", "160922.765000", "160922.765000", "160922.781000", "160922.781000", "160922.781000", "160922.781000", "160922.781000", "160922.781000", "160922.781000", "160922.796000", "160922.796000", "160922.796000", "160922.796000", "160922.796000", "160922.796000", "160922.812000", "160922.812000", "160922.812000", "160922.812000", "160922.812000", "160922.812000", "160942.765000", "160942.765000", "160942.765000", "160942.765000", "160942.765000", "160942.781000", "160942.781000", "160942.781000", "160942.781000", "160942.781000", "160942.796000", "160942.796000", "160942.796000", "160942.796000", "160942.796000", "160942.796000", "160942.796000", "160942.812000", "160942.812000", "160942.812000", "160942.812000", "160942.812000", "160942.812000", "160942.812000", "160942.828000", "160942.828000", "161002.765000", "161002.765000", "161002.765000", "161002.765000", "161002.765000", "161002.781000", "161002.781000", "161002.781000", "161002.781000", "161002.796000", "161002.796000", "161002.796000", "161002.796000", "161002.796000", "161002.796000", "161002.812000", "161002.812000", "161002.812000", "161002.812000", "161002.812000", "161002.812000", "161002.812000", "161002.828000", "161002.828000", "161002.828000", "161022.765000", "161022.765000", "161022.765000", "161022.765000", "161022.765000", "161022.765000", "161022.781000", "161022.781000", "161022.781000", "161022.781000", "161022.781000", "161022.781000", "161022.781000", "161022.796000", "161022.796000", "161022.796000", "161022.796000", "161022.796000", "161022.796000", "161022.812000", "161022.812000", "161022.812000", "161022.812000", "161022.812000", "161022.828000", "161022.828000", "161042.765000", "161042.765000", "161042.765000", "161042.765000", "161042.765000", "161042.765000", "161042.781000", "161042.781000", "161042.781000", "161042.781000", "161042.781000", "161042.781000", "161042.781000", "161042.796000", "161042.796000", "161042.796000", "161042.796000", "161042.796000", "161042.796000", "161042.796000", "161042.812000", "161042.812000", "161042.812000", "161042.812000", "161042.812000", "161102.765000", "161102.765000", "161102.765000", "161102.765000", "161102.765000", "161102.765000", "161102.781000", "161102.781000", "161102.781000", "161102.781000", "161102.781000", "161102.781000", "161102.796000", "161102.796000", "161102.796000", "161102.796000", "161102.796000", "161102.796000", "161102.796000", "161102.812000", "161102.812000", "161102.812000", "161102.812000", "161102.812000", "161102.812000", "161102.812000", "161122.765000", "161122.765000", "161122.765000", "161122.765000", "161122.765000", "161122.765000", "161122.781000", "161122.781000", "161122.781000", "161122.781000", "161122.781000", "161122.781000", "161122.781000", "161122.796000", "161122.796000", "161122.796000", "161122.796000", "161122.796000", "161122.796000", "161122.812000", "161122.812000", "161122.812000", "161122.812000", "161122.812000", "161122.812000", "161142.765000", "161142.765000", "161142.765000", "161142.765000", "161142.765000", "161142.765000", "161142.781000", "161142.781000", "161142.781000", "161142.781000", "161142.781000", "161142.781000", "161142.796000", "161142.796000", "161142.796000", "161142.796000", "161142.796000", "161142.796000", "161142.796000", "161142.812000", "161142.812000", "161142.812000", "161142.812000", "161142.812000", "161142.812000", "161142.812000", "161202.765000", "161202.765000", "161202.765000", "161202.765000", "161202.765000", "161202.765000", "161202.781000", "161202.781000", "161202.781000", "161202.781000", "161202.781000", "161202.781000", "161202.796000", "161202.796000", "161202.796000", "161202.812000", "161202.812000", "161202.812000", "161202.812000", "161202.828000", "161202.828000", "161202.828000", "161202.828000", "161202.828000", "161202.843000", "161222.765000", "161222.781000", "161222.781000", "161222.781000", "161222.796000", "161222.796000", "161222.796000", "161222.812000", "161222.812000", "161222.812000", "161222.812000", "161222.812000", "161222.812000", "161222.812000", "161222.828000", "161222.828000", "161222.828000", "161222.828000", "161222.828000", "161222.828000", "161222.828000", "161222.843000", "161222.843000", "161222.843000", "161222.843000", "161222.843000", "161242.765000", "161242.765000", "161242.765000", "161242.765000", "161242.765000", "161242.765000", "161242.781000", "161242.781000", "161242.781000", "161242.781000", "161242.781000", "161242.781000", "161242.781000", "161242.796000", "161242.796000", "161242.796000", "161242.796000", "161242.796000", "161242.796000", "161242.796000", "161242.812000", "161242.812000", "161242.812000", "161242.812000", "161242.812000", "161302.765000", "161302.765000", "161302.765000", "161302.765000", "161302.765000", "161302.765000", "161302.781000", "161302.781000", "161302.781000", "161302.781000", "161302.781000", "161302.781000", "161302.796000", "161302.796000", "161302.796000", "161302.796000", "161302.796000", "161302.796000", "161302.796000", "161302.812000", "161302.812000", "161302.812000", "161302.812000", "161302.812000", "161302.812000", "161302.812000", "161322.765000", "161322.765000", "161322.765000", "161322.765000", "161322.765000", "161322.765000", "161322.781000", "161322.781000", "161322.781000", "161322.781000", "161322.781000", "161322.781000", "161322.781000", "161322.796000", "161322.796000", "161322.796000", "161322.796000", "161322.796000", "161322.796000", "161322.796000", "161322.812000", "161322.812000", "161322.812000", "161322.812000", "161322.812000", "161342.765000", "161342.765000", "161342.765000", "161342.765000", "161342.781000", "161342.781000", "161342.781000", "161342.781000", "161342.781000", "161342.781000", "161342.796000", "161342.796000", "161342.796000", "161342.796000", "161342.796000", "161342.812000", "161342.812000", "161342.812000", "161342.812000", "161342.812000", "161342.812000", "161342.812000", "161342.828000", "161342.828000", "161342.828000", "161402.765000", "161402.765000", "161402.765000", "161402.765000", "161402.765000", "161402.765000", "161402.781000", "161402.781000", "161402.781000", "161402.781000", "161402.781000", "161402.781000", "161402.796000", "161402.796000", "161402.796000", "161402.796000", "161402.796000", "161402.796000", "161402.796000", "161402.812000", "161402.812000", "161402.812000", "161402.812000", "161402.812000", "161402.812000", "161402.812000", "161419.781000", "161419.781000", "161419.781000", "161419.781000", "161419.781000", "161419.781000", "161419.781000", "161419.796000", "161419.796000", "161419.796000", "161419.796000", "161419.796000", "161419.796000", "161419.796000", "161419.812000", "161419.812000", "161419.812000", "161419.812000", "161419.812000", "161419.828000", "161419.828000", "161419.828000"],
      "DataSetTrailingPadding": [
        "\u0000\u0000\u0000\u0000\u0000\u0000\u0000\u0000\u0000\u0000\u0000\u0000\u0000\u0000\u0000\u0000\u0000\u0000\u0000\u0000\u0000\u0000\u0000\u0000\u0000\u0000\u0000\u0000\u0000\u0000\u0000\u0000\u0000\u0000\u0000\u0000\u0000\u0000\u0000\u0000\u0000\u0000\u0000\u0000\u0000\u0000\u0000\u0000\u0000\u0000\u0000\u0000\u0000\u0000\u0000\u0000\u0000\u0000\u0000\u0000\u0000\u0000\u0000\u0000\u0000\u0000\u0000\u0000\u0000\u0000\u0000\u0000\u0000\u0000\u0000\u0000\u0000\u0000\u0000\u0000\u0000\u0000\u0000\u0000\u0000\u0000\u0000\u0000\u0000\u0000\u0000\u0000\u0000\u0000\u0000\u0000\u0000\u0000\u0000\u0000\u0000\u0000\u0000\u0000\u0000\u0000\u0000\u0000\u0000\u0000\u0000\u0000\u0000\u0000\u0000\u0000\u0000\u0000\u0000\u0000\u0000\u0000\u0000\u0000\u0000\u0000\u0000\u0000\u0000\u0000\u0000\u0000\u0000\u0000\u0000\u0000\u0000\u0000\u0000\u0000\u0000\u0000\u0000\u0000\u0000\u0000\u0000\u0000\u0000\u0000\u0000\u0000\u0000\u0000\u0000\u0000",
        "\u0000\u0000\u0000\u0000\u0000\u0000\u0000\u0000\u0000\u0000\u0000\u0000\u0000\u0000\u0000\u0000\u0000\u0000\u0000\u0000\u0000\u0000\u0000\u0000\u0000\u0000\u0000\u0000\u0000\u0000\u0000\u0000\u0000\u0000\u0000\u0000\u0000\u0000\u0000\u0000\u0000\u0000\u0000\u0000\u0000\u0000\u0000\u0000\u0000\u0000\u0000\u0000\u0000\u0000\u0000\u0000\u0000\u0000\u0000\u0000\u0000\u0000\u0000\u0000\u0000\u0000\u0000\u0000\u0000\u0000\u0000\u0000\u0000\u0000\u0000\u0000\u0000\u0000\u0000\u0000\u0000\u0000\u0000\u0000\u0000\u0000\u0000\u0000\u0000\u0000\u0000\u0000\u0000\u0000\u0000\u0000\u0000\u0000\u0000\u0000\u0000\u0000\u0000\u0000\u0000\u0000\u0000\u0000\u0000\u0000\u0000\u0000\u0000\u0000\u0000\u0000\u0000\u0000\u0000\u0000\u0000\u0000\u0000\u0000\u0000\u0000\u0000\u0000\u0000\u0000\u0000\u0000\u0000\u0000\u0000\u0000\u0000\u0000\u0000\u0000\u0000\u0000\u0000\u0000\u0000\u0000\u0000\u0000\u0000\u0000\u0000\u0000\u0000\u0000",
