{
  "AcquisitionMatrixPE": 104,
  "AcquisitionNumber": 1,
  "AcquisitionTime": "16:30:38.727500",
  "BandwidthPerPixelPhaseEncode": 13.935,
  "BaseResolution": 104,
  "CoilString": "C:HEA;HEP",
  "ConversionSoftware": "dcm2niix",
  "ConversionSoftwareVersion": "v1.0.20210317",
  "DerivedVendorReportedEchoSpacing": 0.000690017,
  "DeviceSerialNumber": "35450",
  "DwellTime": 2.5e-06,
  "EchoTime": 0.0348,
  "EffectiveEchoSpacing": 0.000690017,
  "FlipAngle": 55,
  "ImageComments": "Unaliased MB8/PE3 (remote)",
  "ImageOrientationPatientDICOM": [0.999658, 0.000912558, 0.0261313, 4.30659e-08, 0.999391, -0.0349024],
  "ImageType": [
    "ORIGINAL",
    "PRIMARY",
    "M",
    "MB",
    "ND",
    "MOSAIC"
],
  "ImagingFrequency": 123.234,
  "InPlanePhaseEncodingDirectionDICOM": "COL",
  "InstitutionAddress": "Univeristy Ave. 197,Newark,North East,US,07102-1814",
  "InstitutionName": "RUBIC",
  "InstitutionalDepartmentName": "Department",
  "MRAcquisitionType": "2D",
  "MagneticFieldStrength": 3,
  "Manufacturer": "Siemens",
  "ManufacturersModelName": "TrioTim",
  "Modality": "MR",
  "MultibandAccelerationFactor": 8,
  "PartialFourier": 0.875,
  "PatientPosition": "HFS",
  "PercentPhaseFOV": 100,
  "PercentSampling": 100,
  "PhaseEncodingDirection": "j-",
  "PhaseEncodingSteps": 91,
  "PhaseResolution": 1,
  "PixelBandwidth": 1923,
  "ProcedureStepDescription": "Cole^Michael",
  "ProtocolName": "cmrr_mbep2d_bold_2mm_MB8_Task_8x",
  "PulseSequenceDetails": "%CustomerSeq%\\cmrr_mbep2d_bold",
  "ReceiveCoilName": "32Ch_Head",
  "ReconMatrixPE": 104,
  "RepetitionTime": 0.785,
  "SAR": 0.128718,
  "ScanOptions": "PFP\\FS",
  "ScanningSequence": "EP",
  "SequenceName": "epfid2d1_104",
  "SequenceVariant": "SK\\SS",
  "SeriesDescription": "cmrr_mbep2d_bold_2mm_MB8_Task_8x",
  "SeriesNumber": 25,
  "ShimSetting": [2150, -340, -7322, 618, -60, -372, 126, 24],
  "SliceThickness": 2,
  "SliceTiming": [0, 0.4375, 0.0875, 0.525, 0.175, 0.6125, 0.2625, 0.7, 0.35, 0, 0.4375, 0.0875, 0.525, 0.175, 0.6125, 0.2625, 0.7, 0.35, 0, 0.4375, 0.0875, 0.525, 0.175, 0.6125, 0.2625, 0.7, 0.35, 0, 0.4375, 0.0875, 0.525, 0.175, 0.6125, 0.2625, 0.7, 0.35, 0, 0.4375, 0.0875, 0.525, 0.175, 0.6125, 0.2625, 0.7, 0.35, 0, 0.4375, 0.0875, 0.525, 0.175, 0.6125, 0.2625, 0.7, 0.35, 0, 0.4375, 0.0875, 0.525, 0.175, 0.6125, 0.2625, 0.7, 0.35, 0, 0.4375, 0.0875, 0.525, 0.175, 0.6125, 0.2625, 0.7, 0.35],
  "SoftwareVersions": "syngo MR B19",
  "SpacingBetweenSlices": 2,
  "StationName": "MRC35450",
  "TaskName": "cpro",
  "TotalReadoutTime": 0.0710717,
  "TxRefAmp": 322.77,
  "dcmmeta_affine": [
    [-1.9993162155151367, 8.613184121486483e-08, 0.052294399589300156, 105.27387237548828],
    [-0.001825116341933608, 1.998781442642212, -0.06978103518486023, -87.05563354492188],
    [0.05226253718137741, 0.06980489194393158, 1.9980981349945068, -96.70436096191406],
    [0.0, 0.0, 0.0, 1.0]
],
  "dcmmeta_reorient_transform": [
    [0.0, -1.0, 0.0, 103.0],
    [1.0, 0.0, 0.0, 0.0],
    [0.0, 0.0, 1.0, 0.0],
    [0.0, 0.0, 0.0, 1.0]
],
  "dcmmeta_shape": [104, 104, 72, 581],
  "dcmmeta_slice_dim": 2,
  "dcmmeta_version": 0.6,
  "global": {
    "const": {
      "AcquisitionMatrix": [104, 0, 0, 104],
      "AngioFlag": "N",
      "BitsAllocated": 16,
      "BitsStored": 12,
      "Columns": 936,
      "EchoNumbers": 1,
      "EchoTime": 34.8,
      "EchoTrainLength": 1,
      "FlipAngle": 55.0,
      "HighBit": 11,
      "ImageOrientationPatient": [0.99965810356638, 0.00091255818684, 0.02613126884819, 4.306592e-08, 0.99939072397178, -0.0349024474665],
      "ImagePositionPatient": [-936.98945823123, -951.07118842279, -82.21683544361],
      "ImageType": [
        "ORIGINAL",
        "PRIMARY",
        "M",
        "MB",
        "ND",
        "MOSAIC"
],
      "ImagedNucleus": "1H",
      "ImagingFrequency": 123.234403,
      "InPlanePhaseEncodingDirection": "COL",
      "MRAcquisitionType": "2D",
      "MagneticFieldStrength": 3.0,
      "Manufacturer": "SIEMENS",
      "ManufacturerModelName": "TrioTim",
      "Modality": "MR",
      "NumberOfAverages": 1.0,
      "NumberOfPhaseEncodingSteps": 91,
      "PercentPhaseFieldOfView": 100.0,
      "PercentSampling": 100.0,
      "PerformedProcedureStepStartTime": "144239.500000",
      "PhotometricInterpretation": "MONOCHROME2",
      "PixelBandwidth": 1923.0,
      "PixelRepresentation": 0,
      "PixelSpacing": [2.0, 2.0],
      "ProtocolName": "cmrr_mbep2d_bold_2mm_MB8_Task_8x",
      "RepetitionTime": 785.0,
      "Rows": 936,
      "SAR": 0.12871793755899,
      "SamplesPerPixel": 1,
      "ScanOptions": [
        "PFP",
        "FS"
],
      "ScanningSequence": "EP",
      "SequenceName": "epfid2d1_104",
      "SequenceVariant": [
        "SK",
        "SS"
],
      "SeriesDescription": "cmrr_mbep2d_bold_2mm_MB8_Task_8x",
      "SeriesNumber": 25,
      "SeriesTime": "163102.781000",
      "SliceLocation": -90.822365202648,
      "SliceThickness": 2.0,
      "SmallestImagePixelValue": 0,
      "SoftwareVersions": "syngo MR B19",
      "SpacingBetweenSlices": 2.0000000600615,
      "SpecificCharacterSet": "ISO_IR 100",
      "StudyID": "1",
      "StudyTime": "144239.468000",
      "TransmitCoilName": "Body",
      "VariableFlipAngleFlag": "N",
      "WindowCenterWidthExplanation": "Algo1",
      "dBdt": 0.0},
    "slices": {}
  },
  "time": {
    "samples": {
      "AcquisitionNumber": [1, 2, 3, 4, 5, 6, 7, 8, 9, 10, 11, 12, 13, 14, 15, 16, 17, 18, 19, 20, 21, 22, 23, 24, 25, 26, 27, 28, 29, 30, 31, 32, 33, 34, 35, 36, 37, 38, 39, 40, 41, 42, 43, 44, 45, 46, 47, 48, 49, 50, 51, 52, 53, 54, 55, 56, 57, 58, 59, 60, 61, 62, 63, 64, 65, 66, 67, 68, 69, 70, 71, 72, 73, 74, 75, 76, 77, 78, 79, 80, 81, 82, 83, 84, 85, 86, 87, 88, 89, 90, 91, 92, 93, 94, 95, 96, 97, 98, 99, 100, 101, 102, 103, 104, 105, 106, 107, 108, 109, 110, 111, 112, 113, 114, 115, 116, 117, 118, 119, 120, 121, 122, 123, 124, 125, 126, 127, 128, 129, 130, 131, 132, 133, 134, 135, 136, 137, 138, 139, 140, 141, 142, 143, 144, 145, 146, 147, 148, 149, 150, 151, 152, 153, 154, 155, 156, 157, 158, 159, 160, 161, 162, 163, 164, 165, 166, 167, 168, 169, 170, 171, 172, 173, 174, 175, 176, 177, 178, 179, 180, 181, 182, 183, 184, 185, 186, 187, 188, 189, 190, 191, 192, 193, 194, 195, 196, 197, 198, 199, 200, 201, 202, 203, 204, 205, 206, 207, 208, 209, 210, 211, 212, 213, 214, 215, 216, 217, 218, 219, 220, 221, 222, 223, 224, 225, 226, 227, 228, 229, 230, 231, 232, 233, 234, 235, 236, 237, 238, 239, 240, 241, 242, 243, 244, 245, 246, 247, 248, 249, 250, 251, 252, 253, 254, 255, 256, 257, 258, 259, 260, 261, 262, 263, 264, 265, 266, 267, 268, 269, 270, 271, 272, 273, 274, 275, 276, 277, 278, 279, 280, 281, 282, 283, 284, 285, 286, 287, 288, 289, 290, 291, 292, 293, 294, 295, 296, 297, 298, 299, 300, 301, 302, 303, 304, 305, 306, 307, 308, 309, 310, 311, 312, 313, 314, 315, 316, 317, 318, 319, 320, 321, 322, 323, 324, 325, 326, 327, 328, 329, 330, 331, 332, 333, 334, 335, 336, 337, 338, 339, 340, 341, 342, 343, 344, 345, 346, 347, 348, 349, 350, 351, 352, 353, 354, 355, 356, 357, 358, 359, 360, 361, 362, 363, 364, 365, 366, 367, 368, 369, 370, 371, 372, 373, 374, 375, 376, 377, 378, 379, 380, 381, 382, 383, 384, 385, 386, 387, 388, 389, 390, 391, 392, 393, 394, 395, 396, 397, 398, 399, 400, 401, 402, 403, 404, 405, 406, 407, 408, 409, 410, 411, 412, 413, 414, 415, 416, 417, 418, 419, 420, 421, 422, 423, 424, 425, 426, 427, 428, 429, 430, 431, 432, 433, 434, 435, 436, 437, 438, 439, 440, 441, 442, 443, 444, 445, 446, 447, 448, 449, 450, 451, 452, 453, 454, 455, 456, 457, 458, 459, 460, 461, 462, 463, 464, 465, 466, 467, 468, 469, 470, 471, 472, 473, 474, 475, 476, 477, 478, 479, 480, 481, 482, 483, 484, 485, 486, 487, 488, 489, 490, 491, 492, 493, 494, 495, 496, 497, 498, 499, 500, 501, 502, 503, 504, 505, 506, 507, 508, 509, 510, 511, 512, 513, 514, 515, 516, 517, 518, 519, 520, 521, 522, 523, 524, 525, 526, 527, 528, 529, 530, 531, 532, 533, 534, 535, 536, 537, 538, 539, 540, 541, 542, 543, 544, 545, 546, 547, 548, 549, 550, 551, 552, 553, 554, 555, 556, 557, 558, 559, 560, 561, 562, 563, 564, 565, 566, 567, 568, 569, 570, 571, 572, 573, 574, 575, 576, 577, 578, 579, 580, 581],
      "AcquisitionTime": ["163038.727500", "163039.515000", "163040.302500", "163041.090000", "163041.880000", "163042.667500", "163043.455000", "163044.242500", "163045.032500", "163045.820000", "163046.607500", "163047.397500", "163048.185000", "163048.972500", "163049.760000", "163050.550000", "163051.337500", "163052.125000", "163052.912500", "163053.702500", "163054.490000", "163055.277500", "163056.065000", "163056.855000", "163057.642500", "163058.430000", "163059.217500", "163100.007500", "163100.795000", "163101.582500", "163102.370000", "163103.160000", "163103.947500", "163104.735000", "163105.525000", "163106.312500", "163107.100000", "163107.887500", "163108.677500", "163109.465000", "163110.252500", "163111.040000", "163111.830000", "163112.617500", "163113.405000", "163114.192500", "163114.982500", "163115.770000", "163116.557500", "163117.345000", "163118.135000", "163118.922500", "163119.710000", "163120.497500", "163121.287500", "163122.075000", "163122.862500", "163123.652500", "163124.440000", "163125.227500", "163126.015000", "163126.805000", "163127.592500", "163128.380000", "163129.167500", "163129.957500", "163130.745000", "163131.532500", "163132.320000", "163133.110000", "163133.897500", "163134.685000", "163135.472500", "163136.262500", "163137.050000", "163137.837500", "163138.625000", "163139.415000", "163140.202500", "163140.990000", "163141.780000", "163142.567500", "163143.355000", "163144.142500", "163144.932500", "163145.720000", "163146.507500", "163147.295000", "163148.085000", "163148.872500", "163149.660000", "163150.447500", "163151.237500", "163152.025000", "163152.812500", "163153.600000", "163154.390000", "163155.177500", "163155.965000", "163156.752500", "163157.542500", "163158.330000", "163159.117500", "163159.907500", "163200.695000", "163201.482500", "163202.270000", "163203.060000", "163203.847500", "163204.635000", "163205.422500", "163206.212500", "163207.000000", "163207.787500", "163208.575000", "163209.365000", "163210.152500", "163210.940000", "163211.727500", "163212.517500", "163213.305000", "163214.092500", "163214.880000", "163215.670000", "163216.457500", "163217.245000", "163218.035000", "163218.822500", "163219.610000", "163220.397500", "163221.187500", "163221.975000", "163222.762500", "163223.550000", "163224.340000", "163225.127500", "163225.915000", "163226.702500", "163227.492500", "163228.280000", "163229.067500", "163229.855000", "163230.645000", "163231.432500", "163232.220000", "163233.007500", "163233.797500", "163234.585000", "163235.372500", "163236.162500", "163236.950000", "163237.737500", "163238.525000", "163239.315000", "163240.102500", "163240.890000", "163241.677500", "163242.467500", "163243.255000", "163244.042500", "163244.830000", "163245.620000", "163246.407500", "163247.195000", "163247.982500", "163248.772500", "163249.560000", "163250.347500", "163251.135000", "163251.925000", "163252.712500", "163253.500000", "163254.290000", "163255.077500", "163255.865000", "163256.652500", "163257.442500", "163258.230000", "163259.017500", "163259.805000", "163300.595000", "163301.382500", "163302.170000", "163302.957500", "163303.747500", "163304.535000", "163305.322500", "163306.110000", "163306.900000", "163307.687500", "163308.475000", "163309.262500", "163310.052500", "163310.840000", "163311.627500", "163312.417500", "163313.205000", "163313.992500", "163314.780000", "163315.570000", "163316.357500", "163317.145000", "163317.932500", "163318.722500", "163319.510000", "163320.297500", "163321.085000", "163321.875000", "163322.662500", "163323.450000", "163324.237500", "163325.027500", "163325.815000", "163326.602500", "163327.392500", "163328.180000", "163328.967500", "163329.755000", "163330.545000", "163331.332500", "163332.120000", "163332.907500", "163333.697500", "163334.485000", "163335.272500", "163336.060000", "163336.850000", "163337.637500", "163338.425000", "163339.212500", "163340.002500", "163340.790000", "163341.577500", "163342.365000", "163343.155000", "163343.942500", "163344.730000", "163345.520000", "163346.307500", "163347.095000", "163347.882500", "163348.672500", "163349.460000", "163350.247500", "163351.035000", "163351.825000", "163352.612500", "163353.400000", "163354.187500", "163354.977500", "163355.765000", "163356.552500", "163357.340000", "163358.130000", "163358.917500", "163359.705000", "163400.492500", "163401.282500", "163402.070000", "163402.857500", "163403.647500", "163404.435000", "163405.222500", "163406.010000", "163406.800000", "163407.587500", "163408.375000", "163409.162500", "163409.952500", "163410.740000", "163411.527500", "163412.315000", "163413.105000", "163413.892500", "163414.680000", "163415.467500", "163416.257500", "163417.045000", "163417.832500", "163418.620000", "163419.410000", "163420.197500", "163420.985000", "163421.775000", "163422.562500", "163423.350000", "163424.137500", "163424.927500", "163425.715000", "163426.502500", "163427.290000", "163428.080000", "163428.867500", "163429.655000", "163430.442500", "163431.232500", "163432.020000", "163432.807500", "163433.595000", "163434.385000", "163435.172500", "163435.960000", "163436.747500", "163437.537500", "163438.325000", "163439.112500", "163439.902500", "163440.690000", "163441.477500", "163442.265000", "163443.055000", "163443.842500", "163444.630000", "163445.417500", "163446.207500", "163446.995000", "163447.782500", "163448.570000", "163449.360000", "163450.147500", "163450.935000", "163451.722500", "163452.512500", "163453.300000", "163454.087500", "163454.875000", "163455.665000", "163456.452500", "163457.240000", "163458.030000", "163458.817500", "163459.605000", "163500.392500", "163501.182500", "163501.970000", "163502.757500", "163503.545000", "163504.335000", "163505.122500", "163505.910000", "163506.697500", "163507.487500", "163508.275000", "163509.062500", "163509.850000", "163510.640000", "163511.427500", "163512.215000", "163513.002500", "163513.792500", "163514.580000", "163515.367500", "163516.157500", "163516.945000", "163517.732500", "163518.520000", "163519.310000", "163520.097500", "163520.885000", "163521.672500", "163522.462500", "163523.250000", "163524.037500", "163524.825000", "163525.615000", "163526.402500", "163527.190000", "163527.977500", "163528.767500", "163529.555000", "163530.342500", "163531.130000", "163531.920000", "163532.707500", "163533.495000", "163534.285000", "163535.072500", "163535.860000", "163536.647500", "163537.437500", "163538.225000", "163539.012500", "163539.800000", "163540.590000", "163541.377500", "163542.165000", "163542.952500", "163543.742500", "163544.530000", "163545.317500", "163546.105000", "163546.895000", "163547.682500", "163548.470000", "163549.257500", "163550.047500", "163550.835000", "163551.622500", "163552.412500", "163553.200000", "163553.987500", "163554.775000", "163555.565000", "163556.352500", "163557.140000", "163557.927500", "163558.717500", "163559.505000", "163600.292500", "163601.080000", "163601.870000", "163602.657500", "163603.445000", "163604.232500", "163605.022500", "163605.810000", "163606.597500", "163607.385000", "163608.175000", "163608.962500", "163609.750000", "163610.540000", "163611.327500", "163612.115000", "163612.902500", "163613.692500", "163614.480000", "163615.267500", "163616.055000", "163616.845000", "163617.632500", "163618.420000", "163619.207500", "163619.997500", "163620.785000", "163621.572500", "163622.360000", "163623.150000", "163623.937500", "163624.725000", "163625.512500", "163626.302500", "163627.090000", "163627.877500", "163628.667500", "163629.455000", "163630.242500", "163631.030000", "163631.820000", "163632.607500", "163633.395000", "163634.182500", "163634.972500", "163635.760000", "163636.547500", "163637.335000", "163638.125000", "163638.912500", "163639.700000", "163640.487500", "163641.277500", "163642.065000", "163642.852500", "163643.642500", "163644.430000", "163645.217500", "163646.005000", "163646.795000", "163647.582500", "163648.370000", "163649.157500", "163649.947500", "163650.735000", "163651.522500", "163652.310000", "163653.100000", "163653.887500", "163654.675000", "163655.462500", "163656.252500", "163657.040000", "163657.827500", "163658.615000", "163659.405000", "163700.192500", "163700.980000", "163701.770000", "163702.557500", "163703.345000", "163704.132500", "163704.922500", "163705.710000", "163706.497500", "163707.285000", "163708.075000", "163708.862500", "163709.650000", "163710.437500", "163711.227500", "163712.015000", "163712.802500", "163713.590000", "163714.380000", "163715.167500", "163715.955000", "163716.742500", "163717.532500", "163718.320000", "163719.107500", "163719.897500", "163720.685000", "163721.472500", "163722.260000", "163723.050000", "163723.837500", "163724.625000", "163725.412500", "163726.202500", "163726.990000", "163727.777500", "163728.565000", "163729.355000", "163730.142500", "163730.930000", "163731.717500", "163732.507500", "163733.295000", "163734.082500", "163734.870000", "163735.660000", "163736.447500", "163737.235000", "163738.025000", "163738.812500", "163739.600000", "163740.387500", "163741.177500", "163741.965000", "163742.752500", "163743.540000", "163744.330000", "163745.117500", "163745.905000", "163746.692500", "163747.482500", "163748.270000", "163749.057500", "163749.845000", "163750.635000", "163751.422500", "163752.210000", "163752.997500", "163753.787500", "163754.575000", "163755.362500", "163756.152500", "163756.940000", "163757.727500", "163758.515000", "163759.305000", "163800.092500", "163800.880000", "163801.667500", "163802.457500", "163803.245000", "163804.032500", "163804.820000", "163805.610000", "163806.397500", "163807.185000", "163807.972500", "163808.762500", "163809.550000", "163810.337500", "163811.125000", "163811.915000", "163812.702500", "163813.490000", "163814.280000", "163815.067500", "163815.855000"],
      "ContentTime": ["163102.796000", "163102.796000", "163102.796000", "163102.796000", "163102.796000", "163102.796000", "163102.796000", "163102.812000", "163102.812000", "163102.812000", "163102.812000", "163102.828000", "163102.828000", "163102.828000", "163102.828000", "163102.828000", "163102.828000", "163102.843000", "163102.843000", "163102.843000", "163102.843000", "163102.843000", "163102.843000", "163102.843000", "163102.859000", "163102.859000", "163102.859000", "163102.859000", "163122.765000", "163122.765000", "163122.765000", "163122.765000", "163122.781000", "163122.781000", "163122.781000", "163122.781000", "163122.781000", "163122.796000", "163122.796000", "163122.796000", "163122.796000", "163122.796000", "163122.796000", "163122.796000", "163122.812000", "163122.812000", "163122.812000", "163122.812000", "163122.812000", "163122.828000", "163122.828000", "163122.828000", "163122.828000", "163142.765000", "163142.765000", "163142.765000", "163142.765000", "163142.765000", "163142.765000", "163142.781000", "163142.781000", "163142.781000", "163142.781000", "163142.781000", "163142.781000", "163142.796000", "163142.796000", "163142.796000", "163142.796000", "163142.796000", "163142.812000", "163142.812000", "163142.812000", "163142.812000", "163142.812000", "163142.812000", "163142.812000", "163142.828000", "163142.828000", "163202.765000", "163202.765000", "163202.765000", "163202.765000", "163202.765000", "163202.765000", "163202.781000", "163202.781000", "163202.781000", "163202.781000", "163202.781000", "163202.796000", "163202.796000", "163202.796000", "163202.796000", "163202.796000", "163202.796000", "163202.796000", "163202.796000", "163202.812000", "163202.812000", "163202.812000", "163202.812000", "163202.828000", "163202.828000", "163222.765000", "163222.765000", "163222.765000", "163222.765000", "163222.765000", "163222.765000", "163222.781000", "163222.781000", "163222.781000", "163222.781000", "163222.781000", "163222.781000", "163222.781000", "163222.796000", "163222.796000", "163222.796000", "163222.796000", "163222.796000", "163222.796000", "163222.796000", "163222.812000", "163222.812000", "163222.812000", "163222.812000", "163222.812000", "163222.812000", "163242.765000", "163242.765000", "163242.765000", "163242.765000", "163242.765000", "163242.765000", "163242.781000", "163242.781000", "163242.781000", "163242.781000", "163242.781000", "163242.781000", "163242.781000", "163242.796000", "163242.796000", "163242.796000", "163242.796000", "163242.796000", "163242.796000", "163242.796000", "163242.812000", "163242.812000", "163242.812000", "163242.812000", "163242.812000", "163302.765000", "163302.765000", "163302.765000", "163302.765000", "163302.765000", "163302.765000", "163302.781000", "163302.781000", "163302.781000", "163302.781000", "163302.781000", "163302.781000", "163302.781000", "163302.796000", "163302.796000", "163302.796000", "163302.796000", "163302.796000", "163302.796000", "163302.796000", "163302.812000", "163302.812000", "163302.812000", "163302.812000", "163302.812000", "163302.812000", "163322.765000", "163322.765000", "163322.765000", "163322.765000", "163322.765000", "163322.765000", "163322.781000", "163322.781000", "163322.781000", "163322.781000", "163322.781000", "163322.796000", "163322.796000", "163322.796000", "163322.796000", "163322.796000", "163322.796000", "163322.796000", "163322.812000", "163322.812000", "163322.812000", "163322.812000", "163322.812000", "163322.812000", "163322.828000", "163342.765000", "163342.765000", "163342.765000", "163342.765000", "163342.765000", "163342.765000", "163342.781000", "163342.781000", "163342.781000", "163342.781000", "163342.781000", "163342.781000", "163342.781000", "163342.796000", "163342.796000", "163342.796000", "163342.796000", "163342.796000", "163342.796000", "163342.796000", "163342.812000", "163342.812000", "163342.812000", "163342.812000", "163342.812000", "163342.812000", "163402.765000", "163402.765000", "163402.765000", "163402.765000", "163402.765000", "163402.765000", "163402.781000", "163402.781000", "163402.781000", "163402.781000", "163402.781000", "163402.781000", "163402.796000", "163402.796000", "163402.796000", "163402.796000", "163402.796000", "163402.796000", "163402.796000", "163402.812000", "163402.812000", "163402.812000", "163402.812000", "163402.812000", "163402.812000", "163422.765000", "163422.765000", "163422.765000", "163422.765000", "163422.765000", "163422.765000", "163422.781000", "163422.781000", "163422.781000", "163422.781000", "163422.781000", "163422.781000", "163422.781000", "163422.796000", "163422.796000", "163422.796000", "163422.796000", "163422.796000", "163422.796000", "163422.796000", "163422.812000", "163422.812000", "163422.812000", "163422.812000", "163422.812000", "163422.812000", "163442.765000", "163442.765000", "163442.765000", "163442.765000", "163442.765000", "163442.765000", "163442.781000", "163442.781000", "163442.781000", "163442.781000", "163442.781000", "163442.781000", "163442.796000", "163442.796000", "163442.796000", "163442.796000", "163442.796000", "163442.796000", "163442.796000", "163442.812000", "163442.812000", "163442.812000", "163442.812000", "163442.812000", "163442.812000", "163502.765000", "163502.765000", "163502.765000", "163502.765000", "163502.765000", "163502.765000", "163502.781000", "163502.781000", "163502.781000", "163502.781000", "163502.781000", "163502.781000", "163502.781000", "163502.796000", "163502.796000", "163502.796000", "163502.796000", "163502.796000", "163502.796000", "163502.796000", "163502.812000", "163502.812000", "163502.812000", "163502.812000", "163502.812000", "163502.812000", "163522.765000", "163522.765000", "163522.765000", "163522.781000", "163522.781000", "163522.781000", "163522.781000", "163522.781000", "163522.781000", "163522.796000", "163522.796000", "163522.796000", "163522.796000", "163522.796000", "163522.796000", "163522.796000", "163522.812000", "163522.812000", "163522.812000", "163522.812000", "163522.812000", "163522.812000", "163522.812000", "163522.828000", "163522.828000", "163542.765000", "163542.765000", "163542.765000", "163542.765000", "163542.765000", "163542.781000", "163542.781000", "163542.781000", "163542.781000", "163542.781000", "163542.781000", "163542.781000", "163542.796000", "163542.796000", "163542.796000", "163542.796000", "163542.796000", "163542.796000", "163542.812000", "163542.812000", "163542.812000", "163542.812000", "163542.812000", "163542.812000", "163542.828000", "163542.828000", "163602.765000", "163602.765000", "163602.765000", "163602.765000", "163602.765000", "163602.765000", "163602.781000", "163602.781000", "163602.781000", "163602.781000", "163602.781000", "163602.781000", "163602.781000", "163602.796000", "163602.796000", "163602.796000", "163602.796000", "163602.796000", "163602.796000", "163602.796000", "163602.812000", "163602.812000", "163602.812000", "163602.812000", "163602.812000", "163622.765000", "163622.765000", "163622.765000", "163622.765000", "163622.765000", "163622.765000", "163622.781000", "163622.781000", "163622.781000", "163622.781000", "163622.781000", "163622.781000", "163622.796000", "163622.796000", "163622.796000", "163622.796000", "163622.796000", "163622.796000", "163622.796000", "163622.812000", "163622.812000", "163622.812000", "163622.812000", "163622.812000", "163622.828000", "163622.828000", "163642.765000", "163642.765000", "163642.765000", "163642.765000", "163642.765000", "163642.765000", "163642.781000", "163642.781000", "163642.781000", "163642.781000", "163642.781000", "163642.781000", "163642.781000", "163642.796000", "163642.796000", "163642.796000", "163642.796000", "163642.796000", "163642.796000", "163642.812000", "163642.812000", "163642.812000", "163642.812000", "163642.812000", "163642.812000", "163702.765000", "163702.765000", "163702.765000", "163702.765000", "163702.765000", "163702.765000", "163702.781000", "163702.781000", "163702.781000", "163702.781000", "163702.781000", "163702.781000", "163702.781000", "163702.796000", "163702.796000", "163702.796000", "163702.796000", "163702.796000", "163702.796000", "163702.796000", "163702.812000", "163702.812000", "163702.812000", "163702.812000", "163702.812000", "163702.812000", "163722.765000", "163722.765000", "163722.765000", "163722.765000", "163722.781000", "163722.781000", "163722.781000", "163722.781000", "163722.781000", "163722.781000", "163722.796000", "163722.796000", "163722.796000", "163722.796000", "163722.796000", "163722.796000", "163722.796000", "163722.812000", "163722.812000", "163722.812000", "163722.812000", "163722.812000", "163722.812000", "163722.812000", "163722.828000", "163742.765000", "163742.765000", "163742.765000", "163742.765000", "163742.765000", "163742.765000", "163742.781000", "163742.781000", "163742.781000", "163742.781000", "163742.781000", "163742.781000", "163742.781000", "163742.796000", "163742.796000", "163742.796000", "163742.796000", "163742.796000", "163742.796000", "163742.796000", "163742.812000", "163742.812000", "163742.812000", "163742.812000", "163742.812000", "163802.765000", "163802.765000", "163802.765000", "163802.765000", "163802.765000", "163802.765000", "163802.781000", "163802.781000", "163802.781000", "163802.781000", "163802.781000", "163802.781000", "163802.781000", "163802.796000", "163802.796000", "163802.796000", "163802.796000", "163802.796000", "163802.796000", "163802.812000", "163802.812000", "163802.812000", "163802.812000", "163802.812000", "163802.812000", "163802.828000", "163816.593000", "163816.593000", "163816.593000", "163816.593000", "163816.593000", "163816.593000", "163816.609000", "163816.609000", "163816.609000", "163816.609000", "163816.609000", "163816.609000", "163816.609000", "163816.625000", "163816.625000", "163816.625000", "163816.625000", "163816.625000"],
      "DataSetTrailingPadding": [
        "\u0000\u0000\u0000\u0000\u0000\u0000\u0000\u0000\u0000\u0000\u0000\u0000\u0000\u0000\u0000\u0000\u0000\u0000\u0000\u0000\u0000\u0000\u0000\u0000\u0000\u0000\u0000\u0000\u0000\u0000\u0000\u0000\u0000\u0000\u0000\u0000\u0000\u0000\u0000\u0000\u0000\u0000\u0000\u0000\u0000\u0000\u0000\u0000\u0000\u0000\u0000\u0000\u0000\u0000\u0000\u0000\u0000\u0000\u0000\u0000\u0000\u0000\u0000\u0000\u0000\u0000\u0000\u0000\u0000\u0000\u0000\u0000\u0000\u0000\u0000\u0000\u0000\u0000\u0000\u0000\u0000\u0000\u0000\u0000\u0000\u0000\u0000\u0000\u0000\u0000\u0000\u0000\u0000\u0000\u0000\u0000\u0000\u0000\u0000\u0000\u0000\u0000\u0000\u0000\u0000\u0000\u0000\u0000\u0000\u0000\u0000\u0000\u0000\u0000\u0000\u0000\u0000\u0000\u0000\u0000\u0000\u0000\u0000\u0000\u0000\u0000\u0000\u0000\u0000\u0000\u0000\u0000\u0000\u0000\u0000\u0000\u0000\u0000\u0000\u0000\u0000\u0000\u0000\u0000\u0000\u0000\u0000\u0000\u0000\u0000\u0000\u0000\u0000\u0000\u0000\u0000\u0000\u0000",
        "\u0000\u0000\u0000\u0000\u0000\u0000\u0000\u0000\u0000\u0000\u0000\u0000\u0000\u0000\u0000\u0000\u0000\u0000\u0000\u0000\u0000\u0000\u0000\u0000\u0000\u0000\u0000\u0000\u0000\u0000\u0000\u0000\u0000\u0000\u0000\u0000\u0000\u0000\u0000\u0000\u0000\u0000\u0000\u0000\u0000\u0000\u0000\u0000\u0000\u0000\u0000\u0000\u0000\u0000\u0000\u0000\u0000\u0000\u0000\u0000\u0000\u0000\u0000\u0000\u0000\u0000\u0000\u0000\u0000\u0000\u0000\u0000\u0000\u0000\u0000\u0000\u0000\u0000\u0000\u0000\u0000\u0000\u0000\u0000\u0000\u0000\u0000\u0000\u0000\u0000\u0000\u0000\u0000\u0000\u0000\u0000\u0000\u0000\u0000\u0000\u0000\u0000\u0000\u0000\u0000\u0000\u0000\u0000\u0000\u0000\u0000\u0000\u0000\u0000\u0000\u0000\u0000\u0000\u0000\u0000\u0000\u0000\u0000\u0000\u0000\u0000\u0000\u0000\u0000\u0000\u0000\u0000\u0000\u0000\u0000\u0000\u0000\u0000\u0000\u0000\u0000\u0000\u0000\u0000\u0000\u0000\u0000\u0000\u0000\u0000\u0000\u0000\u0000\u0000",
