{
  "AcquisitionMatrixPE": 104,
  "AcquisitionNumber": 1,
  "AcquisitionTime": "16:14:40.757500",
  "BandwidthPerPixelPhaseEncode": 13.935,
  "BaseResolution": 104,
  "CoilString": "C:HEA;HEP",
  "ConversionSoftware": "dcm2niix",
  "ConversionSoftwareVersion": "v1.0.20210317",
  "DerivedVendorReportedEchoSpacing": 0.000690017,
  "DeviceSerialNumber": "35450",
  "DwellTime": 2.5e-06,
  "EchoTime": 0.0348,
  "EffectiveEchoSpacing": 0.000690017,
  "FlipAngle": 55,
  "ImageComments": "Unaliased MB8/PE3 (remote)",
  "ImageOrientationPatientDICOM": [0.999658, 0.000912558, 0.0261313, 4.30659e-08, 0.999391, -0.0349024],
  "ImageType": [
    "ORIGINAL",
    "PRIMARY",
    "M",
    "MB",
    "ND",
    "MOSAIC"
],
  "ImagingFrequency": 123.234,
  "InPlanePhaseEncodingDirectionDICOM": "COL",
  "InstitutionAddress": "Univeristy Ave. 197,Newark,North East,US,07102-1814",
  "InstitutionName": "RUBIC",
  "InstitutionalDepartmentName": "Department",
  "MRAcquisitionType": "2D",
  "MagneticFieldStrength": 3,
  "Manufacturer": "Siemens",
  "ManufacturersModelName": "TrioTim",
  "Modality": "MR",
  "MultibandAccelerationFactor": 8,
  "PartialFourier": 0.875,
  "PatientPosition": "HFS",
  "PercentPhaseFOV": 100,
  "PercentSampling": 100,
  "PhaseEncodingDirection": "j-",
  "PhaseEncodingSteps": 91,
  "PhaseResolution": 1,
  "PixelBandwidth": 1923,
  "ProcedureStepDescription": "Cole^Michael",
  "ProtocolName": "cmrr_mbep2d_bold_2mm_MB8_Task_8x",
  "PulseSequenceDetails": "%CustomerSeq%\\cmrr_mbep2d_bold",
  "ReceiveCoilName": "32Ch_Head",
  "ReconMatrixPE": 104,
  "RepetitionTime": 0.785,
  "SAR": 0.128718,
  "ScanOptions": "PFP\\FS",
  "ScanningSequence": "EP",
  "SequenceName": "epfid2d1_104",
  "SequenceVariant": "SK\\SS",
  "SeriesDescription": "cmrr_mbep2d_bold_2mm_MB8_Task_8x",
  "SeriesNumber": 21,
  "ShimSetting": [2150, -340, -7322, 618, -60, -372, 126, 24],
  "SliceThickness": 2,
  "SliceTiming": [0, 0.4375, 0.0875, 0.525, 0.175, 0.6125, 0.2625, 0.7, 0.35, 0, 0.4375, 0.0875, 0.525, 0.175, 0.6125, 0.2625, 0.7, 0.35, 0, 0.4375, 0.0875, 0.525, 0.175, 0.6125, 0.2625, 0.7, 0.35, 0, 0.4375, 0.0875, 0.525, 0.175, 0.6125, 0.2625, 0.7, 0.35, 0, 0.4375, 0.0875, 0.525, 0.175, 0.6125, 0.2625, 0.7, 0.35, 0, 0.4375, 0.0875, 0.525, 0.175, 0.6125, 0.2625, 0.7, 0.35, 0, 0.4375, 0.0875, 0.525, 0.175, 0.6125, 0.2625, 0.7, 0.35, 0, 0.4375, 0.0875, 0.525, 0.175, 0.6125, 0.2625, 0.7, 0.35],
  "SoftwareVersions": "syngo MR B19",
  "SpacingBetweenSlices": 2,
  "StationName": "MRC35450",
  "TaskName": "cpro",
  "TotalReadoutTime": 0.0710717,
  "TxRefAmp": 322.77,
  "dcmmeta_affine": [
    [-1.9993162155151367, 8.613184121486483e-08, 0.052294399589300156, 105.27387237548828],
    [-0.001825116341933608, 1.998781442642212, -0.06978103518486023, -87.05563354492188],
    [0.05226253718137741, 0.06980489194393158, 1.9980981349945068, -96.70436096191406],
    [0.0, 0.0, 0.0, 1.0]
],
  "dcmmeta_reorient_transform": [
    [0.0, -1.0, 0.0, 103.0],
    [1.0, 0.0, 0.0, 0.0],
    [0.0, 0.0, 1.0, 0.0],
    [0.0, 0.0, 0.0, 1.0]
],
  "dcmmeta_shape": [104, 104, 72, 581],
  "dcmmeta_slice_dim": 2,
  "dcmmeta_version": 0.6,
  "global": {
    "const": {
      "AcquisitionMatrix": [104, 0, 0, 104],
      "AngioFlag": "N",
      "BitsAllocated": 16,
      "BitsStored": 12,
      "Columns": 936,
      "EchoNumbers": 1,
      "EchoTime": 34.8,
      "EchoTrainLength": 1,
      "FlipAngle": 55.0,
      "HighBit": 11,
      "ImageOrientationPatient": [0.99965810356638, 0.00091255818684, 0.02613126884819, 4.306592e-08, 0.99939072397178, -0.0349024474665],
      "ImagePositionPatient": [-936.98945823123, -951.07118842279, -82.21683544361],
      "ImageType": [
        "ORIGINAL",
        "PRIMARY",
        "M",
        "MB",
        "ND",
        "MOSAIC"
],
      "ImagedNucleus": "1H",
      "ImagingFrequency": 123.234403,
      "InPlanePhaseEncodingDirection": "COL",
      "MRAcquisitionType": "2D",
      "MagneticFieldStrength": 3.0,
      "Manufacturer": "SIEMENS",
      "ManufacturerModelName": "TrioTim",
      "Modality": "MR",
      "NumberOfAverages": 1.0,
      "NumberOfPhaseEncodingSteps": 91,
      "PercentPhaseFieldOfView": 100.0,
      "PercentSampling": 100.0,
      "PerformedProcedureStepStartTime": "144239.500000",
      "PhotometricInterpretation": "MONOCHROME2",
      "PixelBandwidth": 1923.0,
      "PixelRepresentation": 0,
      "PixelSpacing": [2.0, 2.0],
      "ProtocolName": "cmrr_mbep2d_bold_2mm_MB8_Task_8x",
      "RepetitionTime": 785.0,
      "Rows": 936,
      "SAR": 0.12871793755899,
      "SamplesPerPixel": 1,
      "ScanOptions": [
        "PFP",
        "FS"
],
      "ScanningSequence": "EP",
      "SequenceName": "epfid2d1_104",
      "SequenceVariant": [
        "SK",
        "SS"
],
      "SeriesDescription": "cmrr_mbep2d_bold_2mm_MB8_Task_8x",
      "SeriesNumber": 21,
      "SeriesTime": "161509.375000",
      "SliceLocation": -90.822365202648,
      "SliceThickness": 2.0,
      "SmallestImagePixelValue": 0,
      "SoftwareVersions": "syngo MR B19",
      "SpacingBetweenSlices": 2.0000000600615,
      "SpecificCharacterSet": "ISO_IR 100",
      "StudyID": "1",
      "StudyTime": "144239.468000",
      "TransmitCoilName": "Body",
      "VariableFlipAngleFlag": "N",
      "WindowCenterWidthExplanation": "Algo1",
      "dBdt": 0.0},
    "slices": {}
  },
  "time": {
    "samples": {
      "AcquisitionNumber": [1, 2, 3, 4, 5, 6, 7, 8, 9, 10, 11, 12, 13, 14, 15, 16, 17, 18, 19, 20, 21, 22, 23, 24, 25, 26, 27, 28, 29, 30, 31, 32, 33, 34, 35, 36, 37, 38, 39, 40, 41, 42, 43, 44, 45, 46, 47, 48, 49, 50, 51, 52, 53, 54, 55, 56, 57, 58, 59, 60, 61, 62, 63, 64, 65, 66, 67, 68, 69, 70, 71, 72, 73, 74, 75, 76, 77, 78, 79, 80, 81, 82, 83, 84, 85, 86, 87, 88, 89, 90, 91, 92, 93, 94, 95, 96, 97, 98, 99, 100, 101, 102, 103, 104, 105, 106, 107, 108, 109, 110, 111, 112, 113, 114, 115, 116, 117, 118, 119, 120, 121, 122, 123, 124, 125, 126, 127, 128, 129, 130, 131, 132, 133, 134, 135, 136, 137, 138, 139, 140, 141, 142, 143, 144, 145, 146, 147, 148, 149, 150, 151, 152, 153, 154, 155, 156, 157, 158, 159, 160, 161, 162, 163, 164, 165, 166, 167, 168, 169, 170, 171, 172, 173, 174, 175, 176, 177, 178, 179, 180, 181, 182, 183, 184, 185, 186, 187, 188, 189, 190, 191, 192, 193, 194, 195, 196, 197, 198, 199, 200, 201, 202, 203, 204, 205, 206, 207, 208, 209, 210, 211, 212, 213, 214, 215, 216, 217, 218, 219, 220, 221, 222, 223, 224, 225, 226, 227, 228, 229, 230, 231, 232, 233, 234, 235, 236, 237, 238, 239, 240, 241, 242, 243, 244, 245, 246, 247, 248, 249, 250, 251, 252, 253, 254, 255, 256, 257, 258, 259, 260, 261, 262, 263, 264, 265, 266, 267, 268, 269, 270, 271, 272, 273, 274, 275, 276, 277, 278, 279, 280, 281, 282, 283, 284, 285, 286, 287, 288, 289, 290, 291, 292, 293, 294, 295, 296, 297, 298, 299, 300, 301, 302, 303, 304, 305, 306, 307, 308, 309, 310, 311, 312, 313, 314, 315, 316, 317, 318, 319, 320, 321, 322, 323, 324, 325, 326, 327, 328, 329, 330, 331, 332, 333, 334, 335, 336, 337, 338, 339, 340, 341, 342, 343, 344, 345, 346, 347, 348, 349, 350, 351, 352, 353, 354, 355, 356, 357, 358, 359, 360, 361, 362, 363, 364, 365, 366, 367, 368, 369, 370, 371, 372, 373, 374, 375, 376, 377, 378, 379, 380, 381, 382, 383, 384, 385, 386, 387, 388, 389, 390, 391, 392, 393, 394, 395, 396, 397, 398, 399, 400, 401, 402, 403, 404, 405, 406, 407, 408, 409, 410, 411, 412, 413, 414, 415, 416, 417, 418, 419, 420, 421, 422, 423, 424, 425, 426, 427, 428, 429, 430, 431, 432, 433, 434, 435, 436, 437, 438, 439, 440, 441, 442, 443, 444, 445, 446, 447, 448, 449, 450, 451, 452, 453, 454, 455, 456, 457, 458, 459, 460, 461, 462, 463, 464, 465, 466, 467, 468, 469, 470, 471, 472, 473, 474, 475, 476, 477, 478, 479, 480, 481, 482, 483, 484, 485, 486, 487, 488, 489, 490, 491, 492, 493, 494, 495, 496, 497, 498, 499, 500, 501, 502, 503, 504, 505, 506, 507, 508, 509, 510, 511, 512, 513, 514, 515, 516, 517, 518, 519, 520, 521, 522, 523, 524, 525, 526, 527, 528, 529, 530, 531, 532, 533, 534, 535, 536, 537, 538, 539, 540, 541, 542, 543, 544, 545, 546, 547, 548, 549, 550, 551, 552, 553, 554, 555, 556, 557, 558, 559, 560, 561, 562, 563, 564, 565, 566, 567, 568, 569, 570, 571, 572, 573, 574, 575, 576, 577, 578, 579, 580, 581],
      "AcquisitionTime": ["161440.757500", "161441.545000", "161442.335000", "161443.122500", "161443.910000", "161444.697500", "161445.487500", "161446.275000", "161447.062500", "161447.850000", "161448.640000", "161449.427500", "161450.215000", "161451.002500", "161451.792500", "161452.580000", "161453.367500", "161454.155000", "161454.945000", "161455.732500", "161456.520000", "161457.310000", "161458.097500", "161458.885000", "161459.672500", "161500.462500", "161501.250000", "161502.037500", "161502.825000", "161503.615000", "161504.402500", "161505.190000", "161505.977500", "161506.767500", "161507.555000", "161508.342500", "161509.130000", "161509.920000", "161510.707500", "161511.495000", "161512.282500", "161513.072500", "161513.860000", "161514.647500", "161515.437500", "161516.225000", "161517.012500", "161517.800000", "161518.590000", "161519.377500", "161520.165000", "161520.952500", "161521.742500", "161522.530000", "161523.317500", "161524.105000", "161524.895000", "161525.682500", "161526.470000", "161527.257500", "161528.047500", "161528.835000", "161529.622500", "161530.410000", "161531.200000", "161531.987500", "161532.775000", "161533.565000", "161534.352500", "161535.140000", "161535.927500", "161536.717500", "161537.505000", "161538.292500", "161539.080000", "161539.870000", "161540.657500", "161541.445000", "161542.232500", "161543.022500", "161543.810000", "161544.597500", "161545.385000", "161546.175000", "161546.962500", "161547.750000", "161548.537500", "161549.327500", "161550.115000", "161550.902500", "161551.692500", "161552.480000", "161553.267500", "161554.055000", "161554.845000", "161555.632500", "161556.420000", "161557.207500", "161557.997500", "161558.785000", "161559.572500", "161600.360000", "161601.150000", "161601.937500", "161602.725000", "161603.512500", "161604.302500", "161605.090000", "161605.877500", "161606.665000", "161607.455000", "161608.242500", "161609.030000", "161609.820000", "161610.607500", "161611.395000", "161612.182500", "161612.972500", "161613.760000", "161614.547500", "161615.335000", "161616.125000", "161616.912500", "161617.700000", "161618.487500", "161619.277500", "161620.065000", "161620.852500", "161621.640000", "161622.430000", "161623.217500", "161624.005000", "161624.792500", "161625.582500", "161626.370000", "161627.157500", "161627.947500", "161628.735000", "161629.522500", "161630.310000", "161631.100000", "161631.887500", "161632.675000", "161633.462500", "161634.252500", "161635.040000", "161635.827500", "161636.615000", "161637.405000", "161638.192500", "161638.980000", "161639.767500", "161640.557500", "161641.345000", "161642.132500", "161642.922500", "161643.710000", "161644.497500", "161645.285000", "161646.075000", "161646.862500", "161647.650000", "161648.437500", "161649.227500", "161650.015000", "161650.802500", "161651.590000", "161652.380000", "161653.167500", "161653.955000", "161654.742500", "161655.532500", "161656.320000", "161657.107500", "161657.895000", "161658.685000", "161659.472500", "161700.260000", "161701.050000", "161701.837500", "161702.625000", "161703.412500", "161704.202500", "161704.990000", "161705.777500", "161706.565000", "161707.355000", "161708.142500", "161708.930000", "161709.717500", "161710.507500", "161711.295000", "161712.082500", "161712.870000", "161713.660000", "161714.447500", "161715.235000", "161716.022500", "161716.812500", "161717.600000", "161718.387500", "161719.177500", "161719.965000", "161720.752500", "161721.540000", "161722.330000", "161723.117500", "161723.905000", "161724.692500", "161725.482500", "161726.270000", "161727.057500", "161727.845000", "161728.635000", "161729.422500", "161730.210000", "161730.997500", "161731.787500", "161732.575000", "161733.362500", "161734.150000", "161734.940000", "161735.727500", "161736.515000", "161737.305000", "161738.092500", "161738.880000", "161739.667500", "161740.457500", "161741.245000", "161742.032500", "161742.820000", "161743.610000", "161744.397500", "161745.185000", "161745.972500", "161746.762500", "161747.550000", "161748.337500", "161749.125000", "161749.915000", "161750.702500", "161751.490000", "161752.277500", "161753.067500", "161753.855000", "161754.642500", "161755.432500", "161756.220000", "161757.007500", "161757.795000", "161758.585000", "161759.372500", "161800.160000", "161800.947500", "161801.737500", "161802.525000", "161803.312500", "161804.100000", "161804.890000", "161805.677500", "161806.465000", "161807.252500", "161808.042500", "161808.830000", "161809.617500", "161810.405000", "161811.195000", "161811.982500", "161812.770000", "161813.560000", "161814.347500", "161815.135000", "161815.922500", "161816.712500", "161817.500000", "161818.287500", "161819.075000", "161819.865000", "161820.652500", "161821.440000", "161822.227500", "161823.017500", "161823.805000", "161824.592500", "161825.380000", "161826.170000", "161826.957500", "161827.745000", "161828.532500", "161829.322500", "161830.110000", "161830.897500", "161831.687500", "161832.475000", "161833.262500", "161834.050000", "161834.840000", "161835.627500", "161836.415000", "161837.202500", "161837.992500", "161838.780000", "161839.567500", "161840.355000", "161841.145000", "161841.932500", "161842.720000", "161843.507500", "161844.297500", "161845.085000", "161845.872500", "161846.660000", "161847.450000", "161848.237500", "161849.025000", "161849.815000", "161850.602500", "161851.390000", "161852.177500", "161852.967500", "161853.755000", "161854.542500", "161855.330000", "161856.120000", "161856.907500", "161857.695000", "161858.482500", "161859.272500", "161900.060000", "161900.847500", "161901.635000", "161902.425000", "161903.212500", "161904.000000", "161904.787500", "161905.577500", "161906.365000", "161907.152500", "161907.942500", "161908.730000", "161909.517500", "161910.305000", "161911.095000", "161911.882500", "161912.670000", "161913.457500", "161914.247500", "161915.035000", "161915.822500", "161916.610000", "161917.400000", "161918.187500", "161918.975000", "161919.762500", "161920.552500", "161921.340000", "161922.127500", "161922.915000", "161923.705000", "161924.492500", "161925.280000", "161926.070000", "161926.857500", "161927.645000", "161928.432500", "161929.222500", "161930.010000", "161930.797500", "161931.585000", "161932.375000", "161933.162500", "161933.950000", "161934.737500", "161935.527500", "161936.315000", "161937.102500", "161937.890000", "161938.680000", "161939.467500", "161940.255000", "161941.042500", "161941.832500", "161942.620000", "161943.407500", "161944.197500", "161944.985000", "161945.772500", "161946.560000", "161947.350000", "161948.137500", "161948.925000", "161949.712500", "161950.502500", "161951.290000", "161952.077500", "161952.865000", "161953.655000", "161954.442500", "161955.230000", "161956.017500", "161956.807500", "161957.595000", "161958.382500", "161959.172500", "161959.960000", "162000.747500", "162001.535000", "162002.325000", "162003.112500", "162003.900000", "162004.687500", "162005.477500", "162006.265000", "162007.052500", "162007.840000", "162008.630000", "162009.417500", "162010.205000", "162010.992500", "162011.782500", "162012.570000", "162013.357500", "162014.145000", "162014.935000", "162015.722500", "162016.510000", "162017.300000", "162018.087500", "162018.875000", "162019.662500", "162020.452500", "162021.240000", "162022.027500", "162022.815000", "162023.605000", "162024.392500", "162025.180000", "162025.967500", "162026.757500", "162027.545000", "162028.332500", "162029.120000", "162029.910000", "162030.697500", "162031.485000", "162032.272500", "162033.062500", "162033.850000", "162034.637500", "162035.427500", "162036.215000", "162037.002500", "162037.790000", "162038.580000", "162039.367500", "162040.155000", "162040.942500", "162041.732500", "162042.520000", "162043.307500", "162044.095000", "162044.885000", "162045.672500", "162046.460000", "162047.247500", "162048.037500", "162048.825000", "162049.612500", "162050.400000", "162051.190000", "162051.977500", "162052.765000", "162053.555000", "162054.342500", "162055.130000", "162055.917500", "162056.707500", "162057.495000", "162058.282500", "162059.070000", "162059.860000", "162100.647500", "162101.435000", "162102.222500", "162103.012500", "162103.800000", "162104.587500", "162105.375000", "162106.165000", "162106.952500", "162107.740000", "162108.527500", "162109.317500", "162110.105000", "162110.892500", "162111.682500", "162112.470000", "162113.257500", "162114.045000", "162114.835000", "162115.622500", "162116.410000", "162117.197500", "162117.987500", "162118.775000", "162119.562500", "162120.350000", "162121.140000", "162121.927500", "162122.715000", "162123.502500", "162124.292500", "162125.080000", "162125.867500", "162126.655000", "162127.445000", "162128.232500", "162129.020000", "162129.810000", "162130.597500", "162131.385000", "162132.172500", "162132.962500", "162133.750000", "162134.537500", "162135.325000", "162136.115000", "162136.902500", "162137.690000", "162138.477500", "162139.267500", "162140.055000", "162140.842500", "162141.630000", "162142.420000", "162143.207500", "162143.995000", "162144.782500", "162145.572500", "162146.360000", "162147.147500", "162147.937500", "162148.725000", "162149.512500", "162150.300000", "162151.090000", "162151.877500", "162152.665000", "162153.452500", "162154.242500", "162155.030000", "162155.817500", "162156.605000", "162157.395000", "162158.182500", "162158.970000", "162159.757500", "162200.547500", "162201.335000", "162202.122500", "162202.910000", "162203.700000", "162204.487500", "162205.275000", "162206.065000", "162206.852500", "162207.640000", "162208.427500", "162209.217500", "162210.005000", "162210.792500", "162211.580000", "162212.370000", "162213.157500", "162213.945000", "162214.732500", "162215.522500", "162216.310000", "162217.097500", "162217.885000"],
      "ContentTime": ["161509.375000", "161509.375000", "161509.375000", "161509.390000", "161509.390000", "161509.390000", "161509.390000", "161509.390000", "161509.390000", "161509.390000", "161509.406000", "161509.406000", "161509.406000", "161509.406000", "161509.421000", "161509.421000", "161509.421000", "161509.421000", "161509.421000", "161509.421000", "161509.437000", "161509.437000", "161509.437000", "161509.437000", "161509.437000", "161509.437000", "161509.437000", "161509.453000", "161509.453000", "161509.453000", "161509.453000", "161509.453000", "161509.453000", "161509.453000", "161529.359000", "161529.359000", "161529.359000", "161529.359000", "161529.359000", "161529.359000", "161529.375000", "161529.375000", "161529.375000", "161529.375000", "161529.375000", "161529.375000", "161529.375000", "161529.390000", "161529.390000", "161529.390000", "161529.390000", "161529.390000", "161529.390000", "161529.390000", "161529.406000", "161529.406000", "161529.406000", "161529.406000", "161529.406000", "161549.359000", "161549.359000", "161549.359000", "161549.359000", "161549.359000", "161549.359000", "161549.375000", "161549.375000", "161549.375000", "161549.375000", "161549.375000", "161549.375000", "161549.390000", "161549.390000", "161549.390000", "161549.390000", "161549.390000", "161549.390000", "161549.406000", "161549.406000", "161549.406000", "161549.406000", "161549.406000", "161549.406000", "161549.421000", "161549.421000", "161609.359000", "161609.359000", "161609.359000", "161609.359000", "161609.359000", "161609.375000", "161609.375000", "161609.375000", "161609.375000", "161609.375000", "161609.375000", "161609.375000", "161609.390000", "161609.390000", "161609.390000", "161609.390000", "161609.390000", "161609.390000", "161609.390000", "161609.406000", "161609.406000", "161609.406000", "161609.406000", "161609.406000", "161609.406000", "161629.359000", "161629.359000", "161629.359000", "161629.359000", "161629.359000", "161629.359000", "161629.375000", "161629.375000", "161629.375000", "161629.375000", "161629.375000", "161629.375000", "161629.375000", "161629.390000", "161629.390000", "161629.390000", "161629.390000", "161629.390000", "161629.390000", "161629.390000", "161629.406000", "161629.406000", "161629.406000", "161629.406000", "161629.406000", "161629.421000", "161649.359000", "161649.359000", "161649.359000", "161649.359000", "161649.359000", "161649.359000", "161649.375000", "161649.375000", "161649.375000", "161649.375000", "161649.375000", "161649.375000", "161649.375000", "161649.390000", "161649.390000", "161649.390000", "161649.390000", "161649.390000", "161649.390000", "161649.406000", "161649.406000", "161649.406000", "161649.406000", "161649.406000", "161649.406000", "161709.359000", "161709.359000", "161709.359000", "161709.359000", "161709.359000", "161709.359000", "161709.375000", "161709.375000", "161709.375000", "161709.375000", "161709.375000", "161709.375000", "161709.390000", "161709.390000", "161709.390000", "161709.390000", "161709.390000", "161709.390000", "161709.406000", "161709.406000", "161709.406000", "161709.406000", "161709.406000", "161709.406000", "161709.421000", "161709.421000", "161729.359000", "161729.359000", "161729.359000", "161729.359000", "161729.359000", "161729.359000", "161729.375000", "161729.375000", "161729.375000", "161729.375000", "161729.375000", "161729.375000", "161729.375000", "161729.390000", "161729.390000", "161729.390000", "161729.390000", "161729.390000", "161729.390000", "161729.390000", "161729.406000", "161729.406000", "161729.406000", "161729.406000", "161729.406000", "161749.359000", "161749.359000", "161749.359000", "161749.359000", "161749.359000", "161749.359000", "161749.375000", "161749.375000", "161749.375000", "161749.375000", "161749.375000", "161749.375000", "161749.375000", "161749.390000", "161749.390000", "161749.390000", "161749.390000", "161749.390000", "161749.406000", "161749.406000", "161749.406000", "161749.406000", "161749.406000", "161749.406000", "161749.406000", "161809.359000", "161809.359000", "161809.359000", "161809.359000", "161809.359000", "161809.375000", "161809.375000", "161809.375000", "161809.375000", "161809.375000", "161809.375000", "161809.390000", "161809.390000", "161809.390000", "161809.390000", "161809.390000", "161809.406000", "161809.406000", "161809.406000", "161809.406000", "161809.406000", "161809.406000", "161809.406000", "161809.421000", "161809.421000", "161809.421000", "161829.359000", "161829.359000", "161829.359000", "161829.359000", "161829.359000", "161829.375000", "161829.375000", "161829.375000", "161829.375000", "161829.375000", "161829.390000", "161829.390000", "161829.390000", "161829.390000", "161829.390000", "161829.390000", "161829.406000", "161829.406000", "161829.406000", "161829.406000", "161829.406000", "161829.406000", "161829.406000", "161829.421000", "161829.421000", "161849.359000", "161849.359000", "161849.359000", "161849.359000", "161849.359000", "161849.359000", "161849.375000", "161849.375000", "161849.375000", "161849.375000", "161849.375000", "161849.375000", "161849.390000", "161849.390000", "161849.390000", "161849.390000", "161849.390000", "161849.390000", "161849.390000", "161849.406000", "161849.406000", "161849.406000", "161849.406000", "161849.406000", "161849.406000", "161849.406000", "161909.359000", "161909.359000", "161909.359000", "161909.359000", "161909.375000", "161909.375000", "161909.375000", "161909.375000", "161909.375000", "161909.375000", "161909.390000", "161909.390000", "161909.390000", "161909.390000", "161909.390000", "161909.390000", "161909.406000", "161909.406000", "161909.406000", "161909.406000", "161909.406000", "161909.406000", "161909.421000", "161909.421000", "161909.421000", "161929.359000", "161929.359000", "161929.359000", "161929.359000", "161929.359000", "161929.375000", "161929.375000", "161929.375000", "161929.375000", "161929.375000", "161929.375000", "161929.375000", "161929.390000", "161929.390000", "161929.390000", "161929.390000", "161929.390000", "161929.390000", "161929.406000", "161929.406000", "161929.406000", "161929.406000", "161929.406000", "161929.406000", "161929.406000", "161929.421000", "161949.359000", "161949.359000", "161949.359000", "161949.359000", "161949.359000", "161949.375000", "161949.375000", "161949.375000", "161949.375000", "161949.375000", "161949.375000", "161949.375000", "161949.390000", "161949.390000", "161949.390000", "161949.390000", "161949.390000", "161949.406000", "161949.406000", "161949.406000", "161949.406000", "161949.406000", "161949.406000", "161949.421000", "161949.421000", "162009.359000", "162009.359000", "162009.359000", "162009.359000", "162009.359000", "162009.375000", "162009.375000", "162009.375000", "162009.375000", "162009.375000", "162009.375000", "162009.375000", "162009.390000", "162009.390000", "162009.390000", "162009.390000", "162009.390000", "162009.390000", "162009.390000", "162009.406000", "162009.406000", "162009.406000", "162009.406000", "162009.406000", "162009.406000", "162009.421000", "162029.359000", "162029.359000", "162029.359000", "162029.359000", "162029.359000", "162029.359000", "162029.375000", "162029.375000", "162029.375000", "162029.375000", "162029.375000", "162029.375000", "162029.390000", "162029.390000", "162029.390000", "162029.390000", "162029.390000", "162029.390000", "162029.406000", "162029.406000", "162029.406000", "162029.406000", "162029.406000", "162029.406000", "162029.406000", "162049.359000", "162049.359000", "162049.359000", "162049.359000", "162049.359000", "162049.359000", "162049.375000", "162049.375000", "162049.375000", "162049.375000", "162049.375000", "162049.375000", "162049.390000", "162049.390000", "162049.390000", "162049.390000", "162049.406000", "162049.406000", "162049.406000", "162049.406000", "162049.406000", "162049.421000", "162049.421000", "162049.421000", "162049.421000", "162049.421000", "162109.359000", "162109.359000", "162109.359000", "162109.359000", "162109.359000", "162109.359000", "162109.375000", "162109.375000", "162109.375000", "162109.375000", "162109.375000", "162109.375000", "162109.390000", "162109.390000", "162109.390000", "162109.390000", "162109.390000", "162109.406000", "162109.406000", "162109.406000", "162109.406000", "162109.406000", "162109.406000", "162109.406000", "162109.421000", "162129.359000", "162129.359000", "162129.359000", "162129.359000", "162129.359000", "162129.359000", "162129.375000", "162129.375000", "162129.375000", "162129.375000", "162129.375000", "162129.375000", "162129.390000", "162129.390000", "162129.390000", "162129.390000", "162129.390000", "162129.390000", "162129.390000", "162129.406000", "162129.406000", "162129.406000", "162129.406000", "162129.406000", "162129.406000", "162129.406000", "162149.359000", "162149.359000", "162149.359000", "162149.359000", "162149.359000", "162149.359000", "162149.375000", "162149.375000", "162149.375000", "162149.375000", "162149.375000", "162149.375000", "162149.390000", "162149.390000", "162149.390000", "162149.390000", "162149.390000", "162149.390000", "162149.390000", "162149.406000", "162149.406000", "162149.406000", "162149.406000", "162149.406000", "162149.406000", "162209.359000", "162209.359000", "162209.359000", "162209.359000", "162209.359000", "162209.375000", "162209.375000", "162209.375000", "162209.375000", "162209.375000", "162209.375000", "162209.375000", "162209.390000", "162209.390000", "162209.390000", "162209.390000", "162209.390000", "162209.390000", "162209.390000", "162209.406000", "162209.406000", "162209.406000", "162209.406000", "162209.406000", "162209.406000", "162209.406000", "162218.687000", "162218.687000", "162218.687000", "162218.687000", "162218.687000", "162218.687000", "162218.703000", "162218.703000", "162218.703000", "162218.703000", "162218.703000", "162218.703000"],
      "DataSetTrailingPadding": [
        "\u0000\u0000\u0000\u0000\u0000\u0000\u0000\u0000\u0000\u0000\u0000\u0000\u0000\u0000\u0000\u0000\u0000\u0000\u0000\u0000\u0000\u0000\u0000\u0000\u0000\u0000\u0000\u0000\u0000\u0000\u0000\u0000\u0000\u0000\u0000\u0000\u0000\u0000\u0000\u0000\u0000\u0000\u0000\u0000\u0000\u0000\u0000\u0000\u0000\u0000\u0000\u0000\u0000\u0000\u0000\u0000\u0000\u0000\u0000\u0000\u0000\u0000\u0000\u0000\u0000\u0000\u0000\u0000\u0000\u0000\u0000\u0000\u0000\u0000\u0000\u0000\u0000\u0000\u0000\u0000\u0000\u0000\u0000\u0000\u0000\u0000\u0000\u0000\u0000\u0000\u0000\u0000\u0000\u0000\u0000\u0000\u0000\u0000\u0000\u0000\u0000\u0000\u0000\u0000\u0000\u0000\u0000\u0000\u0000\u0000\u0000\u0000\u0000\u0000\u0000\u0000\u0000\u0000\u0000\u0000\u0000\u0000\u0000\u0000\u0000\u0000\u0000\u0000\u0000\u0000\u0000\u0000\u0000\u0000\u0000\u0000\u0000\u0000\u0000\u0000\u0000\u0000\u0000\u0000\u0000\u0000\u0000\u0000\u0000\u0000\u0000\u0000\u0000\u0000\u0000\u0000",
        "\u0000\u0000\u0000\u0000\u0000\u0000\u0000\u0000\u0000\u0000\u0000\u0000\u0000\u0000\u0000\u0000\u0000\u0000\u0000\u0000\u0000\u0000\u0000\u0000\u0000\u0000\u0000\u0000\u0000\u0000\u0000\u0000\u0000\u0000\u0000\u0000\u0000\u0000\u0000\u0000\u0000\u0000\u0000\u0000\u0000\u0000\u0000\u0000\u0000\u0000\u0000\u0000\u0000\u0000\u0000\u0000\u0000\u0000\u0000\u0000\u0000\u0000\u0000\u0000\u0000\u0000\u0000\u0000\u0000\u0000\u0000\u0000\u0000\u0000\u0000\u0000\u0000\u0000\u0000\u0000\u0000\u0000\u0000\u0000\u0000\u0000\u0000\u0000\u0000\u0000\u0000\u0000\u0000\u0000\u0000\u0000\u0000\u0000\u0000\u0000\u0000\u0000\u0000\u0000\u0000\u0000\u0000\u0000\u0000\u0000\u0000\u0000\u0000\u0000\u0000\u0000\u0000\u0000\u0000\u0000\u0000\u0000\u0000\u0000\u0000\u0000\u0000\u0000\u0000\u0000\u0000\u0000\u0000\u0000\u0000\u0000\u0000\u0000\u0000\u0000\u0000\u0000\u0000\u0000\u0000\u0000\u0000\u0000\u0000\u0000\u0000\u0000\u0000\u0000\u0000\u0000",
