{
  "AcquisitionMatrixPE": 104,
  "AcquisitionNumber": 1,
  "AcquisitionTime": "16:22:37.745000",
  "BandwidthPerPixelPhaseEncode": 13.935,
  "BaseResolution": 104,
  "CoilString": "C:HEA;HEP",
  "ConversionSoftware": "dcm2niix",
  "ConversionSoftwareVersion": "v1.0.20210317",
  "DerivedVendorReportedEchoSpacing": 0.000690017,
  "DeviceSerialNumber": "35450",
  "DwellTime": 2.5e-06,
  "EchoTime": 0.0348,
  "EffectiveEchoSpacing": 0.000690017,
  "FlipAngle": 55,
  "ImageComments": "Unaliased MB8/PE3 (remote)",
  "ImageOrientationPatientDICOM": [0.999658, 0.000912558, 0.0261313, 4.30659e-08, 0.999391, -0.0349024],
  "ImageType": [
    "ORIGINAL",
    "PRIMARY",
    "M",
    "MB",
    "ND",
    "MOSAIC"
],
  "ImagingFrequency": 123.234,
  "InPlanePhaseEncodingDirectionDICOM": "COL",
  "InstitutionAddress": "Univeristy Ave. 197,Newark,North East,US,07102-1814",
  "InstitutionName": "RUBIC",
  "InstitutionalDepartmentName": "Department",
  "MRAcquisitionType": "2D",
  "MagneticFieldStrength": 3,
  "Manufacturer": "Siemens",
  "ManufacturersModelName": "TrioTim",
  "Modality": "MR",
  "MultibandAccelerationFactor": 8,
  "PartialFourier": 0.875,
  "PatientPosition": "HFS",
  "PercentPhaseFOV": 100,
  "PercentSampling": 100,
  "PhaseEncodingDirection": "j-",
  "PhaseEncodingSteps": 91,
  "PhaseResolution": 1,
  "PixelBandwidth": 1923,
  "ProcedureStepDescription": "Cole^Michael",
  "ProtocolName": "cmrr_mbep2d_bold_2mm_MB8_Task_8x",
  "PulseSequenceDetails": "%CustomerSeq%\\cmrr_mbep2d_bold",
  "ReceiveCoilName": "32Ch_Head",
  "ReconMatrixPE": 104,
  "RepetitionTime": 0.785,
  "SAR": 0.128718,
  "ScanOptions": "PFP\\FS",
  "ScanningSequence": "EP",
  "SequenceName": "epfid2d1_104",
  "SequenceVariant": "SK\\SS",
  "SeriesDescription": "cmrr_mbep2d_bold_2mm_MB8_Task_8x",
  "SeriesNumber": 23,
  "ShimSetting": [2150, -340, -7322, 618, -60, -372, 126, 24],
  "SliceThickness": 2,
  "SliceTiming": [0, 0.4375, 0.0875, 0.525, 0.175, 0.6125, 0.2625, 0.7, 0.35, 0, 0.4375, 0.0875, 0.525, 0.175, 0.6125, 0.2625, 0.7, 0.35, 0, 0.4375, 0.0875, 0.525, 0.175, 0.6125, 0.2625, 0.7, 0.35, 0, 0.4375, 0.0875, 0.525, 0.175, 0.6125, 0.2625, 0.7, 0.35, 0, 0.4375, 0.0875, 0.525, 0.175, 0.6125, 0.2625, 0.7, 0.35, 0, 0.4375, 0.0875, 0.525, 0.175, 0.6125, 0.2625, 0.7, 0.35, 0, 0.4375, 0.0875, 0.525, 0.175, 0.6125, 0.2625, 0.7, 0.35, 0, 0.4375, 0.0875, 0.525, 0.175, 0.6125, 0.2625, 0.7, 0.35],
  "SoftwareVersions": "syngo MR B19",
  "SpacingBetweenSlices": 2,
  "StationName": "MRC35450",
  "TaskName": "cpro",
  "TotalReadoutTime": 0.0710717,
  "TxRefAmp": 322.77,
  "dcmmeta_affine": [
    [-1.9993162155151367, 8.613184121486483e-08, 0.052294399589300156, 105.27387237548828],
    [-0.001825116341933608, 1.998781442642212, -0.06978103518486023, -87.05563354492188],
    [0.05226253718137741, 0.06980489194393158, 1.9980981349945068, -96.70436096191406],
    [0.0, 0.0, 0.0, 1.0]
],
  "dcmmeta_reorient_transform": [
    [0.0, -1.0, 0.0, 103.0],
    [1.0, 0.0, 0.0, 0.0],
    [0.0, 0.0, 1.0, 0.0],
    [0.0, 0.0, 0.0, 1.0]
],
  "dcmmeta_shape": [104, 104, 72, 581],
  "dcmmeta_slice_dim": 2,
  "dcmmeta_version": 0.6,
  "global": {
    "const": {
      "AcquisitionMatrix": [104, 0, 0, 104],
      "AngioFlag": "N",
      "BitsAllocated": 16,
      "BitsStored": 12,
      "Columns": 936,
      "EchoNumbers": 1,
      "EchoTime": 34.8,
      "EchoTrainLength": 1,
      "FlipAngle": 55.0,
      "HighBit": 11,
      "ImageOrientationPatient": [0.99965810356638, 0.00091255818684, 0.02613126884819, 4.306592e-08, 0.99939072397178, -0.0349024474665],
      "ImagePositionPatient": [-936.98945823123, -951.07118842279, -82.21683544361],
      "ImageType": [
        "ORIGINAL",
        "PRIMARY",
        "M",
        "MB",
        "ND",
        "MOSAIC"
],
      "ImagedNucleus": "1H",
      "ImagingFrequency": 123.234403,
      "InPlanePhaseEncodingDirection": "COL",
      "MRAcquisitionType": "2D",
      "MagneticFieldStrength": 3.0,
      "Manufacturer": "SIEMENS",
      "ManufacturerModelName": "TrioTim",
      "Modality": "MR",
      "NumberOfAverages": 1.0,
      "NumberOfPhaseEncodingSteps": 91,
      "PercentPhaseFieldOfView": 100.0,
      "PercentSampling": 100.0,
      "PerformedProcedureStepStartTime": "144239.500000",
      "PhotometricInterpretation": "MONOCHROME2",
      "PixelBandwidth": 1923.0,
      "PixelRepresentation": 0,
      "PixelSpacing": [2.0, 2.0],
      "ProtocolName": "cmrr_mbep2d_bold_2mm_MB8_Task_8x",
      "RepetitionTime": 785.0,
      "Rows": 936,
      "SAR": 0.12871793755899,
      "SamplesPerPixel": 1,
      "ScanOptions": [
        "PFP",
        "FS"
],
      "ScanningSequence": "EP",
      "SequenceName": "epfid2d1_104",
      "SequenceVariant": [
        "SK",
        "SS"
],
      "SeriesDescription": "cmrr_mbep2d_bold_2mm_MB8_Task_8x",
      "SeriesNumber": 23,
      "SeriesTime": "162258.093000",
      "SliceLocation": -90.822365202648,
      "SliceThickness": 2.0,
      "SmallestImagePixelValue": 0,
      "SoftwareVersions": "syngo MR B19",
      "SpacingBetweenSlices": 2.0000000600615,
      "SpecificCharacterSet": "ISO_IR 100",
      "StudyID": "1",
      "StudyTime": "144239.468000",
      "TransmitCoilName": "Body",
      "VariableFlipAngleFlag": "N",
      "WindowCenterWidthExplanation": "Algo1",
      "dBdt": 0.0},
    "slices": {}
  },
  "time": {
    "samples": {
      "AcquisitionNumber": [1, 2, 3, 4, 5, 6, 7, 8, 9, 10, 11, 12, 13, 14, 15, 16, 17, 18, 19, 20, 21, 22, 23, 24, 25, 26, 27, 28, 29, 30, 31, 32, 33, 34, 35, 36, 37, 38, 39, 40, 41, 42, 43, 44, 45, 46, 47, 48, 49, 50, 51, 52, 53, 54, 55, 56, 57, 58, 59, 60, 61, 62, 63, 64, 65, 66, 67, 68, 69, 70, 71, 72, 73, 74, 75, 76, 77, 78, 79, 80, 81, 82, 83, 84, 85, 86, 87, 88, 89, 90, 91, 92, 93, 94, 95, 96, 97, 98, 99, 100, 101, 102, 103, 104, 105, 106, 107, 108, 109, 110, 111, 112, 113, 114, 115, 116, 117, 118, 119, 120, 121, 122, 123, 124, 125, 126, 127, 128, 129, 130, 131, 132, 133, 134, 135, 136, 137, 138, 139, 140, 141, 142, 143, 144, 145, 146, 147, 148, 149, 150, 151, 152, 153, 154, 155, 156, 157, 158, 159, 160, 161, 162, 163, 164, 165, 166, 167, 168, 169, 170, 171, 172, 173, 174, 175, 176, 177, 178, 179, 180, 181, 182, 183, 184, 185, 186, 187, 188, 189, 190, 191, 192, 193, 194, 195, 196, 197, 198, 199, 200, 201, 202, 203, 204, 205, 206, 207, 208, 209, 210, 211, 212, 213, 214, 215, 216, 217, 218, 219, 220, 221, 222, 223, 224, 225, 226, 227, 228, 229, 230, 231, 232, 233, 234, 235, 236, 237, 238, 239, 240, 241, 242, 243, 244, 245, 246, 247, 248, 249, 250, 251, 252, 253, 254, 255, 256, 257, 258, 259, 260, 261, 262, 263, 264, 265, 266, 267, 268, 269, 270, 271, 272, 273, 274, 275, 276, 277, 278, 279, 280, 281, 282, 283, 284, 285, 286, 287, 288, 289, 290, 291, 292, 293, 294, 295, 296, 297, 298, 299, 300, 301, 302, 303, 304, 305, 306, 307, 308, 309, 310, 311, 312, 313, 314, 315, 316, 317, 318, 319, 320, 321, 322, 323, 324, 325, 326, 327, 328, 329, 330, 331, 332, 333, 334, 335, 336, 337, 338, 339, 340, 341, 342, 343, 344, 345, 346, 347, 348, 349, 350, 351, 352, 353, 354, 355, 356, 357, 358, 359, 360, 361, 362, 363, 364, 365, 366, 367, 368, 369, 370, 371, 372, 373, 374, 375, 376, 377, 378, 379, 380, 381, 382, 383, 384, 385, 386, 387, 388, 389, 390, 391, 392, 393, 394, 395, 396, 397, 398, 399, 400, 401, 402, 403, 404, 405, 406, 407, 408, 409, 410, 411, 412, 413, 414, 415, 416, 417, 418, 419, 420, 421, 422, 423, 424, 425, 426, 427, 428, 429, 430, 431, 432, 433, 434, 435, 436, 437, 438, 439, 440, 441, 442, 443, 444, 445, 446, 447, 448, 449, 450, 451, 452, 453, 454, 455, 456, 457, 458, 459, 460, 461, 462, 463, 464, 465, 466, 467, 468, 469, 470, 471, 472, 473, 474, 475, 476, 477, 478, 479, 480, 481, 482, 483, 484, 485, 486, 487, 488, 489, 490, 491, 492, 493, 494, 495, 496, 497, 498, 499, 500, 501, 502, 503, 504, 505, 506, 507, 508, 509, 510, 511, 512, 513, 514, 515, 516, 517, 518, 519, 520, 521, 522, 523, 524, 525, 526, 527, 528, 529, 530, 531, 532, 533, 534, 535, 536, 537, 538, 539, 540, 541, 542, 543, 544, 545, 546, 547, 548, 549, 550, 551, 552, 553, 554, 555, 556, 557, 558, 559, 560, 561, 562, 563, 564, 565, 566, 567, 568, 569, 570, 571, 572, 573, 574, 575, 576, 577, 578, 579, 580, 581],
      "AcquisitionTime": ["162237.745000", "162238.532500", "162239.320000", "162240.110000", "162240.897500", "162241.685000", "162242.472500", "162243.262500", "162244.050000", "162244.837500", "162245.625000", "162246.415000", "162247.202500", "162247.990000", "162248.780000", "162249.567500", "162250.355000", "162251.142500", "162251.932500", "162252.720000", "162253.507500", "162254.295000", "162255.085000", "162255.872500", "162256.660000", "162257.447500", "162258.237500", "162259.025000", "162259.812500", "162300.600000", "162301.390000", "162302.177500", "162302.965000", "162303.752500", "162304.542500", "162305.330000", "162306.117500", "162306.907500", "162307.695000", "162308.482500", "162309.270000", "162310.060000", "162310.847500", "162311.635000", "162312.422500", "162313.212500", "162314.000000", "162314.787500", "162315.575000", "162316.365000", "162317.152500", "162317.940000", "162318.727500", "162319.517500", "162320.305000", "162321.092500", "162321.882500", "162322.670000", "162323.457500", "162324.245000", "162325.035000", "162325.822500", "162326.610000", "162327.397500", "162328.187500", "162328.975000", "162329.762500", "162330.550000", "162331.340000", "162332.127500", "162332.915000", "162333.702500", "162334.492500", "162335.280000", "162336.067500", "162336.855000", "162337.645000", "162338.432500", "162339.220000", "162340.010000", "162340.797500", "162341.585000", "162342.372500", "162343.162500", "162343.950000", "162344.737500", "162345.525000", "162346.315000", "162347.102500", "162347.890000", "162348.677500", "162349.467500", "162350.255000", "162351.042500", "162351.830000", "162352.620000", "162353.407500", "162354.195000", "162354.982500", "162355.772500", "162356.560000", "162357.347500", "162358.137500", "162358.925000", "162359.712500", "162400.500000", "162401.290000", "162402.077500", "162402.865000", "162403.652500", "162404.442500", "162405.230000", "162406.017500", "162406.805000", "162407.595000", "162408.382500", "162409.170000", "162409.957500", "162410.747500", "162411.535000", "162412.322500", "162413.110000", "162413.900000", "162414.687500", "162415.475000", "162416.265000", "162417.052500", "162417.840000", "162418.627500", "162419.417500", "162420.205000", "162420.992500", "162421.780000", "162422.570000", "162423.357500", "162424.145000", "162424.932500", "162425.722500", "162426.510000", "162427.297500", "162428.085000", "162428.875000", "162429.662500", "162430.450000", "162431.237500", "162432.027500", "162432.815000", "162433.602500", "162434.392500", "162435.180000", "162435.967500", "162436.755000", "162437.545000", "162438.332500", "162439.120000", "162439.907500", "162440.697500", "162441.485000", "162442.272500", "162443.060000", "162443.850000", "162444.637500", "162445.425000", "162446.212500", "162447.002500", "162447.790000", "162448.577500", "162449.365000", "162450.155000", "162450.942500", "162451.730000", "162452.520000", "162453.307500", "162454.095000", "162454.882500", "162455.672500", "162456.460000", "162457.247500", "162458.035000", "162458.825000", "162459.612500", "162500.400000", "162501.187500", "162501.977500", "162502.765000", "162503.552500", "162504.340000", "162505.130000", "162505.917500", "162506.705000", "162507.492500", "162508.282500", "162509.070000", "162509.857500", "162510.647500", "162511.435000", "162512.222500", "162513.010000", "162513.800000", "162514.587500", "162515.375000", "162516.162500", "162516.952500", "162517.740000", "162518.527500", "162519.315000", "162520.105000", "162520.892500", "162521.680000", "162522.467500", "162523.257500", "162524.045000", "162524.832500", "162525.620000", "162526.410000", "162527.197500", "162527.985000", "162528.775000", "162529.562500", "162530.350000", "162531.137500", "162531.927500", "162532.715000", "162533.502500", "162534.290000", "162535.080000", "162535.867500", "162536.655000", "162537.442500", "162538.232500", "162539.020000", "162539.807500", "162540.595000", "162541.385000", "162542.172500", "162542.960000", "162543.747500", "162544.537500", "162545.325000", "162546.112500", "162546.902500", "162547.690000", "162548.477500", "162549.265000", "162550.055000", "162550.842500", "162551.630000", "162552.417500", "162553.207500", "162553.995000", "162554.782500", "162555.570000", "162556.360000", "162557.147500", "162557.935000", "162558.722500", "162559.512500", "162600.300000", "162601.087500", "162601.875000", "162602.665000", "162603.452500", "162604.240000", "162605.030000", "162605.817500", "162606.605000", "162607.392500", "162608.182500", "162608.970000", "162609.757500", "162610.545000", "162611.335000", "162612.122500", "162612.910000", "162613.697500", "162614.487500", "162615.275000", "162616.062500", "162616.850000", "162617.640000", "162618.427500", "162619.215000", "162620.002500", "162620.792500", "162621.580000", "162622.367500", "162623.157500", "162623.945000", "162624.732500", "162625.520000", "162626.310000", "162627.097500", "162627.885000", "162628.672500", "162629.462500", "162630.250000", "162631.037500", "162631.825000", "162632.615000", "162633.402500", "162634.190000", "162634.977500", "162635.767500", "162636.555000", "162637.342500", "162638.132500", "162638.920000", "162639.707500", "162640.495000", "162641.285000", "162642.072500", "162642.860000", "162643.647500", "162644.437500", "162645.225000", "162646.012500", "162646.800000", "162647.590000", "162648.377500", "162649.165000", "162649.952500", "162650.742500", "162651.530000", "162652.317500", "162653.105000", "162653.895000", "162654.682500", "162655.470000", "162656.260000", "162657.047500", "162657.835000", "162658.622500", "162659.412500", "162700.200000", "162700.987500", "162701.775000", "162702.565000", "162703.352500", "162704.140000", "162704.927500", "162705.717500", "162706.505000", "162707.292500", "162708.080000", "162708.870000", "162709.657500", "162710.445000", "162711.232500", "162712.022500", "162712.810000", "162713.597500", "162714.387500", "162715.175000", "162715.962500", "162716.750000", "162717.540000", "162718.327500", "162719.115000", "162719.902500", "162720.692500", "162721.480000", "162722.267500", "162723.055000", "162723.845000", "162724.632500", "162725.420000", "162726.207500", "162726.997500", "162727.785000", "162728.572500", "162729.360000", "162730.150000", "162730.937500", "162731.725000", "162732.515000", "162733.302500", "162734.090000", "162734.877500", "162735.667500", "162736.455000", "162737.242500", "162738.030000", "162738.820000", "162739.607500", "162740.395000", "162741.182500", "162741.972500", "162742.760000", "162743.547500", "162744.335000", "162745.125000", "162745.912500", "162746.700000", "162747.487500", "162748.277500", "162749.065000", "162749.852500", "162750.642500", "162751.430000", "162752.217500", "162753.005000", "162753.795000", "162754.582500", "162755.370000", "162756.157500", "162756.947500", "162757.735000", "162758.522500", "162759.310000", "162800.100000", "162800.887500", "162801.675000", "162802.462500", "162803.252500", "162804.040000", "162804.827500", "162805.615000", "162806.405000", "162807.192500", "162807.980000", "162808.770000", "162809.557500", "162810.345000", "162811.132500", "162811.922500", "162812.710000", "162813.497500", "162814.285000", "162815.075000", "162815.862500", "162816.650000", "162817.437500", "162818.227500", "162819.015000", "162819.802500", "162820.590000", "162821.380000", "162822.167500", "162822.955000", "162823.742500", "162824.532500", "162825.320000", "162826.107500", "162826.897500", "162827.685000", "162828.472500", "162829.260000", "162830.050000", "162830.837500", "162831.625000", "162832.412500", "162833.202500", "162833.990000", "162834.777500", "162835.565000", "162836.355000", "162837.142500", "162837.930000", "162838.717500", "162839.507500", "162840.295000", "162841.082500", "162841.870000", "162842.660000", "162843.447500", "162844.235000", "162845.025000", "162845.812500", "162846.600000", "162847.387500", "162848.177500", "162848.965000", "162849.752500", "162850.540000", "162851.330000", "162852.117500", "162852.905000", "162853.692500", "162854.482500", "162855.270000", "162856.057500", "162856.845000", "162857.635000", "162858.422500", "162859.210000", "162859.997500", "162900.787500", "162901.575000", "162902.362500", "162903.152500", "162903.940000", "162904.727500", "162905.515000", "162906.305000", "162907.092500", "162907.880000", "162908.667500", "162909.457500", "162910.245000", "162911.032500", "162911.820000", "162912.610000", "162913.397500", "162914.185000", "162914.972500", "162915.762500", "162916.550000", "162917.337500", "162918.125000", "162918.915000", "162919.702500", "162920.490000", "162921.280000", "162922.067500", "162922.855000", "162923.642500", "162924.432500", "162925.220000", "162926.007500", "162926.795000", "162927.585000", "162928.372500", "162929.160000", "162929.947500", "162930.737500", "162931.525000", "162932.312500", "162933.100000", "162933.890000", "162934.677500", "162935.465000", "162936.252500", "162937.042500", "162937.830000", "162938.617500", "162939.407500", "162940.195000", "162940.982500", "162941.770000", "162942.560000", "162943.347500", "162944.135000", "162944.922500", "162945.712500", "162946.500000", "162947.287500", "162948.075000", "162948.865000", "162949.652500", "162950.440000", "162951.227500", "162952.017500", "162952.805000", "162953.592500", "162954.382500", "162955.170000", "162955.957500", "162956.745000", "162957.535000", "162958.322500", "162959.110000", "162959.897500", "163000.687500", "163001.475000", "163002.262500", "163003.050000", "163003.840000", "163004.627500", "163005.415000", "163006.202500", "163006.992500", "163007.780000", "163008.567500", "163009.355000", "163010.145000", "163010.932500", "163011.720000", "163012.510000", "163013.297500", "163014.085000", "163014.872500"],
      "ContentTime": ["162258.093000", "162258.093000", "162258.109000", "162258.109000", "162258.109000", "162258.109000", "162258.109000", "162258.109000", "162258.109000", "162258.125000", "162258.125000", "162258.125000", "162258.125000", "162258.125000", "162258.125000", "162258.125000", "162258.140000", "162258.140000", "162258.140000", "162258.140000", "162258.140000", "162258.156000", "162258.156000", "162318.078000", "162318.078000", "162318.078000", "162318.078000", "162318.078000", "162318.078000", "162318.093000", "162318.093000", "162318.093000", "162318.093000", "162318.093000", "162318.093000", "162318.093000", "162318.109000", "162318.109000", "162318.109000", "162318.109000", "162318.109000", "162318.125000", "162318.125000", "162318.125000", "162318.125000", "162318.125000", "162318.140000", "162318.140000", "162338.078000", "162338.078000", "162338.078000", "162338.078000", "162338.078000", "162338.078000", "162338.093000", "162338.093000", "162338.093000", "162338.109000", "162338.109000", "162338.109000", "162338.109000", "162338.109000", "162338.109000", "162338.125000", "162338.125000", "162338.125000", "162338.125000", "162338.125000", "162338.125000", "162338.125000", "162338.140000", "162338.140000", "162338.140000", "162338.140000", "162358.078000", "162358.078000", "162358.078000", "162358.078000", "162358.078000", "162358.093000", "162358.093000", "162358.093000", "162358.093000", "162358.093000", "162358.093000", "162358.093000", "162358.109000", "162358.109000", "162358.109000", "162358.109000", "162358.109000", "162358.109000", "162358.109000", "162358.125000", "162358.125000", "162358.125000", "162358.125000", "162358.125000", "162358.125000", "162418.078000", "162418.078000", "162418.078000", "162418.078000", "162418.078000", "162418.078000", "162418.093000", "162418.093000", "162418.093000", "162418.093000", "162418.093000", "162418.093000", "162418.093000", "162418.109000", "162418.109000", "162418.109000", "162418.109000", "162418.109000", "162418.109000", "162418.109000", "162418.125000", "162418.125000", "162418.125000", "162418.125000", "162418.125000", "162418.125000", "162438.078000", "162438.078000", "162438.078000", "162438.078000", "162438.078000", "162438.078000", "162438.093000", "162438.093000", "162438.093000", "162438.093000", "162438.093000", "162438.093000", "162438.093000", "162438.109000", "162438.109000", "162438.109000", "162438.109000", "162438.109000", "162438.109000", "162438.125000", "162438.125000", "162438.125000", "162438.125000", "162438.125000", "162438.125000", "162458.078000", "162458.078000", "162458.078000", "162458.078000", "162458.078000", "162458.078000", "162458.093000", "162458.093000", "162458.093000", "162458.093000", "162458.093000", "162458.093000", "162458.093000", "162458.109000", "162458.109000", "162458.109000", "162458.109000", "162458.109000", "162458.109000", "162458.109000", "162458.125000", "162458.125000", "162458.125000", "162458.125000", "162458.125000", "162458.125000", "162518.078000", "162518.078000", "162518.078000", "162518.078000", "162518.093000", "162518.093000", "162518.093000", "162518.093000", "162518.093000", "162518.093000", "162518.109000", "162518.109000", "162518.109000", "162518.109000", "162518.109000", "162518.109000", "162518.125000", "162518.125000", "162518.125000", "162518.125000", "162518.125000", "162518.125000", "162518.125000", "162518.140000", "162518.140000", "162538.078000", "162538.078000", "162538.078000", "162538.078000", "162538.078000", "162538.078000", "162538.093000", "162538.093000", "162538.093000", "162538.093000", "162538.093000", "162538.093000", "162538.093000", "162538.109000", "162538.109000", "162538.109000", "162538.109000", "162538.109000", "162538.109000", "162538.125000", "162538.125000", "162538.125000", "162538.125000", "162538.125000", "162538.125000", "162538.140000", "162558.078000", "162558.078000", "162558.078000", "162558.078000", "162558.078000", "162558.078000", "162558.093000", "162558.093000", "162558.093000", "162558.093000", "162558.093000", "162558.093000", "162558.109000", "162558.109000", "162558.109000", "162558.109000", "162558.109000", "162558.109000", "162558.109000", "162558.125000", "162558.125000", "162558.125000", "162558.125000", "162558.125000", "162558.125000", "162618.078000", "162618.078000", "162618.078000", "162618.078000", "162618.078000", "162618.078000", "162618.093000", "162618.093000", "162618.093000", "162618.093000", "162618.093000", "162618.093000", "162618.093000", "162618.109000", "162618.109000", "162618.109000", "162618.109000", "162618.109000", "162618.109000", "162618.109000", "162618.125000", "162618.125000", "162618.125000", "162618.125000", "162618.125000", "162618.125000", "162638.078000", "162638.078000", "162638.078000", "162638.078000", "162638.078000", "162638.078000", "162638.093000", "162638.093000", "162638.093000", "162638.093000", "162638.093000", "162638.093000", "162638.093000", "162638.109000", "162638.109000", "162638.109000", "162638.109000", "162638.109000", "162638.109000", "162638.125000", "162638.125000", "162638.125000", "162638.125000", "162638.125000", "162638.125000", "162658.078000", "162658.078000", "162658.078000", "162658.078000", "162658.078000", "162658.078000", "162658.093000", "162658.093000", "162658.093000", "162658.093000", "162658.093000", "162658.093000", "162658.093000", "162658.109000", "162658.109000", "162658.109000", "162658.109000", "162658.109000", "162658.109000", "162658.109000", "162658.125000", "162658.125000", "162658.125000", "162658.125000", "162658.125000", "162658.125000", "162718.078000", "162718.078000", "162718.078000", "162718.078000", "162718.078000", "162718.078000", "162718.093000", "162718.093000", "162718.093000", "162718.093000", "162718.093000", "162718.093000", "162718.093000", "162718.109000", "162718.109000", "162718.109000", "162718.109000", "162718.109000", "162718.109000", "162718.109000", "162718.125000", "162718.125000", "162718.125000", "162718.125000", "162718.125000", "162738.078000", "162738.078000", "162738.078000", "162738.078000", "162738.078000", "162738.078000", "162738.093000", "162738.093000", "162738.093000", "162738.093000", "162738.093000", "162738.093000", "162738.093000", "162738.109000", "162738.109000", "162738.109000", "162738.109000", "162738.109000", "162738.109000", "162738.125000", "162738.125000", "162738.125000", "162738.125000", "162738.125000", "162738.125000", "162758.078000", "162758.078000", "162758.078000", "162758.078000", "162758.078000", "162758.078000", "162758.093000", "162758.093000", "162758.093000", "162758.093000", "162758.093000", "162758.093000", "162758.109000", "162758.109000", "162758.109000", "162758.109000", "162758.109000", "162758.109000", "162758.109000", "162758.125000", "162758.125000", "162758.125000", "162758.125000", "162758.125000", "162758.125000", "162758.125000", "162818.078000", "162818.078000", "162818.078000", "162818.078000", "162818.078000", "162818.078000", "162818.093000", "162818.093000", "162818.093000", "162818.093000", "162818.093000", "162818.093000", "162818.109000", "162818.109000", "162818.109000", "162818.109000", "162818.109000", "162818.125000", "162818.125000", "162818.125000", "162818.125000", "162818.125000", "162818.125000", "162818.125000", "162818.140000", "162838.078000", "162838.078000", "162838.078000", "162838.078000", "162838.078000", "162838.078000", "162838.093000", "162838.093000", "162838.093000", "162838.093000", "162838.093000", "162838.093000", "162838.109000", "162838.109000", "162838.109000", "162838.109000", "162838.109000", "162838.109000", "162838.109000", "162838.125000", "162838.125000", "162838.125000", "162838.125000", "162838.125000", "162838.125000", "162838.140000", "162858.078000", "162858.078000", "162858.078000", "162858.078000", "162858.078000", "162858.093000", "162858.093000", "162858.093000", "162858.093000", "162858.093000", "162858.093000", "162858.109000", "162858.109000", "162858.109000", "162858.109000", "162858.109000", "162858.109000", "162858.125000", "162858.125000", "162858.125000", "162858.125000", "162858.125000", "162858.125000", "162858.140000", "162858.140000", "162918.078000", "162918.078000", "162918.078000", "162918.078000", "162918.078000", "162918.078000", "162918.093000", "162918.093000", "162918.093000", "162918.093000", "162918.093000", "162918.093000", "162918.093000", "162918.109000", "162918.109000", "162918.109000", "162918.109000", "162918.109000", "162918.109000", "162918.109000", "162918.125000", "162918.125000", "162918.125000", "162918.125000", "162918.125000", "162918.171000", "162938.078000", "162938.078000", "162938.078000", "162938.078000", "162938.078000", "162938.078000", "162938.093000", "162938.093000", "162938.093000", "162938.093000", "162938.093000", "162938.093000", "162938.093000", "162938.109000", "162938.109000", "162938.109000", "162938.109000", "162938.109000", "162938.109000", "162938.125000", "162938.125000", "162938.125000", "162938.125000", "162938.125000", "162938.140000", "162958.078000", "162958.078000", "162958.078000", "162958.078000", "162958.078000", "162958.078000", "162958.093000", "162958.093000", "162958.093000", "162958.093000", "162958.093000", "162958.093000", "162958.093000", "162958.109000", "162958.109000", "162958.109000", "162958.109000", "162958.109000", "162958.109000", "162958.109000", "162958.125000", "162958.125000", "162958.125000", "162958.125000", "162958.125000", "162958.125000", "163016.000000", "163016.000000", "163016.000000", "163016.015000", "163016.015000", "163016.015000", "163016.015000", "163016.015000", "163016.015000", "163016.015000", "163016.031000", "163016.031000", "163016.031000", "163016.031000", "163016.031000", "163016.046000", "163016.046000", "163016.046000", "163016.046000", "163016.046000", "163016.046000", "163016.046000", "163016.062000"],
      "DataSetTrailingPadding": [
        "\u0000\u0000\u0000\u0000\u0000\u0000\u0000\u0000\u0000\u0000\u0000\u0000\u0000\u0000\u0000\u0000\u0000\u0000\u0000\u0000\u0000\u0000\u0000\u0000\u0000\u0000\u0000\u0000\u0000\u0000\u0000\u0000\u0000\u0000\u0000\u0000\u0000\u0000\u0000\u0000\u0000\u0000\u0000\u0000\u0000\u0000\u0000\u0000\u0000\u0000\u0000\u0000\u0000\u0000\u0000\u0000\u0000\u0000\u0000\u0000\u0000\u0000\u0000\u0000\u0000\u0000\u0000\u0000\u0000\u0000\u0000\u0000\u0000\u0000\u0000\u0000\u0000\u0000\u0000\u0000\u0000\u0000\u0000\u0000\u0000\u0000\u0000\u0000\u0000\u0000\u0000\u0000\u0000\u0000\u0000\u0000\u0000\u0000\u0000\u0000\u0000\u0000\u0000\u0000\u0000\u0000\u0000\u0000\u0000\u0000\u0000\u0000\u0000\u0000\u0000\u0000\u0000\u0000\u0000\u0000\u0000\u0000\u0000\u0000\u0000\u0000\u0000\u0000\u0000\u0000\u0000\u0000\u0000\u0000\u0000\u0000\u0000\u0000\u0000\u0000\u0000\u0000\u0000\u0000\u0000\u0000\u0000\u0000\u0000\u0000\u0000\u0000\u0000\u0000\u0000\u0000",
        "\u0000\u0000\u0000\u0000\u0000\u0000\u0000\u0000\u0000\u0000\u0000\u0000\u0000\u0000\u0000\u0000\u0000\u0000\u0000\u0000\u0000\u0000\u0000\u0000\u0000\u0000\u0000\u0000\u0000\u0000\u0000\u0000\u0000\u0000\u0000\u0000\u0000\u0000\u0000\u0000\u0000\u0000\u0000\u0000\u0000\u0000\u0000\u0000\u0000\u0000\u0000\u0000\u0000\u0000\u0000\u0000\u0000\u0000\u0000\u0000\u0000\u0000\u0000\u0000\u0000\u0000\u0000\u0000\u0000\u0000\u0000\u0000\u0000\u0000\u0000\u0000\u0000\u0000\u0000\u0000\u0000\u0000\u0000\u0000\u0000\u0000\u0000\u0000\u0000\u0000\u0000\u0000\u0000\u0000\u0000\u0000\u0000\u0000\u0000\u0000\u0000\u0000\u0000\u0000\u0000\u0000\u0000\u0000\u0000\u0000\u0000\u0000\u0000\u0000\u0000\u0000\u0000\u0000\u0000\u0000\u0000\u0000\u0000\u0000\u0000\u0000\u0000\u0000\u0000\u0000\u0000\u0000\u0000\u0000\u0000\u0000\u0000\u0000\u0000\u0000\u0000\u0000\u0000\u0000\u0000\u0000\u0000\u0000\u0000\u0000\u0000\u0000\u0000\u0000\u0000\u0000",
