{
  "AcquisitionMatrixPE": 104,
  "AcquisitionNumber": 1,
  "AcquisitionTime": "16:38:51.725000",
  "BandwidthPerPixelPhaseEncode": 13.935,
  "BaseResolution": 104,
  "CoilString": "C:HEA;HEP",
  "ConversionSoftware": "dcm2niix",
  "ConversionSoftwareVersion": "v1.0.20210317",
  "DerivedVendorReportedEchoSpacing": 0.000690017,
  "DeviceSerialNumber": "35450",
  "DwellTime": 2.5e-06,
  "EchoTime": 0.0348,
  "EffectiveEchoSpacing": 0.000690017,
  "FlipAngle": 55,
  "ImageComments": "Unaliased MB8/PE3 (remote)",
  "ImageOrientationPatientDICOM": [0.999658, 0.000912558, 0.0261313, 4.30659e-08, 0.999391, -0.0349024],
  "ImageType": [
    "ORIGINAL",
    "PRIMARY",
    "M",
    "MB",
    "ND",
    "MOSAIC"
],
  "ImagingFrequency": 123.234,
  "InPlanePhaseEncodingDirectionDICOM": "COL",
  "InstitutionAddress": "Univeristy Ave. 197,Newark,North East,US,07102-1814",
  "InstitutionName": "RUBIC",
  "InstitutionalDepartmentName": "Department",
  "MRAcquisitionType": "2D",
  "MagneticFieldStrength": 3,
  "Manufacturer": "Siemens",
  "ManufacturersModelName": "TrioTim",
  "Modality": "MR",
  "MultibandAccelerationFactor": 8,
  "PartialFourier": 0.875,
  "PatientPosition": "HFS",
  "PercentPhaseFOV": 100,
  "PercentSampling": 100,
  "PhaseEncodingDirection": "j-",
  "PhaseEncodingSteps": 91,
  "PhaseResolution": 1,
  "PixelBandwidth": 1923,
  "ProcedureStepDescription": "Cole^Michael",
  "ProtocolName": "cmrr_mbep2d_bold_2mm_MB8_Task_8x",
  "PulseSequenceDetails": "%CustomerSeq%\\cmrr_mbep2d_bold",
  "ReceiveCoilName": "32Ch_Head",
  "ReconMatrixPE": 104,
  "RepetitionTime": 0.785,
  "SAR": 0.128718,
  "ScanOptions": "PFP\\FS",
  "ScanningSequence": "EP",
  "SequenceName": "epfid2d1_104",
  "SequenceVariant": "SK\\SS",
  "SeriesDescription": "cmrr_mbep2d_bold_2mm_MB8_Task_8x",
  "SeriesNumber": 27,
  "ShimSetting": [2150, -340, -7322, 618, -60, -372, 126, 24],
  "SliceThickness": 2,
  "SliceTiming": [0, 0.44, 0.0875, 0.5275, 0.175, 0.615, 0.2625, 0.7025, 0.3525, 0, 0.44, 0.0875, 0.5275, 0.175, 0.615, 0.2625, 0.7025, 0.3525, 0, 0.44, 0.0875, 0.5275, 0.175, 0.615, 0.2625, 0.7025, 0.3525, 0, 0.44, 0.0875, 0.5275, 0.175, 0.615, 0.2625, 0.7025, 0.3525, 0, 0.44, 0.0875, 0.5275, 0.175, 0.615, 0.2625, 0.7025, 0.3525, 0, 0.44, 0.0875, 0.5275, 0.175, 0.615, 0.2625, 0.7025, 0.3525, 0, 0.44, 0.0875, 0.5275, 0.175, 0.615, 0.2625, 0.7025, 0.3525, 0, 0.44, 0.0875, 0.5275, 0.175, 0.615, 0.2625, 0.7025, 0.3525],
  "SoftwareVersions": "syngo MR B19",
  "SpacingBetweenSlices": 2,
  "StationName": "MRC35450",
  "TaskName": "cpro",
  "TotalReadoutTime": 0.0710717,
  "TxRefAmp": 322.77,
  "dcmmeta_affine": [
    [-1.9993162155151367, 8.613184121486483e-08, 0.052294399589300156, 105.27387237548828],
    [-0.001825116341933608, 1.998781442642212, -0.06978103518486023, -87.05563354492188],
    [0.05226253718137741, 0.06980489194393158, 1.9980981349945068, -96.70436096191406],
    [0.0, 0.0, 0.0, 1.0]
],
  "dcmmeta_reorient_transform": [
    [0.0, -1.0, 0.0, 103.0],
    [1.0, 0.0, 0.0, 0.0],
    [0.0, 0.0, 1.0, 0.0],
    [0.0, 0.0, 0.0, 1.0]
],
  "dcmmeta_shape": [104, 104, 72, 581],
  "dcmmeta_slice_dim": 2,
  "dcmmeta_version": 0.6,
  "global": {
    "const": {
      "AcquisitionMatrix": [104, 0, 0, 104],
      "AngioFlag": "N",
      "BitsAllocated": 16,
      "BitsStored": 12,
      "Columns": 936,
      "EchoNumbers": 1,
      "EchoTime": 34.8,
      "EchoTrainLength": 1,
      "FlipAngle": 55.0,
      "HighBit": 11,
      "ImageOrientationPatient": [0.99965810356638, 0.00091255818684, 0.02613126884819, 4.306592e-08, 0.99939072397178, -0.0349024474665],
      "ImagePositionPatient": [-936.98945823123, -951.07118842279, -82.21683544361],
      "ImageType": [
        "ORIGINAL",
        "PRIMARY",
        "M",
        "MB",
        "ND",
        "MOSAIC"
],
      "ImagedNucleus": "1H",
      "ImagingFrequency": 123.234403,
      "InPlanePhaseEncodingDirection": "COL",
      "MRAcquisitionType": "2D",
      "MagneticFieldStrength": 3.0,
      "Manufacturer": "SIEMENS",
      "ManufacturerModelName": "TrioTim",
      "Modality": "MR",
      "NumberOfAverages": 1.0,
      "NumberOfPhaseEncodingSteps": 91,
      "PercentPhaseFieldOfView": 100.0,
      "PercentSampling": 100.0,
      "PerformedProcedureStepStartTime": "144239.500000",
      "PhotometricInterpretation": "MONOCHROME2",
      "PixelBandwidth": 1923.0,
      "PixelRepresentation": 0,
      "PixelSpacing": [2.0, 2.0],
      "ProtocolName": "cmrr_mbep2d_bold_2mm_MB8_Task_8x",
      "RepetitionTime": 785.0,
      "Rows": 936,
      "SAR": 0.12871793755899,
      "SamplesPerPixel": 1,
      "ScanOptions": [
        "PFP",
        "FS"
],
      "ScanningSequence": "EP",
      "SequenceName": "epfid2d1_104",
      "SequenceVariant": [
        "SK",
        "SS"
],
      "SeriesDescription": "cmrr_mbep2d_bold_2mm_MB8_Task_8x",
      "SeriesNumber": 27,
      "SeriesTime": "163909.390000",
      "SliceLocation": -90.822365202648,
      "SliceThickness": 2.0,
      "SmallestImagePixelValue": 0,
      "SoftwareVersions": "syngo MR B19",
      "SpacingBetweenSlices": 2.0000000600615,
      "SpecificCharacterSet": "ISO_IR 100",
      "StudyID": "1",
      "StudyTime": "144239.468000",
      "TransmitCoilName": "Body",
      "VariableFlipAngleFlag": "N",
      "WindowCenterWidthExplanation": "Algo1",
      "dBdt": 0.0},
    "slices": {}
  },
  "time": {
    "samples": {
      "AcquisitionNumber": [1, 2, 3, 4, 5, 6, 7, 8, 9, 10, 11, 12, 13, 14, 15, 16, 17, 18, 19, 20, 21, 22, 23, 24, 25, 26, 27, 28, 29, 30, 31, 32, 33, 34, 35, 36, 37, 38, 39, 40, 41, 42, 43, 44, 45, 46, 47, 48, 49, 50, 51, 52, 53, 54, 55, 56, 57, 58, 59, 60, 61, 62, 63, 64, 65, 66, 67, 68, 69, 70, 71, 72, 73, 74, 75, 76, 77, 78, 79, 80, 81, 82, 83, 84, 85, 86, 87, 88, 89, 90, 91, 92, 93, 94, 95, 96, 97, 98, 99, 100, 101, 102, 103, 104, 105, 106, 107, 108, 109, 110, 111, 112, 113, 114, 115, 116, 117, 118, 119, 120, 121, 122, 123, 124, 125, 126, 127, 128, 129, 130, 131, 132, 133, 134, 135, 136, 137, 138, 139, 140, 141, 142, 143, 144, 145, 146, 147, 148, 149, 150, 151, 152, 153, 154, 155, 156, 157, 158, 159, 160, 161, 162, 163, 164, 165, 166, 167, 168, 169, 170, 171, 172, 173, 174, 175, 176, 177, 178, 179, 180, 181, 182, 183, 184, 185, 186, 187, 188, 189, 190, 191, 192, 193, 194, 195, 196, 197, 198, 199, 200, 201, 202, 203, 204, 205, 206, 207, 208, 209, 210, 211, 212, 213, 214, 215, 216, 217, 218, 219, 220, 221, 222, 223, 224, 225, 226, 227, 228, 229, 230, 231, 232, 233, 234, 235, 236, 237, 238, 239, 240, 241, 242, 243, 244, 245, 246, 247, 248, 249, 250, 251, 252, 253, 254, 255, 256, 257, 258, 259, 260, 261, 262, 263, 264, 265, 266, 267, 268, 269, 270, 271, 272, 273, 274, 275, 276, 277, 278, 279, 280, 281, 282, 283, 284, 285, 286, 287, 288, 289, 290, 291, 292, 293, 294, 295, 296, 297, 298, 299, 300, 301, 302, 303, 304, 305, 306, 307, 308, 309, 310, 311, 312, 313, 314, 315, 316, 317, 318, 319, 320, 321, 322, 323, 324, 325, 326, 327, 328, 329, 330, 331, 332, 333, 334, 335, 336, 337, 338, 339, 340, 341, 342, 343, 344, 345, 346, 347, 348, 349, 350, 351, 352, 353, 354, 355, 356, 357, 358, 359, 360, 361, 362, 363, 364, 365, 366, 367, 368, 369, 370, 371, 372, 373, 374, 375, 376, 377, 378, 379, 380, 381, 382, 383, 384, 385, 386, 387, 388, 389, 390, 391, 392, 393, 394, 395, 396, 397, 398, 399, 400, 401, 402, 403, 404, 405, 406, 407, 408, 409, 410, 411, 412, 413, 414, 415, 416, 417, 418, 419, 420, 421, 422, 423, 424, 425, 426, 427, 428, 429, 430, 431, 432, 433, 434, 435, 436, 437, 438, 439, 440, 441, 442, 443, 444, 445, 446, 447, 448, 449, 450, 451, 452, 453, 454, 455, 456, 457, 458, 459, 460, 461, 462, 463, 464, 465, 466, 467, 468, 469, 470, 471, 472, 473, 474, 475, 476, 477, 478, 479, 480, 481, 482, 483, 484, 485, 486, 487, 488, 489, 490, 491, 492, 493, 494, 495, 496, 497, 498, 499, 500, 501, 502, 503, 504, 505, 506, 507, 508, 509, 510, 511, 512, 513, 514, 515, 516, 517, 518, 519, 520, 521, 522, 523, 524, 525, 526, 527, 528, 529, 530, 531, 532, 533, 534, 535, 536, 537, 538, 539, 540, 541, 542, 543, 544, 545, 546, 547, 548, 549, 550, 551, 552, 553, 554, 555, 556, 557, 558, 559, 560, 561, 562, 563, 564, 565, 566, 567, 568, 569, 570, 571, 572, 573, 574, 575, 576, 577, 578, 579, 580, 581],
      "AcquisitionTime": ["163851.725000", "163852.515000", "163853.302500", "163854.090000", "163854.877500", "163855.667500", "163856.455000", "163857.242500", "163858.032500", "163858.820000", "163859.607500", "163900.395000", "163901.185000", "163901.972500", "163902.760000", "163903.547500", "163904.337500", "163905.125000", "163905.912500", "163906.700000", "163907.490000", "163908.277500", "163909.065000", "163909.852500", "163910.642500", "163911.430000", "163912.217500", "163913.007500", "163913.795000", "163914.582500", "163915.370000", "163916.160000", "163916.947500", "163917.735000", "163918.522500", "163919.312500", "163920.100000", "163920.887500", "163921.675000", "163922.465000", "163923.252500", "163924.040000", "163924.827500", "163925.617500", "163926.405000", "163927.192500", "163927.980000", "163928.770000", "163929.557500", "163930.345000", "163931.135000", "163931.922500", "163932.710000", "163933.497500", "163934.287500", "163935.075000", "163935.862500", "163936.650000", "163937.440000", "163938.227500", "163939.015000", "163939.802500", "163940.592500", "163941.380000", "163942.167500", "163942.955000", "163943.745000", "163944.532500", "163945.320000", "163946.107500", "163946.897500", "163947.685000", "163948.472500", "163949.262500", "163950.050000", "163950.837500", "163951.625000", "163952.415000", "163953.202500", "163953.990000", "163954.777500", "163955.567500", "163956.355000", "163957.142500", "163957.930000", "163958.720000", "163959.507500", "164000.295000", "164001.082500", "164001.872500", "164002.660000", "164003.447500", "164004.235000", "164005.025000", "164005.812500", "164006.600000", "164007.390000", "164008.177500", "164008.965000", "164009.752500", "164010.542500", "164011.330000", "164012.117500", "164012.905000", "164013.695000", "164014.482500", "164015.270000", "164016.057500", "164016.847500", "164017.635000", "164018.422500", "164019.210000", "164020.000000", "164020.787500", "164021.575000", "164022.362500", "164023.152500", "164023.940000", "164024.727500", "164025.517500", "164026.305000", "164027.092500", "164027.880000", "164028.670000", "164029.457500", "164030.245000", "164031.032500", "164031.822500", "164032.610000", "164033.397500", "164034.185000", "164034.975000", "164035.762500", "164036.550000", "164037.337500", "164038.127500", "164038.915000", "164039.702500", "164040.490000", "164041.280000", "164042.067500", "164042.855000", "164043.645000", "164044.432500", "164045.220000", "164046.007500", "164046.797500", "164047.585000", "164048.372500", "164049.160000", "164049.950000", "164050.737500", "164051.525000", "164052.312500", "164053.102500", "164053.890000", "164054.677500", "164055.465000", "164056.255000", "164057.042500", "164057.830000", "164058.617500", "164059.407500", "164100.195000", "164100.982500", "164101.772500", "164102.560000", "164103.347500", "164104.135000", "164104.925000", "164105.712500", "164106.500000", "164107.287500", "164108.077500", "164108.865000", "164109.652500", "164110.440000", "164111.230000", "164112.017500", "164112.805000", "164113.592500", "164114.382500", "164115.170000", "164115.957500", "164116.745000", "164117.535000", "164118.322500", "164119.110000", "164119.900000", "164120.687500", "164121.475000", "164122.262500", "164123.052500", "164123.840000", "164124.627500", "164125.415000", "164126.205000", "164126.992500", "164127.780000", "164128.567500", "164129.357500", "164130.145000", "164130.932500", "164131.720000", "164132.510000", "164133.297500", "164134.085000", "164134.872500", "164135.662500", "164136.450000", "164137.237500", "164138.027500", "164138.815000", "164139.602500", "164140.390000", "164141.180000", "164141.967500", "164142.755000", "164143.542500", "164144.332500", "164145.120000", "164145.907500", "164146.695000", "164147.485000", "164148.272500", "164149.060000", "164149.847500", "164150.637500", "164151.425000", "164152.212500", "164153.000000", "164153.790000", "164154.577500", "164155.365000", "164156.155000", "164156.942500", "164157.730000", "164158.517500", "164159.307500", "164200.095000", "164200.882500", "164201.670000", "164202.460000", "164203.247500", "164204.035000", "164204.822500", "164205.612500", "164206.400000", "164207.187500", "164207.975000", "164208.765000", "164209.552500", "164210.340000", "164211.127500", "164211.917500", "164212.705000", "164213.492500", "164214.282500", "164215.070000", "164215.857500", "164216.645000", "164217.435000", "164218.222500", "164219.010000", "164219.797500", "164220.587500", "164221.375000", "164222.162500", "164222.950000", "164223.740000", "164224.527500", "164225.315000", "164226.102500", "164226.892500", "164227.680000", "164228.467500", "164229.257500", "164230.045000", "164230.832500", "164231.620000", "164232.410000", "164233.197500", "164233.985000", "164234.772500", "164235.562500", "164236.350000", "164237.137500", "164237.925000", "164238.715000", "164239.502500", "164240.290000", "164241.077500", "164241.867500", "164242.655000", "164243.442500", "164244.230000", "164245.020000", "164245.807500", "164246.595000", "164247.385000", "164248.172500", "164248.960000", "164249.747500", "164250.537500", "164251.325000", "164252.112500", "164252.900000", "164253.690000", "164254.477500", "164255.265000", "164256.052500", "164256.842500", "164257.630000", "164258.417500", "164259.205000", "164259.995000", "164300.782500", "164301.570000", "164302.357500", "164303.147500", "164303.935000", "164304.722500", "164305.512500", "164306.300000", "164307.087500", "164307.875000", "164308.665000", "164309.452500", "164310.240000", "164311.027500", "164311.817500", "164312.605000", "164313.392500", "164314.180000", "164314.970000", "164315.757500", "164316.545000", "164317.332500", "164318.122500", "164318.910000", "164319.697500", "164320.485000", "164321.275000", "164322.062500", "164322.850000", "164323.640000", "164324.427500", "164325.215000", "164326.002500", "164326.792500", "164327.580000", "164328.367500", "164329.155000", "164329.945000", "164330.732500", "164331.520000", "164332.307500", "164333.097500", "164333.885000", "164334.672500", "164335.460000", "164336.250000", "164337.037500", "164337.825000", "164338.612500", "164339.402500", "164340.190000", "164340.977500", "164341.767500", "164342.555000", "164343.342500", "164344.130000", "164344.920000", "164345.707500", "164346.495000", "164347.282500", "164348.072500", "164348.860000", "164349.647500", "164350.435000", "164351.225000", "164352.012500", "164352.800000", "164353.587500", "164354.377500", "164355.165000", "164355.952500", "164356.740000", "164357.530000", "164358.317500", "164359.105000", "164359.895000", "164400.682500", "164401.470000", "164402.257500", "164403.047500", "164403.835000", "164404.622500", "164405.410000", "164406.200000", "164406.987500", "164407.775000", "164408.562500", "164409.352500", "164410.140000", "164410.927500", "164411.715000", "164412.505000", "164413.292500", "164414.080000", "164414.867500", "164415.657500", "164416.445000", "164417.232500", "164418.022500", "164418.810000", "164419.597500", "164420.385000", "164421.175000", "164421.962500", "164422.750000", "164423.537500", "164424.327500", "164425.115000", "164425.902500", "164426.690000", "164427.480000", "164428.267500", "164429.055000", "164429.842500", "164430.632500", "164431.420000", "164432.207500", "164432.995000", "164433.785000", "164434.572500", "164435.360000", "164436.150000", "164436.937500", "164437.725000", "164438.512500", "164439.302500", "164440.090000", "164440.877500", "164441.665000", "164442.455000", "164443.242500", "164444.030000", "164444.817500", "164445.607500", "164446.395000", "164447.182500", "164447.970000", "164448.760000", "164449.547500", "164450.335000", "164451.122500", "164451.912500", "164452.700000", "164453.487500", "164454.277500", "164455.065000", "164455.852500", "164456.640000", "164457.430000", "164458.217500", "164459.005000", "164459.792500", "164500.582500", "164501.370000", "164502.157500", "164502.945000", "164503.735000", "164504.522500", "164505.310000", "164506.097500", "164506.887500", "164507.675000", "164508.462500", "164509.250000", "164510.040000", "164510.827500", "164511.615000", "164512.405000", "164513.192500", "164513.980000", "164514.767500", "164515.557500", "164516.345000", "164517.132500", "164517.920000", "164518.710000", "164519.497500", "164520.285000", "164521.072500", "164521.862500", "164522.650000", "164523.437500", "164524.225000", "164525.015000", "164525.802500", "164526.590000", "164527.377500", "164528.167500", "164528.955000", "164529.742500", "164530.532500", "164531.320000", "164532.107500", "164532.895000", "164533.685000", "164534.472500", "164535.260000", "164536.047500", "164536.837500", "164537.625000", "164538.412500", "164539.200000", "164539.990000", "164540.777500", "164541.565000", "164542.352500", "164543.142500", "164543.930000", "164544.717500", "164545.507500", "164546.295000", "164547.082500", "164547.870000", "164548.660000", "164549.447500", "164550.235000", "164551.022500", "164551.812500", "164552.600000", "164553.387500", "164554.175000", "164554.965000", "164555.752500", "164556.540000", "164557.327500", "164558.117500", "164558.905000", "164559.692500", "164600.480000", "164601.270000", "164602.057500", "164602.845000", "164603.635000", "164604.422500", "164605.210000", "164605.997500", "164606.787500", "164607.575000", "164608.362500", "164609.150000", "164609.940000", "164610.727500", "164611.515000", "164612.302500", "164613.092500", "164613.880000", "164614.667500", "164615.455000", "164616.245000", "164617.032500", "164617.820000", "164618.607500", "164619.397500", "164620.185000", "164620.972500", "164621.762500", "164622.550000", "164623.337500", "164624.125000", "164624.915000", "164625.702500", "164626.490000", "164627.277500", "164628.067500", "164628.855000"],
      "ContentTime": ["163909.390000", "163909.390000", "163909.390000", "163909.390000", "163909.406000", "163909.406000", "163909.406000", "163909.406000", "163909.406000", "163909.406000", "163909.406000", "163909.421000", "163909.421000", "163909.421000", "163909.421000", "163909.421000", "163909.421000", "163909.421000", "163909.437000", "163929.359000", "163929.359000", "163929.359000", "163929.359000", "163929.359000", "163929.359000", "163929.375000", "163929.375000", "163929.375000", "163929.375000", "163929.375000", "163929.375000", "163929.375000", "163929.390000", "163929.390000", "163929.390000", "163929.390000", "163929.390000", "163929.390000", "163929.406000", "163929.406000", "163929.406000", "163929.406000", "163929.406000", "163929.406000", "163929.406000", "163949.359000", "163949.359000", "163949.359000", "163949.359000", "163949.359000", "163949.359000", "163949.375000", "163949.375000", "163949.375000", "163949.375000", "163949.375000", "163949.375000", "163949.390000", "163949.390000", "163949.390000", "163949.390000", "163949.390000", "163949.390000", "163949.390000", "163949.406000", "163949.406000", "163949.406000", "163949.406000", "163949.406000", "163949.421000", "164009.359000", "164009.359000", "164009.359000", "164009.359000", "164009.359000", "164009.359000", "164009.375000", "164009.375000", "164009.375000", "164009.375000", "164009.375000", "164009.390000", "164009.390000", "164009.390000", "164009.390000", "164009.390000", "164009.390000", "164009.406000", "164009.406000", "164009.406000", "164009.406000", "164009.406000", "164009.406000", "164009.421000", "164009.421000", "164009.421000", "164029.359000", "164029.359000", "164029.359000", "164029.359000", "164029.359000", "164029.359000", "164029.375000", "164029.375000", "164029.375000", "164029.375000", "164029.375000", "164029.375000", "164029.375000", "164029.390000", "164029.390000", "164029.390000", "164029.390000", "164029.390000", "164029.390000", "164029.390000", "164029.406000", "164029.406000", "164029.406000", "164029.406000", "164029.421000", "164049.359000", "164049.359000", "164049.359000", "164049.359000", "164049.359000", "164049.359000", "164049.375000", "164049.375000", "164049.375000", "164049.375000", "164049.375000", "164049.375000", "164049.375000", "164049.390000", "164049.390000", "164049.390000", "164049.390000", "164049.390000", "164049.390000", "164049.390000", "164049.406000", "164049.406000", "164049.406000", "164049.406000", "164049.406000", "164109.359000", "164109.359000", "164109.359000", "164109.359000", "164109.359000", "164109.375000", "164109.375000", "164109.375000", "164109.375000", "164109.375000", "164109.375000", "164109.375000", "164109.390000", "164109.390000", "164109.390000", "164109.390000", "164109.390000", "164109.390000", "164109.390000", "164109.406000", "164109.406000", "164109.406000", "164109.406000", "164109.406000", "164109.406000", "164109.406000", "164129.359000", "164129.359000", "164129.359000", "164129.359000", "164129.359000", "164129.359000", "164129.375000", "164129.375000", "164129.375000", "164129.375000", "164129.375000", "164129.390000", "164129.406000", "164129.406000", "164129.406000", "164129.406000", "164129.406000", "164129.406000", "164129.406000", "164129.421000", "164129.421000", "164129.421000", "164129.421000", "164129.421000", "164129.421000", "164149.359000", "164149.359000", "164149.359000", "164149.359000", "164149.359000", "164149.359000", "164149.375000", "164149.375000", "164149.375000", "164149.375000", "164149.375000", "164149.375000", "164149.375000", "164149.390000", "164149.390000", "164149.390000", "164149.390000", "164149.390000", "164149.390000", "164149.390000", "164149.406000", "164149.406000", "164149.406000", "164149.406000", "164149.406000", "164149.406000", "164209.359000", "164209.359000", "164209.375000", "164209.375000", "164209.375000", "164209.375000", "164209.390000", "164209.390000", "164209.390000", "164209.390000", "164209.406000", "164209.406000", "164209.406000", "164209.406000", "164209.406000", "164209.406000", "164209.421000", "164209.421000", "164209.421000", "164209.421000", "164209.421000", "164209.421000", "164209.421000", "164209.437000", "164209.437000", "164229.359000", "164229.359000", "164229.359000", "164229.359000", "164229.359000", "164229.375000", "164229.375000", "164229.375000", "164229.375000", "164229.375000", "164229.375000", "164229.375000", "164229.390000", "164229.390000", "164229.390000", "164229.390000", "164229.390000", "164229.390000", "164229.390000", "164229.406000", "164229.406000", "164229.406000", "164229.406000", "164229.406000", "164229.406000", "164229.406000", "164249.359000", "164249.359000", "164249.359000", "164249.359000", "164249.359000", "164249.359000", "164249.375000", "164249.375000", "164249.375000", "164249.375000", "164249.375000", "164249.390000", "164249.390000", "164249.390000", "164249.390000", "164249.390000", "164249.390000", "164249.406000", "164249.406000", "164249.406000", "164249.406000", "164249.406000", "164249.406000", "164249.421000", "164249.421000", "164309.359000", "164309.359000", "164309.359000", "164309.359000", "164309.359000", "164309.359000", "164309.375000", "164309.375000", "164309.375000", "164309.375000", "164309.375000", "164309.390000", "164309.390000", "164309.390000", "164309.390000", "164309.390000", "164309.390000", "164309.390000", "164309.406000", "164309.406000", "164309.406000", "164309.406000", "164309.406000", "164309.406000", "164309.406000", "164309.421000", "164329.359000", "164329.359000", "164329.359000", "164329.359000", "164329.359000", "164329.359000", "164329.375000", "164329.375000", "164329.375000", "164329.375000", "164329.375000", "164329.375000", "164329.375000", "164329.390000", "164329.390000", "164329.390000", "164329.390000", "164329.390000", "164329.390000", "164329.390000", "164329.406000", "164329.406000", "164329.406000", "164329.406000", "164329.406000", "164349.359000", "164349.359000", "164349.359000", "164349.359000", "164349.359000", "164349.359000", "164349.375000", "164349.375000", "164349.375000", "164349.375000", "164349.375000", "164349.375000", "164349.390000", "164349.390000", "164349.390000", "164349.390000", "164349.390000", "164349.390000", "164349.390000", "164349.406000", "164349.406000", "164349.406000", "164349.406000", "164349.406000", "164349.406000", "164349.421000", "164409.359000", "164409.359000", "164409.359000", "164409.359000", "164409.359000", "164409.375000", "164409.375000", "164409.375000", "164409.375000", "164409.375000", "164409.375000", "164409.375000", "164409.390000", "164409.390000", "164409.390000", "164409.390000", "164409.390000", "164409.390000", "164409.390000", "164409.406000", "164409.406000", "164409.406000", "164409.406000", "164409.406000", "164409.406000", "164429.359000", "164429.359000", "164429.359000", "164429.359000", "164429.359000", "164429.359000", "164429.375000", "164429.375000", "164429.375000", "164429.375000", "164429.375000", "164429.375000", "164429.390000", "164429.390000", "164429.390000", "164429.390000", "164429.390000", "164429.390000", "164429.390000", "164429.406000", "164429.406000", "164429.406000", "164429.406000", "164429.406000", "164429.406000", "164429.406000", "164449.359000", "164449.359000", "164449.359000", "164449.359000", "164449.359000", "164449.375000", "164449.375000", "164449.375000", "164449.375000", "164449.375000", "164449.375000", "164449.375000", "164449.390000", "164449.390000", "164449.390000", "164449.390000", "164449.390000", "164449.390000", "164449.390000", "164449.406000", "164449.406000", "164449.406000", "164449.406000", "164449.406000", "164449.406000", "164509.359000", "164509.359000", "164509.359000", "164509.359000", "164509.359000", "164509.359000", "164509.375000", "164509.375000", "164509.375000", "164509.375000", "164509.375000", "164509.375000", "164509.390000", "164509.390000", "164509.390000", "164509.390000", "164509.390000", "164509.390000", "164509.390000", "164509.406000", "164509.406000", "164509.406000", "164509.406000", "164509.406000", "164509.406000", "164509.406000", "164529.359000", "164529.359000", "164529.359000", "164529.359000", "164529.359000", "164529.359000", "164529.375000", "164529.375000", "164529.375000", "164529.375000", "164529.375000", "164529.375000", "164529.390000", "164529.390000", "164529.390000", "164529.390000", "164529.390000", "164529.390000", "164529.406000", "164529.406000", "164529.406000", "164529.406000", "164529.421000", "164529.421000", "164529.421000", "164549.359000", "164549.359000", "164549.359000", "164549.359000", "164549.359000", "164549.375000", "164549.375000", "164549.375000", "164549.375000", "164549.375000", "164549.375000", "164549.375000", "164549.390000", "164549.390000", "164549.390000", "164549.390000", "164549.390000", "164549.390000", "164549.390000", "164549.406000", "164549.406000", "164549.406000", "164549.406000", "164549.406000", "164549.406000", "164549.406000", "164609.359000", "164609.359000", "164609.359000", "164609.359000", "164609.359000", "164609.359000", "164609.375000", "164609.375000", "164609.375000", "164609.375000", "164609.375000", "164609.375000", "164609.375000", "164609.390000", "164609.390000", "164609.390000", "164609.390000", "164609.390000", "164609.390000", "164609.406000", "164609.406000", "164609.406000", "164609.406000", "164609.406000", "164609.406000", "164629.359000", "164629.359000", "164629.359000", "164629.359000", "164629.359000", "164629.359000", "164629.375000", "164629.375000", "164629.375000", "164629.375000", "164629.375000", "164629.375000", "164629.390000", "164629.390000", "164629.390000", "164629.390000", "164629.390000", "164629.390000", "164629.390000", "164629.406000", "164629.406000", "164629.406000", "164629.406000", "164629.406000", "164629.406000", "164629.406000", "164630.093000"],
      "DataSetTrailingPadding": [
        "\u0000\u0000\u0000\u0000\u0000\u0000\u0000\u0000\u0000\u0000\u0000\u0000\u0000\u0000\u0000\u0000\u0000\u0000\u0000\u0000\u0000\u0000\u0000\u0000\u0000\u0000\u0000\u0000\u0000\u0000\u0000\u0000\u0000\u0000\u0000\u0000\u0000\u0000\u0000\u0000\u0000\u0000\u0000\u0000\u0000\u0000\u0000\u0000\u0000\u0000\u0000\u0000\u0000\u0000\u0000\u0000\u0000\u0000\u0000\u0000\u0000\u0000\u0000\u0000\u0000\u0000\u0000\u0000\u0000\u0000\u0000\u0000\u0000\u0000\u0000\u0000\u0000\u0000\u0000\u0000\u0000\u0000\u0000\u0000\u0000\u0000\u0000\u0000\u0000\u0000\u0000\u0000\u0000\u0000\u0000\u0000\u0000\u0000\u0000\u0000\u0000\u0000\u0000\u0000\u0000\u0000\u0000\u0000\u0000\u0000\u0000\u0000\u0000\u0000\u0000\u0000\u0000\u0000\u0000\u0000\u0000\u0000\u0000\u0000\u0000\u0000\u0000\u0000\u0000\u0000\u0000\u0000\u0000\u0000\u0000\u0000\u0000\u0000\u0000\u0000\u0000\u0000\u0000\u0000\u0000\u0000\u0000\u0000\u0000\u0000\u0000\u0000\u0000\u0000\u0000\u0000",
        "\u0000\u0000\u0000\u0000\u0000\u0000\u0000\u0000\u0000\u0000\u0000\u0000\u0000\u0000\u0000\u0000\u0000\u0000\u0000\u0000\u0000\u0000\u0000\u0000\u0000\u0000\u0000\u0000\u0000\u0000\u0000\u0000\u0000\u0000\u0000\u0000\u0000\u0000\u0000\u0000\u0000\u0000\u0000\u0000\u0000\u0000\u0000\u0000\u0000\u0000\u0000\u0000\u0000\u0000\u0000\u0000\u0000\u0000\u0000\u0000\u0000\u0000\u0000\u0000\u0000\u0000\u0000\u0000\u0000\u0000\u0000\u0000\u0000\u0000\u0000\u0000\u0000\u0000\u0000\u0000\u0000\u0000\u0000\u0000\u0000\u0000\u0000\u0000\u0000\u0000\u0000\u0000\u0000\u0000\u0000\u0000\u0000\u0000\u0000\u0000\u0000\u0000\u0000\u0000\u0000\u0000\u0000\u0000\u0000\u0000\u0000\u0000\u0000\u0000\u0000\u0000\u0000\u0000\u0000\u0000\u0000\u0000\u0000\u0000\u0000\u0000\u0000\u0000\u0000\u0000\u0000\u0000\u0000\u0000\u0000\u0000\u0000\u0000\u0000\u0000\u0000\u0000\u0000\u0000\u0000\u0000\u0000\u0000\u0000\u0000\u0000\u0000\u0000\u0000",
