{
  "AcquisitionMatrixPE": 104,
  "AcquisitionNumber": 1,
  "AcquisitionTime": "11:06:4.792500",
  "BandwidthPerPixelPhaseEncode": 13.935,
  "BaseResolution": 104,
  "CoilString": "C:HEA;HEP",
  "ConversionSoftware": "dcm2niix",
  "ConversionSoftwareVersion": "v1.0.20210317",
  "DerivedVendorReportedEchoSpacing": 0.000690017,
  "DeviceSerialNumber": "35450",
  "DwellTime": 2.5e-06,
  "EchoTime": 0.0348,
  "EffectiveEchoSpacing": 0.000690017,
  "FlipAngle": 55,
  "ImageComments": "Unaliased MB8/PE3 (remote)",
  "ImageOrientationPatientDICOM": [0.999886, 0.00055304, 0.0150886, 1.32634e-08, 0.999329, -0.0366291],
  "ImageType": [
    "ORIGINAL",
    "PRIMARY",
    "M",
    "MB",
    "ND",
    "MOSAIC"
],
  "ImagingFrequency": 123.234,
  "InPlanePhaseEncodingDirectionDICOM": "COL",
  "InstitutionAddress": "Univeristy Ave. 197,Newark,North East,US,07102-1814",
  "InstitutionName": "RUBIC",
  "InstitutionalDepartmentName": "Department",
  "MRAcquisitionType": "2D",
  "MagneticFieldStrength": 3,
  "Manufacturer": "Siemens",
  "ManufacturersModelName": "TrioTim",
  "Modality": "MR",
  "MultibandAccelerationFactor": 8,
  "PartialFourier": 0.875,
  "PatientPosition": "HFS",
  "PercentPhaseFOV": 100,
  "PercentSampling": 100,
  "PhaseEncodingDirection": "j-",
  "PhaseEncodingSteps": 91,
  "PhaseResolution": 1,
  "PixelBandwidth": 1923,
  "ProcedureStepDescription": "Cole^Michael",
  "ProtocolName": "cmrr_mbep2d_bold_2mm_MB8_Task_8x",
  "PulseSequenceDetails": "%CustomerSeq%\\cmrr_mbep2d_bold",
  "ReceiveCoilName": "32Ch_Head",
  "ReconMatrixPE": 104,
  "RepetitionTime": 0.785,
  "SAR": 0.139344,
  "ScanOptions": "PFP\\FS",
  "ScanningSequence": "EP",
  "SequenceName": "epfid2d1_104",
  "SequenceVariant": "SK\\SS",
  "SeriesDescription": "cmrr_mbep2d_bold_2mm_MB8_Task_8x",
  "SeriesNumber": 15,
  "ShimSetting": [2118, -386, -7275, 438, -103, -139, 350, 56],
  "SliceThickness": 2,
  "SliceTiming": [0, 0.4375, 0.0875, 0.525, 0.175, 0.6125, 0.2625, 0.7, 0.35, 0, 0.4375, 0.0875, 0.525, 0.175, 0.6125, 0.2625, 0.7, 0.35, 0, 0.4375, 0.0875, 0.525, 0.175, 0.6125, 0.2625, 0.7, 0.35, 0, 0.4375, 0.0875, 0.525, 0.175, 0.6125, 0.2625, 0.7, 0.35, 0, 0.4375, 0.0875, 0.525, 0.175, 0.6125, 0.2625, 0.7, 0.35, 0, 0.4375, 0.0875, 0.525, 0.175, 0.6125, 0.2625, 0.7, 0.35, 0, 0.4375, 0.0875, 0.525, 0.175, 0.6125, 0.2625, 0.7, 0.35, 0, 0.4375, 0.0875, 0.525, 0.175, 0.6125, 0.2625, 0.7, 0.35],
  "SoftwareVersions": "syngo MR B19",
  "SpacingBetweenSlices": 2,
  "StationName": "MRC35450",
  "TaskName": "cpro",
  "TotalReadoutTime": 0.0710717,
  "TxRefAmp": 356.05,
  "dcmmeta_affine": [
    [-1.999772071838379, 2.6526775442903272e-08, 0.03019750863313675, 104.38231658935547],
    [-0.001106079900637269, 1.9986578226089478, -0.07324977219104767, -79.66737365722656],
    [0.030177244916558266, 0.07325812429189682, 1.9984300136566162, -84.29165649414062],
    [0.0, 0.0, 0.0, 1.0]
],
  "dcmmeta_reorient_transform": [
    [0.0, -1.0, 0.0, 103.0],
    [1.0, 0.0, 0.0, 0.0],
    [0.0, 0.0, 1.0, 0.0],
    [0.0, 0.0, 0.0, 1.0]
],
  "dcmmeta_shape": [104, 104, 72, 581],
  "dcmmeta_slice_dim": 2,
  "dcmmeta_version": 0.6,
  "global": {
    "const": {
      "AcquisitionMatrix": [104, 0, 0, 104],
      "AngioFlag": "N",
      "BitsAllocated": 16,
      "BitsStored": 12,
      "Columns": 936,
      "EchoNumbers": 1,
      "EchoTime": 34.8,
      "EchoTrainLength": 1,
      "FlipAngle": 55.0,
      "HighBit": 11,
      "ImageOrientationPatient": [0.99988600731811, 0.00055303994747, 0.01508862207974, 1.3263388e-08, 0.99932893072312, -0.0366290625021],
      "ImagePositionPatient": [-936.28748641282, -958.09618195734, -58.824422483867],
      "ImageType": [
        "ORIGINAL",
        "PRIMARY",
        "M",
        "MB",
        "ND",
        "MOSAIC"
],
      "ImagedNucleus": "1H",
      "ImagingFrequency": 123.234407,
      "InPlanePhaseEncodingDirection": "COL",
      "MRAcquisitionType": "2D",
      "MagneticFieldStrength": 3.0,
      "Manufacturer": "SIEMENS",
      "ManufacturerModelName": "TrioTim",
      "Modality": "MR",
      "NumberOfAverages": 1.0,
      "NumberOfPhaseEncodingSteps": 91,
      "PercentPhaseFieldOfView": 100.0,
      "PercentSampling": 100.0,
      "PerformedProcedureStepStartTime": "093541.859000",
      "PhotometricInterpretation": "MONOCHROME2",
      "PixelBandwidth": 1923.0,
      "PixelRepresentation": 0,
      "PixelSpacing": [2.0, 2.0],
      "ProtocolName": "cmrr_mbep2d_bold_2mm_MB8_Task_8x",
      "RepetitionTime": 785.0,
      "Rows": 936,
      "SAR": 0.13934430259307,
      "SamplesPerPixel": 1,
      "ScanOptions": [
        "PFP",
        "FS"
],
      "ScanningSequence": "EP",
      "SequenceName": "epfid2d1_104",
      "SequenceVariant": [
        "SK",
        "SS"
],
      "SeriesDescription": "cmrr_mbep2d_bold_2mm_MB8_Task_8x",
      "SeriesNumber": 15,
      "SeriesTime": "110628.593000",
      "SliceLocation": -79.731636472144,
      "SliceThickness": 2.0,
      "SmallestImagePixelValue": 0,
      "SoftwareVersions": "syngo MR B19",
      "SpacingBetweenSlices": 2.0000000355515,
      "SpecificCharacterSet": "ISO_IR 100",
      "StudyID": "1",
      "StudyTime": "093541.765000",
      "TransmitCoilName": "Body",
      "VariableFlipAngleFlag": "N",
      "WindowCenterWidthExplanation": "Algo1",
      "dBdt": 0.0},
    "slices": {}
  },
  "time": {
    "samples": {
      "AcquisitionNumber": [1, 2, 3, 4, 5, 6, 7, 8, 9, 10, 11, 12, 13, 14, 15, 16, 17, 18, 19, 20, 21, 22, 23, 24, 25, 26, 27, 28, 29, 30, 31, 32, 33, 34, 35, 36, 37, 38, 39, 40, 41, 42, 43, 44, 45, 46, 47, 48, 49, 50, 51, 52, 53, 54, 55, 56, 57, 58, 59, 60, 61, 62, 63, 64, 65, 66, 67, 68, 69, 70, 71, 72, 73, 74, 75, 76, 77, 78, 79, 80, 81, 82, 83, 84, 85, 86, 87, 88, 89, 90, 91, 92, 93, 94, 95, 96, 97, 98, 99, 100, 101, 102, 103, 104, 105, 106, 107, 108, 109, 110, 111, 112, 113, 114, 115, 116, 117, 118, 119, 120, 121, 122, 123, 124, 125, 126, 127, 128, 129, 130, 131, 132, 133, 134, 135, 136, 137, 138, 139, 140, 141, 142, 143, 144, 145, 146, 147, 148, 149, 150, 151, 152, 153, 154, 155, 156, 157, 158, 159, 160, 161, 162, 163, 164, 165, 166, 167, 168, 169, 170, 171, 172, 173, 174, 175, 176, 177, 178, 179, 180, 181, 182, 183, 184, 185, 186, 187, 188, 189, 190, 191, 192, 193, 194, 195, 196, 197, 198, 199, 200, 201, 202, 203, 204, 205, 206, 207, 208, 209, 210, 211, 212, 213, 214, 215, 216, 217, 218, 219, 220, 221, 222, 223, 224, 225, 226, 227, 228, 229, 230, 231, 232, 233, 234, 235, 236, 237, 238, 239, 240, 241, 242, 243, 244, 245, 246, 247, 248, 249, 250, 251, 252, 253, 254, 255, 256, 257, 258, 259, 260, 261, 262, 263, 264, 265, 266, 267, 268, 269, 270, 271, 272, 273, 274, 275, 276, 277, 278, 279, 280, 281, 282, 283, 284, 285, 286, 287, 288, 289, 290, 291, 292, 293, 294, 295, 296, 297, 298, 299, 300, 301, 302, 303, 304, 305, 306, 307, 308, 309, 310, 311, 312, 313, 314, 315, 316, 317, 318, 319, 320, 321, 322, 323, 324, 325, 326, 327, 328, 329, 330, 331, 332, 333, 334, 335, 336, 337, 338, 339, 340, 341, 342, 343, 344, 345, 346, 347, 348, 349, 350, 351, 352, 353, 354, 355, 356, 357, 358, 359, 360, 361, 362, 363, 364, 365, 366, 367, 368, 369, 370, 371, 372, 373, 374, 375, 376, 377, 378, 379, 380, 381, 382, 383, 384, 385, 386, 387, 388, 389, 390, 391, 392, 393, 394, 395, 396, 397, 398, 399, 400, 401, 402, 403, 404, 405, 406, 407, 408, 409, 410, 411, 412, 413, 414, 415, 416, 417, 418, 419, 420, 421, 422, 423, 424, 425, 426, 427, 428, 429, 430, 431, 432, 433, 434, 435, 436, 437, 438, 439, 440, 441, 442, 443, 444, 445, 446, 447, 448, 449, 450, 451, 452, 453, 454, 455, 456, 457, 458, 459, 460, 461, 462, 463, 464, 465, 466, 467, 468, 469, 470, 471, 472, 473, 474, 475, 476, 477, 478, 479, 480, 481, 482, 483, 484, 485, 486, 487, 488, 489, 490, 491, 492, 493, 494, 495, 496, 497, 498, 499, 500, 501, 502, 503, 504, 505, 506, 507, 508, 509, 510, 511, 512, 513, 514, 515, 516, 517, 518, 519, 520, 521, 522, 523, 524, 525, 526, 527, 528, 529, 530, 531, 532, 533, 534, 535, 536, 537, 538, 539, 540, 541, 542, 543, 544, 545, 546, 547, 548, 549, 550, 551, 552, 553, 554, 555, 556, 557, 558, 559, 560, 561, 562, 563, 564, 565, 566, 567, 568, 569, 570, 571, 572, 573, 574, 575, 576, 577, 578, 579, 580, 581],
      "AcquisitionTime": ["110604.792500", "110605.580000", "110606.367500", "110607.155000", "110607.945000", "110608.732500", "110609.520000", "110610.307500", "110611.097500", "110611.885000", "110612.672500", "110613.460000", "110614.250000", "110615.037500", "110615.825000", "110616.612500", "110617.402500", "110618.190000", "110618.977500", "110619.765000", "110620.555000", "110621.342500", "110622.130000", "110622.920000", "110623.707500", "110624.495000", "110625.282500", "110626.072500", "110626.860000", "110627.647500", "110628.435000", "110629.225000", "110630.012500", "110630.800000", "110631.587500", "110632.377500", "110633.165000", "110633.952500", "110634.740000", "110635.530000", "110636.317500", "110637.105000", "110637.895000", "110638.682500", "110639.470000", "110640.257500", "110641.047500", "110641.835000", "110642.622500", "110643.410000", "110644.200000", "110644.987500", "110645.775000", "110646.562500", "110647.352500", "110648.140000", "110648.927500", "110649.715000", "110650.505000", "110651.292500", "110652.080000", "110652.867500", "110653.657500", "110654.445000", "110655.232500", "110656.022500", "110656.810000", "110657.597500", "110658.385000", "110659.175000", "110659.962500", "110700.750000", "110701.537500", "110702.327500", "110703.115000", "110703.902500", "110704.690000", "110705.480000", "110706.267500", "110707.055000", "110707.842500", "110708.632500", "110709.420000", "110710.207500", "110710.995000", "110711.785000", "110712.572500", "110713.360000", "110714.150000", "110714.937500", "110715.725000", "110716.512500", "110717.302500", "110718.090000", "110718.877500", "110719.665000", "110720.455000", "110721.242500", "110722.030000", "110722.817500", "110723.607500", "110724.395000", "110725.182500", "110725.970000", "110726.760000", "110727.547500", "110728.335000", "110729.122500", "110729.912500", "110730.700000", "110731.487500", "110732.277500", "110733.065000", "110733.852500", "110734.640000", "110735.430000", "110736.217500", "110737.005000", "110737.792500", "110738.582500", "110739.370000", "110740.157500", "110740.945000", "110741.735000", "110742.522500", "110743.310000", "110744.097500", "110744.887500", "110745.675000", "110746.462500", "110747.250000", "110748.040000", "110748.827500", "110749.615000", "110750.405000", "110751.192500", "110751.980000", "110752.767500", "110753.557500", "110754.345000", "110755.132500", "110755.920000", "110756.710000", "110757.497500", "110758.285000", "110759.072500", "110759.862500", "110800.650000", "110801.437500", "110802.225000", "110803.015000", "110803.802500", "110804.590000", "110805.377500", "110806.167500", "110806.955000", "110807.742500", "110808.532500", "110809.320000", "110810.107500", "110810.895000", "110811.685000", "110812.472500", "110813.260000", "110814.047500", "110814.837500", "110815.625000", "110816.412500", "110817.200000", "110817.990000", "110818.777500", "110819.565000", "110820.352500", "110821.142500", "110821.930000", "110822.717500", "110823.505000", "110824.295000", "110825.082500", "110825.870000", "110826.660000", "110827.447500", "110828.235000", "110829.022500", "110829.812500", "110830.600000", "110831.387500", "110832.175000", "110832.965000", "110833.752500", "110834.540000", "110835.327500", "110836.117500", "110836.905000", "110837.692500", "110838.480000", "110839.270000", "110840.057500", "110840.845000", "110841.632500", "110842.422500", "110843.210000", "110843.997500", "110844.787500", "110845.575000", "110846.362500", "110847.150000", "110847.940000", "110848.727500", "110849.515000", "110850.302500", "110851.092500", "110851.880000", "110852.667500", "110853.455000", "110854.245000", "110855.032500", "110855.820000", "110856.607500", "110857.397500", "110858.185000", "110858.972500", "110859.760000", "110900.550000", "110901.337500", "110902.125000", "110902.915000", "110903.702500", "110904.490000", "110905.277500", "110906.067500", "110906.855000", "110907.642500", "110908.430000", "110909.220000", "110910.007500", "110910.795000", "110911.582500", "110912.372500", "110913.160000", "110913.947500", "110914.735000", "110915.525000", "110916.312500", "110917.100000", "110917.887500", "110918.677500", "110919.465000", "110920.252500", "110921.042500", "110921.830000", "110922.617500", "110923.405000", "110924.195000", "110924.982500", "110925.770000", "110926.557500", "110927.347500", "110928.135000", "110928.922500", "110929.710000", "110930.500000", "110931.287500", "110932.075000", "110932.862500", "110933.652500", "110934.440000", "110935.227500", "110936.015000", "110936.805000", "110937.592500", "110938.380000", "110939.170000", "110939.957500", "110940.745000", "110941.532500", "110942.322500", "110943.110000", "110943.897500", "110944.685000", "110945.475000", "110946.262500", "110947.050000", "110947.837500", "110948.627500", "110949.415000", "110950.202500", "110950.990000", "110951.780000", "110952.567500", "110953.355000", "110954.145000", "110954.932500", "110955.720000", "110956.507500", "110957.297500", "110958.085000", "110958.872500", "110959.660000", "111000.450000", "111001.237500", "111002.025000", "111002.812500", "111003.602500", "111004.390000", "111005.177500", "111005.965000", "111006.755000", "111007.542500", "111008.330000", "111009.117500", "111009.907500", "111010.695000", "111011.482500", "111012.272500", "111013.060000", "111013.847500", "111014.635000", "111015.425000", "111016.212500", "111017.000000", "111017.787500", "111018.577500", "111019.365000", "111020.152500", "111020.940000", "111021.730000", "111022.517500", "111023.305000", "111024.092500", "111024.882500", "111025.670000", "111026.457500", "111027.245000", "111028.035000", "111028.822500", "111029.610000", "111030.400000", "111031.187500", "111031.975000", "111032.762500", "111033.552500", "111034.340000", "111035.127500", "111035.915000", "111036.705000", "111037.492500", "111038.280000", "111039.067500", "111039.857500", "111040.645000", "111041.432500", "111042.220000", "111043.010000", "111043.797500", "111044.585000", "111045.372500", "111046.162500", "111046.950000", "111047.737500", "111048.527500", "111049.315000", "111050.102500", "111050.890000", "111051.680000", "111052.467500", "111053.255000", "111054.042500", "111054.832500", "111055.620000", "111056.407500", "111057.195000", "111057.985000", "111058.772500", "111059.560000", "111100.347500", "111101.137500", "111101.925000", "111102.712500", "111103.500000", "111104.290000", "111105.077500", "111105.865000", "111106.655000", "111107.442500", "111108.230000", "111109.017500", "111109.807500", "111110.595000", "111111.382500", "111112.170000", "111112.960000", "111113.747500", "111114.535000", "111115.322500", "111116.112500", "111116.900000", "111117.687500", "111118.475000", "111119.265000", "111120.052500", "111120.840000", "111121.627500", "111122.417500", "111123.205000", "111123.992500", "111124.782500", "111125.570000", "111126.357500", "111127.145000", "111127.935000", "111128.722500", "111129.510000", "111130.297500", "111131.087500", "111131.875000", "111132.662500", "111133.450000", "111134.240000", "111135.027500", "111135.815000", "111136.602500", "111137.392500", "111138.180000", "111138.967500", "111139.755000", "111140.545000", "111141.332500", "111142.120000", "111142.910000", "111143.697500", "111144.485000", "111145.272500", "111146.062500", "111146.850000", "111147.637500", "111148.425000", "111149.215000", "111150.002500", "111150.790000", "111151.577500", "111152.367500", "111153.155000", "111153.942500", "111154.730000", "111155.520000", "111156.307500", "111157.095000", "111157.882500", "111158.672500", "111159.460000", "111200.247500", "111201.037500", "111201.825000", "111202.612500", "111203.400000", "111204.190000", "111204.977500", "111205.765000", "111206.552500", "111207.342500", "111208.130000", "111208.917500", "111209.705000", "111210.495000", "111211.282500", "111212.070000", "111212.857500", "111213.647500", "111214.435000", "111215.222500", "111216.010000", "111216.800000", "111217.587500", "111218.375000", "111219.165000", "111219.952500", "111220.740000", "111221.527500", "111222.317500", "111223.105000", "111223.892500", "111224.680000", "111225.470000", "111226.257500", "111227.045000", "111227.832500", "111228.622500", "111229.410000", "111230.197500", "111230.985000", "111231.775000", "111232.562500", "111233.350000", "111234.137500", "111234.927500", "111235.715000", "111236.502500", "111237.292500", "111238.080000", "111238.867500", "111239.655000", "111240.445000", "111241.232500", "111242.020000", "111242.807500", "111243.597500", "111244.385000", "111245.172500", "111245.960000", "111246.750000", "111247.537500", "111248.325000", "111249.112500", "111249.902500", "111250.690000", "111251.477500", "111252.265000", "111253.055000", "111253.842500", "111254.630000", "111255.420000", "111256.207500", "111256.995000", "111257.782500", "111258.572500", "111259.360000", "111300.147500", "111300.935000", "111301.725000", "111302.512500", "111303.300000", "111304.087500", "111304.877500", "111305.665000", "111306.452500", "111307.240000", "111308.030000", "111308.817500", "111309.605000", "111310.395000", "111311.182500", "111311.970000", "111312.757500", "111313.547500", "111314.335000", "111315.122500", "111315.910000", "111316.700000", "111317.487500", "111318.275000", "111319.062500", "111319.852500", "111320.640000", "111321.427500", "111322.215000", "111323.005000", "111323.792500", "111324.580000", "111325.367500", "111326.157500", "111326.945000", "111327.732500", "111328.522500", "111329.310000", "111330.097500", "111330.885000", "111331.675000", "111332.462500", "111333.250000", "111334.037500", "111334.827500", "111335.615000", "111336.402500", "111337.190000", "111337.980000", "111338.767500", "111339.555000", "111340.342500", "111341.132500", "111341.920000"],
      "ContentTime": ["110628.593000", "110628.593000", "110628.593000", "110628.593000", "110628.593000", "110628.609000", "110628.609000", "110628.609000", "110628.609000", "110628.609000", "110628.609000", "110628.609000", "110628.625000", "110628.625000", "110628.625000", "110628.625000", "110628.625000", "110628.625000", "110628.625000", "110628.640000", "110628.640000", "110628.640000", "110628.640000", "110628.640000", "110628.640000", "110628.640000", "110628.656000", "110628.656000", "110648.562000", "110648.562000", "110648.578000", "110648.578000", "110648.578000", "110648.578000", "110648.578000", "110648.578000", "110648.578000", "110648.593000", "110648.593000", "110648.593000", "110648.593000", "110648.593000", "110648.593000", "110648.593000", "110648.609000", "110648.609000", "110648.609000", "110648.609000", "110648.609000", "110648.625000", "110648.625000", "110648.625000", "110648.625000", "110708.562000", "110708.562000", "110708.578000", "110708.578000", "110708.578000", "110708.578000", "110708.578000", "110708.578000", "110708.578000", "110708.593000", "110708.593000", "110708.593000", "110708.593000", "110708.593000", "110708.609000", "110708.609000", "110708.609000", "110708.609000", "110708.609000", "110708.625000", "110708.625000", "110708.625000", "110708.625000", "110708.625000", "110708.625000", "110708.625000", "110728.562000", "110728.578000", "110728.578000", "110728.578000", "110728.578000", "110728.578000", "110728.578000", "110728.593000", "110728.593000", "110728.593000", "110728.593000", "110728.593000", "110728.609000", "110728.609000", "110728.609000", "110728.609000", "110728.609000", "110728.625000", "110728.625000", "110728.625000", "110728.625000", "110728.625000", "110728.625000", "110728.625000", "110728.640000", "110748.562000", "110748.562000", "110748.578000", "110748.578000", "110748.578000", "110748.578000", "110748.578000", "110748.578000", "110748.578000", "110748.593000", "110748.593000", "110748.593000", "110748.593000", "110748.593000", "110748.593000", "110748.593000", "110748.609000", "110748.609000", "110748.609000", "110748.609000", "110748.609000", "110748.609000", "110748.609000", "110748.625000", "110748.625000", "110748.625000", "110808.562000", "110808.562000", "110808.578000", "110808.578000", "110808.578000", "110808.578000", "110808.578000", "110808.578000", "110808.578000", "110808.593000", "110808.593000", "110808.593000", "110808.593000", "110808.593000", "110808.593000", "110808.593000", "110808.609000", "110808.609000", "110808.609000", "110808.609000", "110808.609000", "110808.609000", "110808.609000", "110808.625000", "110808.625000", "110828.562000", "110828.562000", "110828.578000", "110828.578000", "110828.578000", "110828.578000", "110828.578000", "110828.578000", "110828.578000", "110828.593000", "110828.593000", "110828.593000", "110828.593000", "110828.593000", "110828.593000", "110828.593000", "110828.609000", "110828.609000", "110828.609000", "110828.609000", "110828.609000", "110828.609000", "110828.609000", "110828.625000", "110828.625000", "110828.625000", "110848.562000", "110848.562000", "110848.578000", "110848.578000", "110848.578000", "110848.578000", "110848.578000", "110848.578000", "110848.578000", "110848.593000", "110848.593000", "110848.593000", "110848.593000", "110848.593000", "110848.593000", "110848.593000", "110848.609000", "110848.609000", "110848.609000", "110848.609000", "110848.609000", "110848.609000", "110848.625000", "110848.625000", "110848.625000", "110908.562000", "110908.562000", "110908.578000", "110908.578000", "110908.578000", "110908.578000", "110908.578000", "110908.593000", "110908.593000", "110908.593000", "110908.593000", "110908.593000", "110908.593000", "110908.609000", "110908.609000", "110908.609000", "110908.609000", "110908.609000", "110908.609000", "110908.609000", "110908.625000", "110908.625000", "110908.625000", "110908.625000", "110908.625000", "110908.640000", "110928.562000", "110928.562000", "110928.578000", "110928.578000", "110928.578000", "110928.578000", "110928.578000", "110928.578000", "110928.578000", "110928.593000", "110928.593000", "110928.593000", "110928.593000", "110928.593000", "110928.593000", "110928.609000", "110928.609000", "110928.609000", "110928.609000", "110928.609000", "110928.625000", "110928.625000", "110928.625000", "110928.625000", "110928.625000", "110948.562000", "110948.562000", "110948.578000", "110948.578000", "110948.578000", "110948.578000", "110948.578000", "110948.578000", "110948.578000", "110948.593000", "110948.593000", "110948.593000", "110948.593000", "110948.593000", "110948.609000", "110948.609000", "110948.609000", "110948.609000", "110948.609000", "110948.609000", "110948.609000", "110948.625000", "110948.625000", "110948.625000", "110948.625000", "110948.625000", "111008.562000", "111008.578000", "111008.578000", "111008.578000", "111008.578000", "111008.578000", "111008.578000", "111008.593000", "111008.593000", "111008.593000", "111008.593000", "111008.593000", "111008.593000", "111008.593000", "111008.609000", "111008.609000", "111008.609000", "111008.609000", "111008.609000", "111008.609000", "111008.609000", "111008.625000", "111008.625000", "111008.625000", "111008.625000", "111028.562000", "111028.562000", "111028.578000", "111028.578000", "111028.578000", "111028.578000", "111028.578000", "111028.578000", "111028.578000", "111028.593000", "111028.593000", "111028.593000", "111028.593000", "111028.593000", "111028.593000", "111028.593000", "111028.609000", "111028.609000", "111028.609000", "111028.609000", "111028.609000", "111028.609000", "111028.609000", "111028.625000", "111028.625000", "111028.625000", "111048.562000", "111048.562000", "111048.578000", "111048.578000", "111048.578000", "111048.578000", "111048.578000", "111048.578000", "111048.578000", "111048.593000", "111048.593000", "111048.593000", "111048.593000", "111048.593000", "111048.593000", "111048.593000", "111048.609000", "111048.609000", "111048.609000", "111048.609000", "111048.609000", "111048.609000", "111048.625000", "111048.625000", "111048.625000", "111108.562000", "111108.562000", "111108.578000", "111108.578000", "111108.578000", "111108.578000", "111108.593000", "111108.593000", "111108.593000", "111108.593000", "111108.593000", "111108.593000", "111108.609000", "111108.609000", "111108.609000", "111108.609000", "111108.609000", "111108.609000", "111108.609000", "111108.625000", "111108.625000", "111108.625000", "111108.625000", "111108.625000", "111108.625000", "111128.562000", "111128.562000", "111128.578000", "111128.578000", "111128.578000", "111128.578000", "111128.578000", "111128.578000", "111128.578000", "111128.593000", "111128.593000", "111128.593000", "111128.593000", "111128.593000", "111128.593000", "111128.593000", "111128.609000", "111128.609000", "111128.609000", "111128.609000", "111128.609000", "111128.625000", "111128.625000", "111128.625000", "111128.625000", "111128.625000", "111148.562000", "111148.562000", "111148.578000", "111148.578000", "111148.578000", "111148.578000", "111148.578000", "111148.578000", "111148.578000", "111148.593000", "111148.593000", "111148.593000", "111148.593000", "111148.593000", "111148.593000", "111148.609000", "111148.609000", "111148.609000", "111148.609000", "111148.609000", "111148.609000", "111148.609000", "111148.625000", "111148.625000", "111148.625000", "111208.562000", "111208.562000", "111208.578000", "111208.578000", "111208.578000", "111208.578000", "111208.578000", "111208.578000", "111208.578000", "111208.593000", "111208.593000", "111208.593000", "111208.593000", "111208.593000", "111208.593000", "111208.593000", "111208.609000", "111208.609000", "111208.609000", "111208.609000", "111208.609000", "111208.609000", "111208.609000", "111208.625000", "111208.625000", "111208.625000", "111228.562000", "111228.562000", "111228.578000", "111228.578000", "111228.578000", "111228.578000", "111228.578000", "111228.578000", "111228.578000", "111228.593000", "111228.593000", "111228.593000", "111228.593000", "111228.593000", "111228.609000", "111228.609000", "111228.609000", "111228.609000", "111228.609000", "111228.609000", "111228.609000", "111228.625000", "111228.625000", "111228.625000", "111228.625000", "111248.562000", "111248.562000", "111248.578000", "111248.578000", "111248.578000", "111248.578000", "111248.578000", "111248.578000", "111248.578000", "111248.593000", "111248.593000", "111248.593000", "111248.593000", "111248.593000", "111248.593000", "111248.609000", "111248.609000", "111248.609000", "111248.609000", "111248.609000", "111248.609000", "111248.609000", "111248.625000", "111248.625000", "111248.625000", "111248.625000", "111308.562000", "111308.562000", "111308.578000", "111308.578000", "111308.578000", "111308.578000", "111308.578000", "111308.578000", "111308.578000", "111308.593000", "111308.593000", "111308.593000", "111308.593000", "111308.593000", "111308.593000", "111308.593000", "111308.609000", "111308.609000", "111308.609000", "111308.609000", "111308.609000", "111308.609000", "111308.609000", "111308.625000", "111308.625000", "111328.562000", "111328.562000", "111328.578000", "111328.578000", "111328.578000", "111328.578000", "111328.578000", "111328.578000", "111328.578000", "111328.593000", "111328.593000", "111328.593000", "111328.593000", "111328.593000", "111328.593000", "111328.593000", "111328.609000", "111328.609000", "111328.609000", "111328.609000", "111328.609000", "111328.609000", "111328.609000", "111328.625000", "111328.625000", "111328.625000", "111342.546000", "111342.546000", "111342.546000", "111342.546000", "111342.562000", "111342.562000", "111342.562000", "111342.562000", "111342.562000", "111342.562000", "111342.562000", "111342.578000", "111342.578000", "111342.578000", "111342.578000", "111342.578000", "111342.578000", "111342.578000"],
      "DataSetTrailingPadding": [
        "\u0000\u0000\u0000\u0000\u0000\u0000\u0000\u0000\u0000\u0000\u0000\u0000\u0000\u0000\u0000\u0000\u0000\u0000\u0000\u0000\u0000\u0000\u0000\u0000\u0000\u0000\u0000\u0000\u0000\u0000\u0000\u0000\u0000\u0000\u0000\u0000\u0000\u0000\u0000\u0000\u0000\u0000\u0000\u0000\u0000\u0000\u0000\u0000\u0000\u0000\u0000\u0000\u0000\u0000\u0000\u0000\u0000\u0000\u0000\u0000\u0000\u0000\u0000\u0000\u0000\u0000\u0000\u0000\u0000\u0000\u0000\u0000\u0000\u0000",
        "\u0000\u0000\u0000\u0000\u0000\u0000\u0000\u0000\u0000\u0000\u0000\u0000\u0000\u0000\u0000\u0000\u0000\u0000\u0000\u0000\u0000\u0000\u0000\u0000\u0000\u0000\u0000\u0000\u0000\u0000\u0000\u0000\u0000\u0000\u0000\u0000\u0000\u0000\u0000\u0000\u0000\u0000\u0000\u0000\u0000\u0000\u0000\u0000\u0000\u0000\u0000\u0000\u0000\u0000\u0000\u0000\u0000\u0000\u0000\u0000\u0000\u0000\u0000\u0000\u0000\u0000\u0000\u0000\u0000\u0000",
        "\u0000\u0000\u0000\u0000\u0000\u0000\u0000\u0000\u0000\u0000\u0000\u0000\u0000\u0000\u0000\u0000\u0000\u0000\u0000\u0000\u0000\u0000\u0000\u0000\u0000\u0000\u0000\u0000\u0000\u0000\u0000\u0000\u0000\u0000\u0000\u0000\u0000\u0000\u0000\u0000\u0000\u0000\u0000\u0000\u0000\u0000\u0000\u0000\u0000\u0000\u0000\u0000\u0000\u0000\u0000\u0000\u0000\u0000\u0000\u0000\u0000\u0000\u0000\u0000\u0000\u0000\u0000\u0000\u0000\u0000\u0000\u0000",
        "\u0000\u0000\u0000\u0000\u0000\u0000\u0000\u0000\u0000\u0000\u0000\u0000\u0000\u0000\u0000\u0000\u0000\u0000\u0000\u0000\u0000\u0000\u0000\u0000\u0000\u0000\u0000\u0000\u0000\u0000\u0000\u0000\u0000\u0000\u0000\u0000\u0000\u0000\u0000\u0000\u0000\u0000\u0000\u0000\u0000\u0000\u0000\u0000\u0000\u0000\u0000\u0000\u0000\u0000\u0000\u0000\u0000\u0000\u0000\u0000\u0000\u0000\u0000\u0000\u0000\u0000\u0000\u0000\u0000\u0000",
