{
  "AcquisitionMatrixPE": 104,
  "AcquisitionNumber": 1,
  "AcquisitionTime": "11:30:4.722500",
  "BandwidthPerPixelPhaseEncode": 13.935,
  "BaseResolution": 104,
  "CoilString": "C:HEA;HEP",
  "ConversionSoftware": "dcm2niix",
  "ConversionSoftwareVersion": "v1.0.20210317",
  "DerivedVendorReportedEchoSpacing": 0.000690017,
  "DeviceSerialNumber": "35450",
  "DwellTime": 2.5e-06,
  "EchoTime": 0.0348,
  "EffectiveEchoSpacing": 0.000690017,
  "FlipAngle": 55,
  "ImageComments": "Unaliased MB8/PE3 (remote)",
  "ImageOrientationPatientDICOM": [0.999886, 0.00055304, 0.0150886, 1.32634e-08, 0.999329, -0.0366291],
  "ImageType": [
    "ORIGINAL",
    "PRIMARY",
    "M",
    "MB",
    "ND",
    "MOSAIC"
],
  "ImagingFrequency": 123.234,
  "InPlanePhaseEncodingDirectionDICOM": "COL",
  "InstitutionAddress": "Univeristy Ave. 197,Newark,North East,US,07102-1814",
  "InstitutionName": "RUBIC",
  "InstitutionalDepartmentName": "Department",
  "MRAcquisitionType": "2D",
  "MagneticFieldStrength": 3,
  "Manufacturer": "Siemens",
  "ManufacturersModelName": "TrioTim",
  "Modality": "MR",
  "MultibandAccelerationFactor": 8,
  "PartialFourier": 0.875,
  "PatientPosition": "HFS",
  "PercentPhaseFOV": 100,
  "PercentSampling": 100,
  "PhaseEncodingDirection": "j-",
  "PhaseEncodingSteps": 91,
  "PhaseResolution": 1,
  "PixelBandwidth": 1923,
  "ProcedureStepDescription": "Cole^Michael",
  "ProtocolName": "cmrr_mbep2d_bold_2mm_MB8_Task_8x",
  "PulseSequenceDetails": "%CustomerSeq%\\cmrr_mbep2d_bold",
  "ReceiveCoilName": "32Ch_Head",
  "ReconMatrixPE": 104,
  "RepetitionTime": 0.785,
  "SAR": 0.139344,
  "ScanOptions": "PFP\\FS",
  "ScanningSequence": "EP",
  "SequenceName": "epfid2d1_104",
  "SequenceVariant": "SK\\SS",
  "SeriesDescription": "cmrr_mbep2d_bold_2mm_MB8_Task_8x",
  "SeriesNumber": 21,
  "ShimSetting": [2118, -386, -7275, 438, -103, -139, 350, 56],
  "SliceThickness": 2,
  "SliceTiming": [0, 0.4375, 0.0875, 0.525, 0.175, 0.6125, 0.2625, 0.7, 0.35, 0, 0.4375, 0.0875, 0.525, 0.175, 0.6125, 0.2625, 0.7, 0.35, 0, 0.4375, 0.0875, 0.525, 0.175, 0.6125, 0.2625, 0.7, 0.35, 0, 0.4375, 0.0875, 0.525, 0.175, 0.6125, 0.2625, 0.7, 0.35, 0, 0.4375, 0.0875, 0.525, 0.175, 0.6125, 0.2625, 0.7, 0.35, 0, 0.4375, 0.0875, 0.525, 0.175, 0.6125, 0.2625, 0.7, 0.35, 0, 0.4375, 0.0875, 0.525, 0.175, 0.6125, 0.2625, 0.7, 0.35, 0, 0.4375, 0.0875, 0.525, 0.175, 0.6125, 0.2625, 0.7, 0.35],
  "SoftwareVersions": "syngo MR B19",
  "SpacingBetweenSlices": 2,
  "StationName": "MRC35450",
  "TaskName": "cpro",
  "TotalReadoutTime": 0.0710717,
  "TxRefAmp": 356.05,
  "dcmmeta_affine": [
    [-1.999772071838379, 2.6526775442903272e-08, 0.03019750863313675, 104.38231658935547],
    [-0.001106079900637269, 1.9986578226089478, -0.07324977219104767, -79.66737365722656],
    [0.030177244916558266, 0.07325812429189682, 1.9984300136566162, -84.29165649414062],
    [0.0, 0.0, 0.0, 1.0]
],
  "dcmmeta_reorient_transform": [
    [0.0, -1.0, 0.0, 103.0],
    [1.0, 0.0, 0.0, 0.0],
    [0.0, 0.0, 1.0, 0.0],
    [0.0, 0.0, 0.0, 1.0]
],
  "dcmmeta_shape": [104, 104, 72, 581],
  "dcmmeta_slice_dim": 2,
  "dcmmeta_version": 0.6,
  "global": {
    "const": {
      "AcquisitionMatrix": [104, 0, 0, 104],
      "AngioFlag": "N",
      "BitsAllocated": 16,
      "BitsStored": 12,
      "Columns": 936,
      "EchoNumbers": 1,
      "EchoTime": 34.8,
      "EchoTrainLength": 1,
      "FlipAngle": 55.0,
      "HighBit": 11,
      "ImageOrientationPatient": [0.99988600731811, 0.00055303994747, 0.01508862207974, 1.3263388e-08, 0.99932893072312, -0.0366290625021],
      "ImagePositionPatient": [-936.28748641282, -958.09618195734, -58.824422483867],
      "ImageType": [
        "ORIGINAL",
        "PRIMARY",
        "M",
        "MB",
        "ND",
        "MOSAIC"
],
      "ImagedNucleus": "1H",
      "ImagingFrequency": 123.234407,
      "InPlanePhaseEncodingDirection": "COL",
      "MRAcquisitionType": "2D",
      "MagneticFieldStrength": 3.0,
      "Manufacturer": "SIEMENS",
      "ManufacturerModelName": "TrioTim",
      "Modality": "MR",
      "NumberOfAverages": 1.0,
      "NumberOfPhaseEncodingSteps": 91,
      "PercentPhaseFieldOfView": 100.0,
      "PercentSampling": 100.0,
      "PerformedProcedureStepStartTime": "093541.859000",
      "PhotometricInterpretation": "MONOCHROME2",
      "PixelBandwidth": 1923.0,
      "PixelRepresentation": 0,
      "PixelSpacing": [2.0, 2.0],
      "ProtocolName": "cmrr_mbep2d_bold_2mm_MB8_Task_8x",
      "RepetitionTime": 785.0,
      "Rows": 936,
      "SAR": 0.13934430259307,
      "SamplesPerPixel": 1,
      "ScanOptions": [
        "PFP",
        "FS"
],
      "ScanningSequence": "EP",
      "SequenceName": "epfid2d1_104",
      "SequenceVariant": [
        "SK",
        "SS"
],
      "SeriesDescription": "cmrr_mbep2d_bold_2mm_MB8_Task_8x",
      "SeriesNumber": 21,
      "SeriesTime": "113028.593000",
      "SliceLocation": -79.731636472144,
      "SliceThickness": 2.0,
      "SmallestImagePixelValue": 0,
      "SoftwareVersions": "syngo MR B19",
      "SpacingBetweenSlices": 2.0000000355515,
      "SpecificCharacterSet": "ISO_IR 100",
      "StudyID": "1",
      "StudyTime": "093541.765000",
      "TransmitCoilName": "Body",
      "VariableFlipAngleFlag": "N",
      "WindowCenterWidthExplanation": "Algo1",
      "dBdt": 0.0},
    "slices": {}
  },
  "time": {
    "samples": {
      "AcquisitionNumber": [1, 2, 3, 4, 5, 6, 7, 8, 9, 10, 11, 12, 13, 14, 15, 16, 17, 18, 19, 20, 21, 22, 23, 24, 25, 26, 27, 28, 29, 30, 31, 32, 33, 34, 35, 36, 37, 38, 39, 40, 41, 42, 43, 44, 45, 46, 47, 48, 49, 50, 51, 52, 53, 54, 55, 56, 57, 58, 59, 60, 61, 62, 63, 64, 65, 66, 67, 68, 69, 70, 71, 72, 73, 74, 75, 76, 77, 78, 79, 80, 81, 82, 83, 84, 85, 86, 87, 88, 89, 90, 91, 92, 93, 94, 95, 96, 97, 98, 99, 100, 101, 102, 103, 104, 105, 106, 107, 108, 109, 110, 111, 112, 113, 114, 115, 116, 117, 118, 119, 120, 121, 122, 123, 124, 125, 126, 127, 128, 129, 130, 131, 132, 133, 134, 135, 136, 137, 138, 139, 140, 141, 142, 143, 144, 145, 146, 147, 148, 149, 150, 151, 152, 153, 154, 155, 156, 157, 158, 159, 160, 161, 162, 163, 164, 165, 166, 167, 168, 169, 170, 171, 172, 173, 174, 175, 176, 177, 178, 179, 180, 181, 182, 183, 184, 185, 186, 187, 188, 189, 190, 191, 192, 193, 194, 195, 196, 197, 198, 199, 200, 201, 202, 203, 204, 205, 206, 207, 208, 209, 210, 211, 212, 213, 214, 215, 216, 217, 218, 219, 220, 221, 222, 223, 224, 225, 226, 227, 228, 229, 230, 231, 232, 233, 234, 235, 236, 237, 238, 239, 240, 241, 242, 243, 244, 245, 246, 247, 248, 249, 250, 251, 252, 253, 254, 255, 256, 257, 258, 259, 260, 261, 262, 263, 264, 265, 266, 267, 268, 269, 270, 271, 272, 273, 274, 275, 276, 277, 278, 279, 280, 281, 282, 283, 284, 285, 286, 287, 288, 289, 290, 291, 292, 293, 294, 295, 296, 297, 298, 299, 300, 301, 302, 303, 304, 305, 306, 307, 308, 309, 310, 311, 312, 313, 314, 315, 316, 317, 318, 319, 320, 321, 322, 323, 324, 325, 326, 327, 328, 329, 330, 331, 332, 333, 334, 335, 336, 337, 338, 339, 340, 341, 342, 343, 344, 345, 346, 347, 348, 349, 350, 351, 352, 353, 354, 355, 356, 357, 358, 359, 360, 361, 362, 363, 364, 365, 366, 367, 368, 369, 370, 371, 372, 373, 374, 375, 376, 377, 378, 379, 380, 381, 382, 383, 384, 385, 386, 387, 388, 389, 390, 391, 392, 393, 394, 395, 396, 397, 398, 399, 400, 401, 402, 403, 404, 405, 406, 407, 408, 409, 410, 411, 412, 413, 414, 415, 416, 417, 418, 419, 420, 421, 422, 423, 424, 425, 426, 427, 428, 429, 430, 431, 432, 433, 434, 435, 436, 437, 438, 439, 440, 441, 442, 443, 444, 445, 446, 447, 448, 449, 450, 451, 452, 453, 454, 455, 456, 457, 458, 459, 460, 461, 462, 463, 464, 465, 466, 467, 468, 469, 470, 471, 472, 473, 474, 475, 476, 477, 478, 479, 480, 481, 482, 483, 484, 485, 486, 487, 488, 489, 490, 491, 492, 493, 494, 495, 496, 497, 498, 499, 500, 501, 502, 503, 504, 505, 506, 507, 508, 509, 510, 511, 512, 513, 514, 515, 516, 517, 518, 519, 520, 521, 522, 523, 524, 525, 526, 527, 528, 529, 530, 531, 532, 533, 534, 535, 536, 537, 538, 539, 540, 541, 542, 543, 544, 545, 546, 547, 548, 549, 550, 551, 552, 553, 554, 555, 556, 557, 558, 559, 560, 561, 562, 563, 564, 565, 566, 567, 568, 569, 570, 571, 572, 573, 574, 575, 576, 577, 578, 579, 580, 581],
      "AcquisitionTime": ["113004.722500", "113005.510000", "113006.297500", "113007.087500", "113007.875000", "113008.662500", "113009.452500", "113010.240000", "113011.027500", "113011.815000", "113012.605000", "113013.392500", "113014.180000", "113014.967500", "113015.757500", "113016.545000", "113017.332500", "113018.120000", "113018.910000", "113019.697500", "113020.485000", "113021.272500", "113022.062500", "113022.850000", "113023.637500", "113024.425000", "113025.215000", "113026.002500", "113026.790000", "113027.580000", "113028.367500", "113029.155000", "113029.942500", "113030.732500", "113031.520000", "113032.307500", "113033.095000", "113033.885000", "113034.672500", "113035.460000", "113036.247500", "113037.037500", "113037.825000", "113038.612500", "113039.400000", "113040.190000", "113040.977500", "113041.765000", "113042.552500", "113043.342500", "113044.130000", "113044.917500", "113045.707500", "113046.495000", "113047.282500", "113048.070000", "113048.860000", "113049.647500", "113050.435000", "113051.222500", "113052.012500", "113052.800000", "113053.587500", "113054.375000", "113055.165000", "113055.952500", "113056.740000", "113057.527500", "113058.317500", "113059.105000", "113059.892500", "113100.680000", "113101.470000", "113102.257500", "113103.045000", "113103.835000", "113104.622500", "113105.410000", "113106.197500", "113106.987500", "113107.775000", "113108.562500", "113109.350000", "113110.140000", "113110.927500", "113111.715000", "113112.502500", "113113.292500", "113114.080000", "113114.867500", "113115.655000", "113116.445000", "113117.232500", "113118.020000", "113118.807500", "113119.597500", "113120.385000", "113121.172500", "113121.962500", "113122.750000", "113123.537500", "113124.325000", "113125.115000", "113125.902500", "113126.690000", "113127.477500", "113128.267500", "113129.055000", "113129.842500", "113130.630000", "113131.420000", "113132.207500", "113132.995000", "113133.782500", "113134.572500", "113135.360000", "113136.147500", "113136.935000", "113137.725000", "113138.512500", "113139.300000", "113140.090000", "113140.877500", "113141.665000", "113142.452500", "113143.242500", "113144.030000", "113144.817500", "113145.605000", "113146.395000", "113147.182500", "113147.970000", "113148.757500", "113149.547500", "113150.335000", "113151.122500", "113151.910000", "113152.700000", "113153.487500", "113154.275000", "113155.062500", "113155.852500", "113156.640000", "113157.427500", "113158.217500", "113159.005000", "113159.792500", "113200.580000", "113201.370000", "113202.157500", "113202.945000", "113203.732500", "113204.522500", "113205.310000", "113206.097500", "113206.885000", "113207.675000", "113208.462500", "113209.250000", "113210.037500", "113210.827500", "113211.615000", "113212.402500", "113213.190000", "113213.980000", "113214.767500", "113215.555000", "113216.345000", "113217.132500", "113217.920000", "113218.707500", "113219.497500", "113220.285000", "113221.072500", "113221.860000", "113222.650000", "113223.437500", "113224.225000", "113225.012500", "113225.802500", "113226.590000", "113227.377500", "113228.165000", "113228.955000", "113229.742500", "113230.530000", "113231.320000", "113232.107500", "113232.895000", "113233.682500", "113234.472500", "113235.260000", "113236.047500", "113236.835000", "113237.625000", "113238.412500", "113239.200000", "113239.987500", "113240.777500", "113241.565000", "113242.352500", "113243.140000", "113243.930000", "113244.717500", "113245.505000", "113246.292500", "113247.082500", "113247.870000", "113248.657500", "113249.447500", "113250.235000", "113251.022500", "113251.810000", "113252.600000", "113253.387500", "113254.175000", "113254.962500", "113255.752500", "113256.540000", "113257.327500", "113258.115000", "113258.905000", "113259.692500", "113300.480000", "113301.267500", "113302.057500", "113302.845000", "113303.632500", "113304.420000", "113305.210000", "113305.997500", "113306.785000", "113307.575000", "113308.362500", "113309.150000", "113309.937500", "113310.727500", "113311.515000", "113312.302500", "113313.090000", "113313.880000", "113314.667500", "113315.455000", "113316.242500", "113317.032500", "113317.820000", "113318.607500", "113319.395000", "113320.185000", "113320.972500", "113321.760000", "113322.547500", "113323.337500", "113324.125000", "113324.912500", "113325.702500", "113326.490000", "113327.277500", "113328.065000", "113328.855000", "113329.642500", "113330.430000", "113331.217500", "113332.007500", "113332.795000", "113333.582500", "113334.370000", "113335.160000", "113335.947500", "113336.735000", "113337.522500", "113338.312500", "113339.100000", "113339.887500", "113340.675000", "113341.465000", "113342.252500", "113343.040000", "113343.830000", "113344.617500", "113345.405000", "113346.192500", "113346.982500", "113347.770000", "113348.557500", "113349.345000", "113350.135000", "113350.922500", "113351.710000", "113352.497500", "113353.287500", "113354.075000", "113354.862500", "113355.650000", "113356.440000", "113357.227500", "113358.015000", "113358.802500", "113359.592500", "113400.380000", "113401.167500", "113401.957500", "113402.745000", "113403.532500", "113404.320000", "113405.110000", "113405.897500", "113406.685000", "113407.472500", "113408.262500", "113409.050000", "113409.837500", "113410.625000", "113411.415000", "113412.202500", "113412.990000", "113413.777500", "113414.567500", "113415.355000", "113416.142500", "113416.930000", "113417.720000", "113418.507500", "113419.295000", "113420.085000", "113420.872500", "113421.660000", "113422.447500", "113423.237500", "113424.025000", "113424.812500", "113425.600000", "113426.390000", "113427.177500", "113427.965000", "113428.752500", "113429.542500", "113430.330000", "113431.117500", "113431.905000", "113432.695000", "113433.482500", "113434.270000", "113435.057500", "113435.847500", "113436.635000", "113437.422500", "113438.212500", "113439.000000", "113439.787500", "113440.575000", "113441.365000", "113442.152500", "113442.940000", "113443.727500", "113444.517500", "113445.305000", "113446.092500", "113446.880000", "113447.670000", "113448.457500", "113449.245000", "113450.032500", "113450.822500", "113451.610000", "113452.397500", "113453.185000", "113453.975000", "113454.762500", "113455.550000", "113456.340000", "113457.127500", "113457.915000", "113458.702500", "113459.492500", "113500.280000", "113501.067500", "113501.855000", "113502.645000", "113503.432500", "113504.220000", "113505.007500", "113505.797500", "113506.585000", "113507.372500", "113508.160000", "113508.950000", "113509.737500", "113510.525000", "113511.312500", "113512.102500", "113512.890000", "113513.677500", "113514.467500", "113515.255000", "113516.042500", "113516.830000", "113517.620000", "113518.407500", "113519.195000", "113519.982500", "113520.772500", "113521.560000", "113522.347500", "113523.135000", "113523.925000", "113524.712500", "113525.500000", "113526.287500", "113527.077500", "113527.865000", "113528.652500", "113529.440000", "113530.230000", "113531.017500", "113531.805000", "113532.595000", "113533.382500", "113534.170000", "113534.957500", "113535.747500", "113536.535000", "113537.322500", "113538.110000", "113538.900000", "113539.687500", "113540.475000", "113541.262500", "113542.052500", "113542.840000", "113543.627500", "113544.415000", "113545.205000", "113545.992500", "113546.780000", "113547.570000", "113548.357500", "113549.145000", "113549.932500", "113550.722500", "113551.510000", "113552.297500", "113553.085000", "113553.875000", "113554.662500", "113555.450000", "113556.237500", "113557.027500", "113557.815000", "113558.602500", "113559.390000", "113600.180000", "113600.967500", "113601.755000", "113602.542500", "113603.332500", "113604.120000", "113604.907500", "113605.697500", "113606.485000", "113607.272500", "113608.060000", "113608.850000", "113609.637500", "113610.425000", "113611.212500", "113612.002500", "113612.790000", "113613.577500", "113614.365000", "113615.155000", "113615.942500", "113616.730000", "113617.517500", "113618.307500", "113619.095000", "113619.882500", "113620.670000", "113621.460000", "113622.247500", "113623.035000", "113623.825000", "113624.612500", "113625.400000", "113626.187500", "113626.977500", "113627.765000", "113628.552500", "113629.340000", "113630.130000", "113630.917500", "113631.705000", "113632.492500", "113633.282500", "113634.070000", "113634.857500", "113635.645000", "113636.435000", "113637.222500", "113638.010000", "113638.797500", "113639.587500", "113640.375000", "113641.162500", "113641.952500", "113642.740000", "113643.527500", "113644.315000", "113645.105000", "113645.892500", "113646.680000", "113647.467500", "113648.257500", "113649.045000", "113649.832500", "113650.620000", "113651.410000", "113652.197500", "113652.985000", "113653.772500", "113654.562500", "113655.350000", "113656.137500", "113656.925000", "113657.715000", "113658.502500", "113659.290000", "113700.080000", "113700.867500", "113701.655000", "113702.442500", "113703.232500", "113704.020000", "113704.807500", "113705.595000", "113706.385000", "113707.172500", "113707.960000", "113708.747500", "113709.537500", "113710.325000", "113711.112500", "113711.900000", "113712.690000", "113713.477500", "113714.265000", "113715.052500", "113715.842500", "113716.630000", "113717.417500", "113718.207500", "113718.995000", "113719.782500", "113720.570000", "113721.360000", "113722.147500", "113722.935000", "113723.722500", "113724.512500", "113725.300000", "113726.087500", "113726.875000", "113727.665000", "113728.452500", "113729.240000", "113730.027500", "113730.817500", "113731.605000", "113732.392500", "113733.180000", "113733.970000", "113734.757500", "113735.545000", "113736.335000", "113737.122500", "113737.910000", "113738.697500", "113739.487500", "113740.275000", "113741.062500", "113741.850000"],
      "ContentTime": ["113028.593000", "113028.593000", "113028.593000", "113028.609000", "113028.609000", "113028.609000", "113028.609000", "113028.609000", "113028.609000", "113028.609000", "113028.625000", "113028.625000", "113028.625000", "113028.625000", "113028.625000", "113028.625000", "113028.625000", "113028.640000", "113028.640000", "113028.640000", "113028.640000", "113028.640000", "113028.640000", "113028.640000", "113028.656000", "113028.656000", "113028.656000", "113048.562000", "113048.562000", "113048.578000", "113048.578000", "113048.578000", "113048.578000", "113048.578000", "113048.578000", "113048.578000", "113048.593000", "113048.593000", "113048.593000", "113048.593000", "113048.593000", "113048.593000", "113048.593000", "113048.609000", "113048.609000", "113048.609000", "113048.609000", "113048.609000", "113048.609000", "113048.609000", "113048.625000", "113048.625000", "113048.625000", "113108.562000", "113108.562000", "113108.578000", "113108.578000", "113108.578000", "113108.578000", "113108.578000", "113108.578000", "113108.578000", "113108.593000", "113108.593000", "113108.593000", "113108.593000", "113108.593000", "113108.593000", "113108.593000", "113108.609000", "113108.609000", "113108.609000", "113108.609000", "113108.609000", "113108.609000", "113108.609000", "113108.625000", "113108.625000", "113128.562000", "113128.562000", "113128.578000", "113128.578000", "113128.578000", "113128.578000", "113128.578000", "113128.578000", "113128.578000", "113128.593000", "113128.593000", "113128.593000", "113128.593000", "113128.593000", "113128.593000", "113128.593000", "113128.609000", "113128.609000", "113128.609000", "113128.609000", "113128.609000", "113128.625000", "113128.625000", "113128.625000", "113128.625000", "113128.625000", "113148.562000", "113148.562000", "113148.578000", "113148.578000", "113148.578000", "113148.578000", "113148.578000", "113148.578000", "113148.578000", "113148.593000", "113148.593000", "113148.593000", "113148.593000", "113148.593000", "113148.609000", "113148.609000", "113148.609000", "113148.609000", "113148.609000", "113148.609000", "113148.609000", "113148.625000", "113148.625000", "113148.625000", "113148.625000", "113208.562000", "113208.562000", "113208.578000", "113208.578000", "113208.578000", "113208.578000", "113208.578000", "113208.578000", "113208.578000", "113208.593000", "113208.593000", "113208.593000", "113208.593000", "113208.593000", "113208.593000", "113208.593000", "113208.609000", "113208.609000", "113208.609000", "113208.609000", "113208.609000", "113208.609000", "113208.625000", "113208.625000", "113208.625000", "113208.625000", "113228.562000", "113228.562000", "113228.578000", "113228.578000", "113228.578000", "113228.578000", "113228.578000", "113228.578000", "113228.578000", "113228.593000", "113228.593000", "113228.593000", "113228.593000", "113228.593000", "113228.593000", "113228.593000", "113228.609000", "113228.609000", "113228.609000", "113228.609000", "113228.609000", "113228.609000", "113228.625000", "113228.625000", "113228.625000", "113248.562000", "113248.562000", "113248.578000", "113248.578000", "113248.578000", "113248.578000", "113248.578000", "113248.578000", "113248.578000", "113248.593000", "113248.593000", "113248.593000", "113248.593000", "113248.593000", "113248.593000", "113248.593000", "113248.609000", "113248.609000", "113248.609000", "113248.609000", "113248.609000", "113248.609000", "113248.609000", "113248.625000", "113248.625000", "113248.625000", "113308.562000", "113308.562000", "113308.578000", "113308.578000", "113308.578000", "113308.578000", "113308.578000", "113308.578000", "113308.578000", "113308.593000", "113308.593000", "113308.593000", "113308.593000", "113308.593000", "113308.593000", "113308.593000", "113308.609000", "113308.609000", "113308.609000", "113308.609000", "113308.609000", "113308.609000", "113308.609000", "113308.625000", "113308.625000", "113328.562000", "113328.562000", "113328.578000", "113328.578000", "113328.578000", "113328.578000", "113328.578000", "113328.578000", "113328.578000", "113328.593000", "113328.593000", "113328.593000", "113328.593000", "113328.593000", "113328.593000", "113328.593000", "113328.609000", "113328.609000", "113328.609000", "113328.609000", "113328.609000", "113328.609000", "113328.609000", "113328.625000", "113328.625000", "113328.625000", "113348.562000", "113348.562000", "113348.578000", "113348.578000", "113348.578000", "113348.578000", "113348.578000", "113348.578000", "113348.578000", "113348.593000", "113348.593000", "113348.593000", "113348.593000", "113348.593000", "113348.593000", "113348.593000", "113348.609000", "113348.609000", "113348.609000", "113348.609000", "113348.609000", "113348.609000", "113348.609000", "113348.625000", "113348.625000", "113408.562000", "113408.562000", "113408.578000", "113408.578000", "113408.578000", "113408.578000", "113408.578000", "113408.593000", "113408.593000", "113408.593000", "113408.593000", "113408.593000", "113408.593000", "113408.593000", "113408.609000", "113408.609000", "113408.609000", "113408.609000", "113408.609000", "113408.609000", "113408.625000", "113408.625000", "113408.625000", "113408.625000", "113408.625000", "113428.562000", "113428.562000", "113428.578000", "113428.578000", "113428.578000", "113428.578000", "113428.578000", "113428.578000", "113428.578000", "113428.593000", "113428.593000", "113428.593000", "113428.593000", "113428.593000", "113428.593000", "113428.593000", "113428.609000", "113428.609000", "113428.609000", "113428.609000", "113428.609000", "113428.609000", "113428.609000", "113428.625000", "113428.625000", "113428.625000", "113448.562000", "113448.562000", "113448.578000", "113448.578000", "113448.578000", "113448.578000", "113448.578000", "113448.578000", "113448.593000", "113448.593000", "113448.593000", "113448.593000", "113448.593000", "113448.593000", "113448.593000", "113448.609000", "113448.609000", "113448.609000", "113448.609000", "113448.609000", "113448.609000", "113448.625000", "113448.625000", "113448.625000", "113448.625000", "113508.562000", "113508.562000", "113508.578000", "113508.578000", "113508.578000", "113508.578000", "113508.578000", "113508.578000", "113508.578000", "113508.593000", "113508.593000", "113508.593000", "113508.593000", "113508.593000", "113508.593000", "113508.593000", "113508.609000", "113508.609000", "113508.609000", "113508.609000", "113508.609000", "113508.609000", "113508.609000", "113508.625000", "113508.625000", "113508.625000", "113528.562000", "113528.562000", "113528.578000", "113528.578000", "113528.578000", "113528.578000", "113528.578000", "113528.578000", "113528.578000", "113528.593000", "113528.593000", "113528.593000", "113528.593000", "113528.593000", "113528.593000", "113528.593000", "113528.609000", "113528.609000", "113528.609000", "113528.609000", "113528.609000", "113528.625000", "113528.625000", "113528.625000", "113528.625000", "113548.562000", "113548.562000", "113548.578000", "113548.578000", "113548.578000", "113548.578000", "113548.578000", "113548.578000", "113548.578000", "113548.593000", "113548.593000", "113548.593000", "113548.593000", "113548.593000", "113548.593000", "113548.593000", "113548.609000", "113548.609000", "113548.609000", "113548.609000", "113548.609000", "113548.609000", "113548.625000", "113548.625000", "113548.625000", "113548.625000", "113608.562000", "113608.562000", "113608.578000", "113608.578000", "113608.578000", "113608.578000", "113608.578000", "113608.593000", "113608.593000", "113608.593000", "113608.593000", "113608.593000", "113608.593000", "113608.609000", "113608.609000", "113608.609000", "113608.609000", "113608.609000", "113608.609000", "113608.609000", "113608.625000", "113608.625000", "113608.625000", "113608.625000", "113608.625000", "113628.562000", "113628.562000", "113628.578000", "113628.578000", "113628.578000", "113628.578000", "113628.578000", "113628.578000", "113628.578000", "113628.593000", "113628.593000", "113628.593000", "113628.593000", "113628.593000", "113628.593000", "113628.609000", "113628.609000", "113628.609000", "113628.609000", "113628.609000", "113628.625000", "113628.625000", "113628.625000", "113628.625000", "113628.625000", "113628.625000", "113648.562000", "113648.562000", "113648.578000", "113648.578000", "113648.578000", "113648.578000", "113648.578000", "113648.578000", "113648.578000", "113648.593000", "113648.593000", "113648.593000", "113648.593000", "113648.593000", "113648.593000", "113648.593000", "113648.609000", "113648.609000", "113648.609000", "113648.609000", "113648.609000", "113648.609000", "113648.609000", "113648.625000", "113648.625000", "113708.562000", "113708.562000", "113708.578000", "113708.578000", "113708.578000", "113708.578000", "113708.578000", "113708.578000", "113708.578000", "113708.593000", "113708.593000", "113708.593000", "113708.593000", "113708.593000", "113708.609000", "113708.609000", "113708.609000", "113708.609000", "113708.609000", "113708.609000", "113708.625000", "113708.625000", "113708.625000", "113708.625000", "113708.625000", "113708.625000", "113728.562000", "113728.562000", "113728.578000", "113728.578000", "113728.578000", "113728.578000", "113728.578000", "113728.578000", "113728.578000", "113728.593000", "113728.593000", "113728.593000", "113728.593000", "113728.593000", "113728.593000", "113728.593000", "113728.609000", "113728.609000", "113728.609000", "113728.609000", "113728.609000", "113728.609000", "113728.625000", "113728.625000", "113728.625000", "113742.937000", "113742.937000", "113742.937000", "113742.937000", "113742.937000", "113742.953000", "113742.953000", "113742.953000", "113742.953000", "113742.953000", "113742.953000", "113742.953000", "113742.968000", "113742.968000", "113742.968000", "113742.968000", "113742.968000", "113742.984000", "113742.984000"],
      "DataSetTrailingPadding": [
        "\u0000\u0000\u0000\u0000\u0000\u0000\u0000\u0000\u0000\u0000\u0000\u0000\u0000\u0000\u0000\u0000\u0000\u0000\u0000\u0000\u0000\u0000\u0000\u0000\u0000\u0000\u0000\u0000\u0000\u0000\u0000\u0000\u0000\u0000\u0000\u0000\u0000\u0000\u0000\u0000\u0000\u0000\u0000\u0000\u0000\u0000\u0000\u0000\u0000\u0000\u0000\u0000\u0000\u0000\u0000\u0000\u0000\u0000\u0000\u0000\u0000\u0000\u0000\u0000\u0000\u0000\u0000\u0000\u0000\u0000\u0000\u0000",
        "\u0000\u0000\u0000\u0000\u0000\u0000\u0000\u0000\u0000\u0000\u0000\u0000\u0000\u0000\u0000\u0000\u0000\u0000\u0000\u0000\u0000\u0000\u0000\u0000\u0000\u0000\u0000\u0000\u0000\u0000\u0000\u0000\u0000\u0000\u0000\u0000\u0000\u0000\u0000\u0000\u0000\u0000\u0000\u0000\u0000\u0000\u0000\u0000\u0000\u0000\u0000\u0000\u0000\u0000\u0000\u0000\u0000\u0000\u0000\u0000\u0000\u0000\u0000\u0000\u0000\u0000\u0000\u0000\u0000\u0000\u0000\u0000",
        "\u0000\u0000\u0000\u0000\u0000\u0000\u0000\u0000\u0000\u0000\u0000\u0000\u0000\u0000\u0000\u0000\u0000\u0000\u0000\u0000\u0000\u0000\u0000\u0000\u0000\u0000\u0000\u0000\u0000\u0000\u0000\u0000\u0000\u0000\u0000\u0000\u0000\u0000\u0000\u0000\u0000\u0000\u0000\u0000\u0000\u0000\u0000\u0000\u0000\u0000\u0000\u0000\u0000\u0000\u0000\u0000\u0000\u0000\u0000\u0000\u0000\u0000\u0000\u0000\u0000\u0000\u0000\u0000\u0000\u0000",
        "\u0000\u0000\u0000\u0000\u0000\u0000\u0000\u0000\u0000\u0000\u0000\u0000\u0000\u0000\u0000\u0000\u0000\u0000\u0000\u0000\u0000\u0000\u0000\u0000\u0000\u0000\u0000\u0000\u0000\u0000\u0000\u0000\u0000\u0000\u0000\u0000\u0000\u0000\u0000\u0000\u0000\u0000\u0000\u0000\u0000\u0000\u0000\u0000\u0000\u0000\u0000\u0000\u0000\u0000\u0000\u0000\u0000\u0000\u0000\u0000\u0000\u0000\u0000\u0000\u0000\u0000\u0000\u0000\u0000\u0000",
