{
  "AcquisitionMatrixPE": 104,
  "AcquisitionNumber": 1,
  "AcquisitionTime": "14:51:39.720000",
  "BandwidthPerPixelPhaseEncode": 13.935,
  "BaseResolution": 104,
  "CoilString": "C:HEA;HEP",
  "ConversionSoftware": "dcm2niix",
  "ConversionSoftwareVersion": "v1.0.20210317",
  "DerivedVendorReportedEchoSpacing": 0.000690017,
  "DeviceSerialNumber": "35450",
  "DwellTime": 2.5e-06,
  "EchoTime": 0.0348,
  "EffectiveEchoSpacing": 0.000690017,
  "FlipAngle": 55,
  "ImageComments": "Unaliased MB8/PE3 (remote)",
  "ImageOrientationPatientDICOM": [0.999926, 0.0016085, 0.0120556, 4.42166e-08, 0.991216, -0.132256],
  "ImageType": [
    "ORIGINAL",
    "PRIMARY",
    "M",
    "MB",
    "ND",
    "MOSAIC"
],
  "ImagingFrequency": 123.234,
  "InPlanePhaseEncodingDirectionDICOM": "COL",
  "InstitutionAddress": "Univeristy Ave. 197,Newark,North East,US,07102-1814",
  "InstitutionName": "RUBIC",
  "InstitutionalDepartmentName": "Department",
  "MRAcquisitionType": "2D",
  "MagneticFieldStrength": 3,
  "Manufacturer": "Siemens",
  "ManufacturersModelName": "TrioTim",
  "Modality": "MR",
  "MultibandAccelerationFactor": 8,
  "PartialFourier": 0.875,
  "PatientPosition": "HFS",
  "PercentPhaseFOV": 100,
  "PercentSampling": 100,
  "PhaseEncodingDirection": "j-",
  "PhaseEncodingSteps": 91,
  "PhaseResolution": 1,
  "PixelBandwidth": 1923,
  "ProcedureStepDescription": "Cole^Michael",
  "ProtocolName": "cmrr_mbep2d_bold_2mm_MB8_Task_8x",
  "PulseSequenceDetails": "%CustomerSeq%\\cmrr_mbep2d_bold",
  "ReceiveCoilName": "32Ch_Head",
  "ReconMatrixPE": 104,
  "RepetitionTime": 0.785,
  "SAR": 0.131693,
  "ScanOptions": "PFP\\FS",
  "ScanningSequence": "EP",
  "SequenceName": "epfid2d1_104",
  "SequenceVariant": "SK\\SS",
  "SeriesDescription": "cmrr_mbep2d_bold_2mm_MB8_Task_8x",
  "SeriesNumber": 15,
  "ShimSetting": [2126, -415, -7290, 571, -7, -105, 104, 75],
  "SliceThickness": 2,
  "SliceTiming": [0, 0.4375, 0.0875, 0.525, 0.175, 0.6125, 0.2625, 0.7, 0.35, 0, 0.4375, 0.0875, 0.525, 0.175, 0.6125, 0.2625, 0.7, 0.35, 0, 0.4375, 0.0875, 0.525, 0.175, 0.6125, 0.2625, 0.7, 0.35, 0, 0.4375, 0.0875, 0.525, 0.175, 0.6125, 0.2625, 0.7, 0.35, 0, 0.4375, 0.0875, 0.525, 0.175, 0.6125, 0.2625, 0.7, 0.35, 0, 0.4375, 0.0875, 0.525, 0.175, 0.6125, 0.2625, 0.7, 0.35, 0, 0.4375, 0.0875, 0.525, 0.175, 0.6125, 0.2625, 0.7, 0.35, 0, 0.4375, 0.0875, 0.525, 0.175, 0.6125, 0.2625, 0.7, 0.35],
  "SoftwareVersions": "syngo MR B19",
  "SpacingBetweenSlices": 2,
  "StationName": "MRC35450",
  "TaskName": "cpro",
  "TotalReadoutTime": 0.0710717,
  "TxRefAmp": 321.497,
  "dcmmeta_affine": [
    [-1.9998520612716675, 8.843328203056444e-08, 0.024324825033545494, 103.97781372070312],
    [-0.003217006102204323, 1.9824312925338745, -0.26449158787727356, -80.29901123046875],
    [0.024111157283186913, 0.2645111680030823, 1.982284665107727, -111.53255462646484],
    [0.0, 0.0, 0.0, 1.0]
],
  "dcmmeta_reorient_transform": [
    [0.0, -1.0, 0.0, 103.0],
    [1.0, 0.0, 0.0, 0.0],
    [0.0, 0.0, 1.0, 0.0],
    [0.0, 0.0, 0.0, 1.0]
],
  "dcmmeta_shape": [104, 104, 72, 581],
  "dcmmeta_slice_dim": 2,
  "dcmmeta_version": 0.6,
  "global": {
    "const": {
      "AcquisitionMatrix": [104, 0, 0, 104],
      "AngioFlag": "N",
      "BitsAllocated": 16,
      "BitsStored": 12,
      "Columns": 936,
      "EchoNumbers": 1,
      "EchoTime": 34.8,
      "EchoTrainLength": 1,
      "FlipAngle": 55.0,
      "HighBit": 11,
      "ImageOrientationPatient": [0.99992603512999, 0.0016085030514, 0.01205557908826, 4.4216641e-08, 0.99121564832126, -0.1322555803098],
      "ImagePositionPatient": [-935.91632411949, -949.9211086267, 15.718497224878],
      "ImageType": [
        "ORIGINAL",
        "PRIMARY",
        "M",
        "MB",
        "ND",
        "MOSAIC"
],
      "ImagedNucleus": "1H",
      "ImagingFrequency": 123.234441,
      "InPlanePhaseEncodingDirection": "COL",
      "MRAcquisitionType": "2D",
      "MagneticFieldStrength": 3.0,
      "Manufacturer": "SIEMENS",
      "ManufacturerModelName": "TrioTim",
      "Modality": "MR",
      "NumberOfAverages": 1.0,
      "NumberOfPhaseEncodingSteps": 91,
      "PercentPhaseFieldOfView": 100.0,
      "PercentSampling": 100.0,
      "PerformedProcedureStepStartTime": "134016.312000",
      "PhotometricInterpretation": "MONOCHROME2",
      "PixelBandwidth": 1923.0,
      "PixelRepresentation": 0,
      "PixelSpacing": [2.0, 2.0],
      "ProtocolName": "cmrr_mbep2d_bold_2mm_MB8_Task_8x",
      "RepetitionTime": 785.0,
      "Rows": 936,
      "SAR": 0.13169320744857,
      "SamplesPerPixel": 1,
      "ScanOptions": [
        "PFP",
        "FS"
],
      "ScanningSequence": "EP",
      "SequenceName": "epfid2d1_104",
      "SequenceVariant": [
        "SK",
        "SS"
],
      "SeriesDescription": "cmrr_mbep2d_bold_2mm_MB8_Task_8x",
      "SeriesNumber": 15,
      "SeriesTime": "145213.937000",
      "SliceLocation": -98.660807513616,
      "SliceThickness": 2.0,
      "SmallestImagePixelValue": 0,
      "SoftwareVersions": "syngo MR B19",
      "SpacingBetweenSlices": 1.9999999865782,
      "SpecificCharacterSet": "ISO_IR 100",
      "StudyID": "1",
      "StudyTime": "134016.250000",
      "TransmitCoilName": "Body",
      "VariableFlipAngleFlag": "N",
      "WindowCenterWidthExplanation": "Algo1",
      "dBdt": 0.0},
    "slices": {}
  },
  "time": {
    "samples": {
      "AcquisitionNumber": [1, 2, 3, 4, 5, 6, 7, 8, 9, 10, 11, 12, 13, 14, 15, 16, 17, 18, 19, 20, 21, 22, 23, 24, 25, 26, 27, 28, 29, 30, 31, 32, 33, 34, 35, 36, 37, 38, 39, 40, 41, 42, 43, 44, 45, 46, 47, 48, 49, 50, 51, 52, 53, 54, 55, 56, 57, 58, 59, 60, 61, 62, 63, 64, 65, 66, 67, 68, 69, 70, 71, 72, 73, 74, 75, 76, 77, 78, 79, 80, 81, 82, 83, 84, 85, 86, 87, 88, 89, 90, 91, 92, 93, 94, 95, 96, 97, 98, 99, 100, 101, 102, 103, 104, 105, 106, 107, 108, 109, 110, 111, 112, 113, 114, 115, 116, 117, 118, 119, 120, 121, 122, 123, 124, 125, 126, 127, 128, 129, 130, 131, 132, 133, 134, 135, 136, 137, 138, 139, 140, 141, 142, 143, 144, 145, 146, 147, 148, 149, 150, 151, 152, 153, 154, 155, 156, 157, 158, 159, 160, 161, 162, 163, 164, 165, 166, 167, 168, 169, 170, 171, 172, 173, 174, 175, 176, 177, 178, 179, 180, 181, 182, 183, 184, 185, 186, 187, 188, 189, 190, 191, 192, 193, 194, 195, 196, 197, 198, 199, 200, 201, 202, 203, 204, 205, 206, 207, 208, 209, 210, 211, 212, 213, 214, 215, 216, 217, 218, 219, 220, 221, 222, 223, 224, 225, 226, 227, 228, 229, 230, 231, 232, 233, 234, 235, 236, 237, 238, 239, 240, 241, 242, 243, 244, 245, 246, 247, 248, 249, 250, 251, 252, 253, 254, 255, 256, 257, 258, 259, 260, 261, 262, 263, 264, 265, 266, 267, 268, 269, 270, 271, 272, 273, 274, 275, 276, 277, 278, 279, 280, 281, 282, 283, 284, 285, 286, 287, 288, 289, 290, 291, 292, 293, 294, 295, 296, 297, 298, 299, 300, 301, 302, 303, 304, 305, 306, 307, 308, 309, 310, 311, 312, 313, 314, 315, 316, 317, 318, 319, 320, 321, 322, 323, 324, 325, 326, 327, 328, 329, 330, 331, 332, 333, 334, 335, 336, 337, 338, 339, 340, 341, 342, 343, 344, 345, 346, 347, 348, 349, 350, 351, 352, 353, 354, 355, 356, 357, 358, 359, 360, 361, 362, 363, 364, 365, 366, 367, 368, 369, 370, 371, 372, 373, 374, 375, 376, 377, 378, 379, 380, 381, 382, 383, 384, 385, 386, 387, 388, 389, 390, 391, 392, 393, 394, 395, 396, 397, 398, 399, 400, 401, 402, 403, 404, 405, 406, 407, 408, 409, 410, 411, 412, 413, 414, 415, 416, 417, 418, 419, 420, 421, 422, 423, 424, 425, 426, 427, 428, 429, 430, 431, 432, 433, 434, 435, 436, 437, 438, 439, 440, 441, 442, 443, 444, 445, 446, 447, 448, 449, 450, 451, 452, 453, 454, 455, 456, 457, 458, 459, 460, 461, 462, 463, 464, 465, 466, 467, 468, 469, 470, 471, 472, 473, 474, 475, 476, 477, 478, 479, 480, 481, 482, 483, 484, 485, 486, 487, 488, 489, 490, 491, 492, 493, 494, 495, 496, 497, 498, 499, 500, 501, 502, 503, 504, 505, 506, 507, 508, 509, 510, 511, 512, 513, 514, 515, 516, 517, 518, 519, 520, 521, 522, 523, 524, 525, 526, 527, 528, 529, 530, 531, 532, 533, 534, 535, 536, 537, 538, 539, 540, 541, 542, 543, 544, 545, 546, 547, 548, 549, 550, 551, 552, 553, 554, 555, 556, 557, 558, 559, 560, 561, 562, 563, 564, 565, 566, 567, 568, 569, 570, 571, 572, 573, 574, 575, 576, 577, 578, 579, 580, 581],
      "AcquisitionTime": ["145139.720000", "145140.510000", "145141.297500", "145142.085000", "145142.872500", "145143.662500", "145144.450000", "145145.237500", "145146.025000", "145146.815000", "145147.602500", "145148.390000", "145149.177500", "145149.967500", "145150.755000", "145151.542500", "145152.332500", "145153.120000", "145153.907500", "145154.695000", "145155.485000", "145156.272500", "145157.060000", "145157.847500", "145158.637500", "145159.425000", "145200.212500", "145201.000000", "145201.790000", "145202.577500", "145203.365000", "145204.152500", "145204.942500", "145205.730000", "145206.517500", "145207.305000", "145208.095000", "145208.882500", "145209.670000", "145210.460000", "145211.247500", "145212.035000", "145212.822500", "145213.612500", "145214.400000", "145215.187500", "145215.975000", "145216.765000", "145217.552500", "145218.340000", "145219.127500", "145219.917500", "145220.705000", "145221.492500", "145222.280000", "145223.070000", "145223.857500", "145224.645000", "145225.432500", "145226.222500", "145227.010000", "145227.797500", "145228.587500", "145229.375000", "145230.162500", "145230.950000", "145231.740000", "145232.527500", "145233.315000", "145234.102500", "145234.892500", "145235.680000", "145236.467500", "145237.255000", "145238.045000", "145238.832500", "145239.620000", "145240.407500", "145241.197500", "145241.985000", "145242.772500", "145243.562500", "145244.350000", "145245.137500", "145245.925000", "145246.715000", "145247.502500", "145248.290000", "145249.077500", "145249.867500", "145250.655000", "145251.442500", "145252.230000", "145253.020000", "145253.807500", "145254.595000", "145255.382500", "145256.172500", "145256.960000", "145257.747500", "145258.535000", "145259.325000", "145300.112500", "145300.900000", "145301.690000", "145302.477500", "145303.265000", "145304.052500", "145304.842500", "145305.630000", "145306.417500", "145307.205000", "145307.995000", "145308.782500", "145309.570000", "145310.357500", "145311.147500", "145311.935000", "145312.722500", "145313.510000", "145314.300000", "145315.087500", "145315.875000", "145316.662500", "145317.452500", "145318.240000", "145319.027500", "145319.817500", "145320.605000", "145321.392500", "145322.180000", "145322.970000", "145323.757500", "145324.545000", "145325.332500", "145326.122500", "145326.910000", "145327.697500", "145328.485000", "145329.275000", "145330.062500", "145330.850000", "145331.637500", "145332.427500", "145333.215000", "145334.002500", "145334.790000", "145335.580000", "145336.367500", "145337.155000", "145337.945000", "145338.732500", "145339.520000", "145340.307500", "145341.097500", "145341.885000", "145342.672500", "145343.460000", "145344.250000", "145345.037500", "145345.825000", "145346.612500", "145347.402500", "145348.190000", "145348.977500", "145349.765000", "145350.555000", "145351.342500", "145352.130000", "145352.917500", "145353.707500", "145354.495000", "145355.282500", "145356.072500", "145356.860000", "145357.647500", "145358.435000", "145359.225000", "145400.012500", "145400.800000", "145401.587500", "145402.377500", "145403.165000", "145403.952500", "145404.740000", "145405.530000", "145406.317500", "145407.105000", "145407.892500", "145408.682500", "145409.470000", "145410.257500", "145411.045000", "145411.835000", "145412.622500", "145413.410000", "145414.200000", "145414.987500", "145415.775000", "145416.562500", "145417.352500", "145418.140000", "145418.927500", "145419.715000", "145420.505000", "145421.292500", "145422.080000", "145422.867500", "145423.657500", "145424.445000", "145425.232500", "145426.020000", "145426.810000", "145427.597500", "145428.385000", "145429.172500", "145429.962500", "145430.750000", "145431.537500", "145432.327500", "145433.115000", "145433.902500", "145434.690000", "145435.480000", "145436.267500", "145437.055000", "145437.842500", "145438.632500", "145439.420000", "145440.207500", "145440.995000", "145441.785000", "145442.572500", "145443.360000", "145444.147500", "145444.937500", "145445.725000", "145446.512500", "145447.300000", "145448.090000", "145448.877500", "145449.665000", "145450.455000", "145451.242500", "145452.030000", "145452.817500", "145453.607500", "145454.395000", "145455.182500", "145455.970000", "145456.760000", "145457.547500", "145458.335000", "145459.122500", "145459.912500", "145500.700000", "145501.487500", "145502.275000", "145503.065000", "145503.852500", "145504.640000", "145505.427500", "145506.217500", "145507.005000", "145507.792500", "145508.582500", "145509.370000", "145510.157500", "145510.945000", "145511.735000", "145512.522500", "145513.310000", "145514.097500", "145514.887500", "145515.675000", "145516.462500", "145517.250000", "145518.040000", "145518.827500", "145519.615000", "145520.402500", "145521.192500", "145521.980000", "145522.767500", "145523.555000", "145524.345000", "145525.132500", "145525.920000", "145526.710000", "145527.497500", "145528.285000", "145529.072500", "145529.862500", "145530.650000", "145531.437500", "145532.225000", "145533.015000", "145533.802500", "145534.590000", "145535.377500", "145536.167500", "145536.955000", "145537.742500", "145538.530000", "145539.320000", "145540.107500", "145540.895000", "145541.682500", "145542.472500", "145543.260000", "145544.047500", "145544.837500", "145545.625000", "145546.412500", "145547.200000", "145547.990000", "145548.777500", "145549.565000", "145550.352500", "145551.142500", "145551.930000", "145552.717500", "145553.505000", "145554.295000", "145555.082500", "145555.870000", "145556.657500", "145557.447500", "145558.235000", "145559.022500", "145559.812500", "145600.600000", "145601.387500", "145602.175000", "145602.965000", "145603.752500", "145604.540000", "145605.327500", "145606.117500", "145606.905000", "145607.692500", "145608.480000", "145609.270000", "145610.057500", "145610.845000", "145611.632500", "145612.422500", "145613.210000", "145613.997500", "145614.785000", "145615.575000", "145616.362500", "145617.150000", "145617.940000", "145618.727500", "145619.515000", "145620.302500", "145621.092500", "145621.880000", "145622.667500", "145623.455000", "145624.245000", "145625.032500", "145625.820000", "145626.607500", "145627.397500", "145628.185000", "145628.972500", "145629.760000", "145630.550000", "145631.337500", "145632.125000", "145632.912500", "145633.702500", "145634.490000", "145635.277500", "145636.067500", "145636.855000", "145637.642500", "145638.430000", "145639.220000", "145640.007500", "145640.795000", "145641.582500", "145642.372500", "145643.160000", "145643.947500", "145644.735000", "145645.525000", "145646.312500", "145647.100000", "145647.887500", "145648.677500", "145649.465000", "145650.252500", "145651.040000", "145651.830000", "145652.617500", "145653.405000", "145654.195000", "145654.982500", "145655.770000", "145656.557500", "145657.347500", "145658.135000", "145658.922500", "145659.710000", "145700.500000", "145701.287500", "145702.075000", "145702.862500", "145703.652500", "145704.440000", "145705.227500", "145706.015000", "145706.805000", "145707.592500", "145708.380000", "145709.167500", "145709.957500", "145710.745000", "145711.532500", "145712.322500", "145713.110000", "145713.897500", "145714.685000", "145715.475000", "145716.262500", "145717.050000", "145717.837500", "145718.627500", "145719.415000", "145720.202500", "145720.990000", "145721.780000", "145722.567500", "145723.355000", "145724.142500", "145724.932500", "145725.720000", "145726.507500", "145727.295000", "145728.085000", "145728.872500", "145729.660000", "145730.450000", "145731.237500", "145732.025000", "145732.812500", "145733.602500", "145734.390000", "145735.177500", "145735.965000", "145736.755000", "145737.542500", "145738.330000", "145739.117500", "145739.907500", "145740.695000", "145741.482500", "145742.270000", "145743.060000", "145743.847500", "145744.635000", "145745.422500", "145746.212500", "145747.000000", "145747.787500", "145748.577500", "145749.365000", "145750.152500", "145750.940000", "145751.730000", "145752.517500", "145753.305000", "145754.092500", "145754.882500", "145755.670000", "145756.457500", "145757.245000", "145758.035000", "145758.822500", "145759.610000", "145800.397500", "145801.187500", "145801.975000", "145802.762500", "145803.550000", "145804.340000", "145805.127500", "145805.915000", "145806.705000", "145807.492500", "145808.280000", "145809.067500", "145809.857500", "145810.645000", "145811.432500", "145812.220000", "145813.010000", "145813.797500", "145814.585000", "145815.372500", "145816.162500", "145816.950000", "145817.737500", "145818.525000", "145819.315000", "145820.102500", "145820.890000", "145821.677500", "145822.467500", "145823.255000", "145824.042500", "145824.832500", "145825.620000", "145826.407500", "145827.195000", "145827.985000", "145828.772500", "145829.560000", "145830.347500", "145831.137500", "145831.925000", "145832.712500", "145833.500000", "145834.290000", "145835.077500", "145835.865000", "145836.652500", "145837.442500", "145838.230000", "145839.017500", "145839.805000", "145840.595000", "145841.382500", "145842.170000", "145842.960000", "145843.747500", "145844.535000", "145845.322500", "145846.112500", "145846.900000", "145847.687500", "145848.475000", "145849.265000", "145850.052500", "145850.840000", "145851.627500", "145852.417500", "145853.205000", "145853.992500", "145854.780000", "145855.570000", "145856.357500", "145857.145000", "145857.932500", "145858.722500", "145859.510000", "145900.297500", "145901.087500", "145901.875000", "145902.662500", "145903.450000", "145904.240000", "145905.027500", "145905.815000", "145906.602500", "145907.392500", "145908.180000", "145908.967500", "145909.755000", "145910.545000", "145911.332500", "145912.120000", "145912.907500", "145913.697500", "145914.485000", "145915.272500", "145916.062500", "145916.850000"],
      "ContentTime": ["145213.953000", "145213.953000", "145213.953000", "145213.953000", "145213.953000", "145213.953000", "145213.953000", "145213.953000", "145213.968000", "145213.968000", "145213.968000", "145213.968000", "145213.968000", "145213.968000", "145213.968000", "145213.984000", "145213.984000", "145213.984000", "145213.984000", "145213.984000", "145213.984000", "145213.984000", "145213.984000", "145214.000000", "145214.000000", "145214.000000", "145214.000000", "145214.000000", "145214.000000", "145214.000000", "145214.000000", "145214.015000", "145214.015000", "145214.015000", "145214.015000", "145214.015000", "145214.015000", "145214.015000", "145214.031000", "145214.031000", "145214.031000", "145233.906000", "145233.906000", "145233.906000", "145233.921000", "145233.921000", "145233.921000", "145233.921000", "145233.921000", "145233.921000", "145233.921000", "145233.921000", "145233.937000", "145233.937000", "145233.937000", "145233.937000", "145233.937000", "145233.937000", "145233.937000", "145233.953000", "145233.953000", "145233.953000", "145233.953000", "145233.953000", "145233.953000", "145233.953000", "145253.906000", "145253.906000", "145253.906000", "145253.921000", "145253.921000", "145253.921000", "145253.921000", "145253.921000", "145253.921000", "145253.921000", "145253.921000", "145253.937000", "145253.937000", "145253.937000", "145253.937000", "145253.937000", "145253.937000", "145253.937000", "145253.937000", "145253.953000", "145253.953000", "145253.953000", "145253.953000", "145253.953000", "145253.953000", "145253.953000", "145313.906000", "145313.906000", "145313.906000", "145313.921000", "145313.921000", "145313.921000", "145313.921000", "145313.921000", "145313.921000", "145313.921000", "145313.921000", "145313.937000", "145313.937000", "145313.937000", "145313.937000", "145313.937000", "145313.937000", "145313.937000", "145313.937000", "145313.953000", "145313.953000", "145313.953000", "145313.953000", "145313.953000", "145313.953000", "145333.906000", "145333.906000", "145333.906000", "145333.921000", "145333.921000", "145333.921000", "145333.921000", "145333.921000", "145333.921000", "145333.921000", "145333.921000", "145333.937000", "145333.937000", "145333.937000", "145333.937000", "145333.937000", "145333.937000", "145333.937000", "145333.937000", "145333.953000", "145333.953000", "145333.953000", "145333.953000", "145333.953000", "145333.953000", "145333.953000", "145353.906000", "145353.906000", "145353.906000", "145353.921000", "145353.921000", "145353.921000", "145353.921000", "145353.921000", "145353.921000", "145353.921000", "145353.921000", "145353.937000", "145353.937000", "145353.937000", "145353.937000", "145353.937000", "145353.937000", "145353.937000", "145353.937000", "145353.953000", "145353.953000", "145353.953000", "145353.953000", "145353.953000", "145353.953000", "145413.906000", "145413.906000", "145413.906000", "145413.921000", "145413.921000", "145413.921000", "145413.921000", "145413.921000", "145413.921000", "145413.921000", "145413.921000", "145413.937000", "145413.937000", "145413.937000", "145413.937000", "145413.937000", "145413.937000", "145413.937000", "145413.937000", "145413.953000", "145413.953000", "145413.953000", "145413.953000", "145413.953000", "145413.953000", "145413.953000", "145433.906000", "145433.906000", "145433.906000", "145433.921000", "145433.921000", "145433.921000", "145433.921000", "145433.921000", "145433.921000", "145433.921000", "145433.921000", "145433.937000", "145433.937000", "145433.937000", "145433.937000", "145433.937000", "145433.937000", "145433.937000", "145433.937000", "145433.953000", "145433.953000", "145433.953000", "145433.953000", "145433.953000", "145433.953000", "145453.906000", "145453.906000", "145453.906000", "145453.921000", "145453.921000", "145453.921000", "145453.921000", "145453.921000", "145453.921000", "145453.921000", "145453.921000", "145453.937000", "145453.937000", "145453.937000", "145453.937000", "145453.937000", "145453.937000", "145453.937000", "145453.953000", "145453.953000", "145453.953000", "145453.953000", "145453.953000", "145453.953000", "145453.953000", "145453.953000", "145513.906000", "145513.906000", "145513.906000", "145513.921000", "145513.921000", "145513.921000", "145513.921000", "145513.921000", "145513.921000", "145513.921000", "145513.921000", "145513.937000", "145513.937000", "145513.937000", "145513.937000", "145513.937000", "145513.937000", "145513.937000", "145513.937000", "145513.953000", "145513.953000", "145513.953000", "145513.953000", "145513.953000", "145513.953000", "145533.906000", "145533.906000", "145533.906000", "145533.921000", "145533.921000", "145533.921000", "145533.921000", "145533.921000", "145533.921000", "145533.921000", "145533.921000", "145533.937000", "145533.937000", "145533.937000", "145533.937000", "145533.937000", "145533.937000", "145533.937000", "145533.953000", "145533.953000", "145533.953000", "145533.953000", "145533.953000", "145533.953000", "145533.953000", "145533.953000", "145553.906000", "145553.906000", "145553.906000", "145553.921000", "145553.921000", "145553.921000", "145553.921000", "145553.921000", "145553.921000", "145553.921000", "145553.921000", "145553.937000", "145553.937000", "145553.937000", "145553.937000", "145553.937000", "145553.937000", "145553.937000", "145553.953000", "145553.953000", "145553.953000", "145553.953000", "145553.953000", "145553.953000", "145553.953000", "145613.906000", "145613.906000", "145613.906000", "145613.921000", "145613.921000", "145613.921000", "145613.921000", "145613.921000", "145613.921000", "145613.921000", "145613.921000", "145613.937000", "145613.937000", "145613.937000", "145613.937000", "145613.937000", "145613.937000", "145613.937000", "145613.953000", "145613.953000", "145613.953000", "145613.953000", "145613.953000", "145613.953000", "145613.953000", "145613.968000", "145633.906000", "145633.906000", "145633.906000", "145633.921000", "145633.921000", "145633.921000", "145633.921000", "145633.921000", "145633.921000", "145633.921000", "145633.921000", "145633.937000", "145633.937000", "145633.937000", "145633.937000", "145633.937000", "145633.937000", "145633.937000", "145633.953000", "145633.953000", "145633.953000", "145633.953000", "145633.953000", "145633.953000", "145633.953000", "145653.906000", "145653.906000", "145653.906000", "145653.921000", "145653.921000", "145653.921000", "145653.921000", "145653.921000", "145653.921000", "145653.921000", "145653.921000", "145653.937000", "145653.937000", "145653.937000", "145653.937000", "145653.937000", "145653.937000", "145653.937000", "145653.953000", "145653.953000", "145653.953000", "145653.953000", "145653.953000", "145653.953000", "145653.953000", "145653.953000", "145713.906000", "145713.906000", "145713.906000", "145713.921000", "145713.921000", "145713.921000", "145713.921000", "145713.921000", "145713.921000", "145713.921000", "145713.921000", "145713.937000", "145713.937000", "145713.937000", "145713.937000", "145713.937000", "145713.937000", "145713.937000", "145713.953000", "145713.953000", "145713.953000", "145713.953000", "145713.953000", "145713.953000", "145713.953000", "145733.906000", "145733.906000", "145733.906000", "145733.921000", "145733.921000", "145733.921000", "145733.921000", "145733.921000", "145733.921000", "145733.921000", "145733.937000", "145733.937000", "145733.937000", "145733.937000", "145733.937000", "145733.937000", "145733.937000", "145733.937000", "145733.953000", "145733.953000", "145733.953000", "145733.953000", "145733.953000", "145733.953000", "145733.953000", "145753.906000", "145753.906000", "145753.906000", "145753.921000", "145753.921000", "145753.921000", "145753.921000", "145753.921000", "145753.921000", "145753.921000", "145753.937000", "145753.937000", "145753.937000", "145753.937000", "145753.937000", "145753.937000", "145753.937000", "145753.937000", "145753.953000", "145753.953000", "145753.953000", "145753.953000", "145753.953000", "145753.953000", "145753.953000", "145753.968000", "145813.906000", "145813.906000", "145813.906000", "145813.921000", "145813.921000", "145813.921000", "145813.921000", "145813.921000", "145813.921000", "145813.921000", "145813.921000", "145813.937000", "145813.937000", "145813.937000", "145813.937000", "145813.937000", "145813.937000", "145813.937000", "145813.953000", "145813.953000", "145813.953000", "145813.953000", "145813.953000", "145813.953000", "145813.953000", "145833.906000", "145833.906000", "145833.906000", "145833.921000", "145833.921000", "145833.921000", "145833.921000", "145833.921000", "145833.921000", "145833.921000", "145833.921000", "145833.937000", "145833.937000", "145833.937000", "145833.937000", "145833.937000", "145833.937000", "145833.937000", "145833.953000", "145833.953000", "145833.953000", "145833.953000", "145833.953000", "145833.953000", "145833.953000", "145833.953000", "145853.906000", "145853.906000", "145853.906000", "145853.921000", "145853.921000", "145853.921000", "145853.921000", "145853.921000", "145853.921000", "145853.921000", "145853.921000", "145853.937000", "145853.937000", "145853.937000", "145853.937000", "145853.953000", "145853.953000", "145853.953000", "145853.953000", "145853.953000", "145853.953000", "145853.953000", "145853.968000", "145853.968000", "145853.968000", "145913.906000", "145913.906000", "145913.906000", "145913.921000", "145913.921000", "145913.921000", "145913.921000", "145913.921000", "145913.921000", "145913.921000", "145913.921000", "145913.937000", "145913.937000", "145913.937000", "145913.937000", "145913.937000", "145913.937000", "145913.937000", "145913.953000", "145913.953000", "145913.953000", "145913.953000", "145913.953000", "145913.953000", "145913.953000", "145913.953000", "145917.515000", "145917.515000", "145917.515000", "145917.515000", "145917.515000"],
