{
  "AcquisitionMatrixPE": 104,
  "AcquisitionNumber": 1,
  "AcquisitionTime": "14:59:38.740000",
  "BandwidthPerPixelPhaseEncode": 13.935,
  "BaseResolution": 104,
  "CoilString": "C:HEA;HEP",
  "ConversionSoftware": "dcm2niix",
  "ConversionSoftwareVersion": "v1.0.20210317",
  "DerivedVendorReportedEchoSpacing": 0.000690017,
  "DeviceSerialNumber": "35450",
  "DwellTime": 2.5e-06,
  "EchoTime": 0.0348,
  "EffectiveEchoSpacing": 0.000690017,
  "FlipAngle": 55,
  "ImageComments": "Unaliased MB8/PE3 (remote)",
  "ImageOrientationPatientDICOM": [0.999926, 0.0016085, 0.0120556, 4.42166e-08, 0.991216, -0.132256],
  "ImageType": [
    "ORIGINAL",
    "PRIMARY",
    "M",
    "MB",
    "ND",
    "MOSAIC"
],
  "ImagingFrequency": 123.234,
  "InPlanePhaseEncodingDirectionDICOM": "COL",
  "InstitutionAddress": "Univeristy Ave. 197,Newark,North East,US,07102-1814",
  "InstitutionName": "RUBIC",
  "InstitutionalDepartmentName": "Department",
  "MRAcquisitionType": "2D",
  "MagneticFieldStrength": 3,
  "Manufacturer": "Siemens",
  "ManufacturersModelName": "TrioTim",
  "Modality": "MR",
  "MultibandAccelerationFactor": 8,
  "PartialFourier": 0.875,
  "PatientPosition": "HFS",
  "PercentPhaseFOV": 100,
  "PercentSampling": 100,
  "PhaseEncodingDirection": "j-",
  "PhaseEncodingSteps": 91,
  "PhaseResolution": 1,
  "PixelBandwidth": 1923,
  "ProcedureStepDescription": "Cole^Michael",
  "ProtocolName": "cmrr_mbep2d_bold_2mm_MB8_Task_8x",
  "PulseSequenceDetails": "%CustomerSeq%\\cmrr_mbep2d_bold",
  "ReceiveCoilName": "32Ch_Head",
  "ReconMatrixPE": 104,
  "RepetitionTime": 0.785,
  "SAR": 0.131693,
  "ScanOptions": "PFP\\FS",
  "ScanningSequence": "EP",
  "SequenceName": "epfid2d1_104",
  "SequenceVariant": "SK\\SS",
  "SeriesDescription": "cmrr_mbep2d_bold_2mm_MB8_Task_8x",
  "SeriesNumber": 17,
  "ShimSetting": [2126, -415, -7290, 571, -7, -105, 104, 75],
  "SliceThickness": 2,
  "SliceTiming": [0, 0.4375, 0.0875, 0.525, 0.175, 0.6125, 0.2625, 0.7, 0.35, 0, 0.4375, 0.0875, 0.525, 0.175, 0.6125, 0.2625, 0.7, 0.35, 0, 0.4375, 0.0875, 0.525, 0.175, 0.6125, 0.2625, 0.7, 0.35, 0, 0.4375, 0.0875, 0.525, 0.175, 0.6125, 0.2625, 0.7, 0.35, 0, 0.4375, 0.0875, 0.525, 0.175, 0.6125, 0.2625, 0.7, 0.35, 0, 0.4375, 0.0875, 0.525, 0.175, 0.6125, 0.2625, 0.7, 0.35, 0, 0.4375, 0.0875, 0.525, 0.175, 0.6125, 0.2625, 0.7, 0.35, 0, 0.4375, 0.0875, 0.525, 0.175, 0.6125, 0.2625, 0.7, 0.35],
  "SoftwareVersions": "syngo MR B19",
  "SpacingBetweenSlices": 2,
  "StationName": "MRC35450",
  "TaskName": "cpro",
  "TotalReadoutTime": 0.0710717,
  "TxRefAmp": 321.497,
  "dcmmeta_affine": [
    [-1.9998520612716675, 8.843328203056444e-08, 0.024324825033545494, 103.97781372070312],
    [-0.003217006102204323, 1.9824312925338745, -0.26449158787727356, -80.29901123046875],
    [0.024111157283186913, 0.2645111680030823, 1.982284665107727, -111.53255462646484],
    [0.0, 0.0, 0.0, 1.0]
],
  "dcmmeta_reorient_transform": [
    [0.0, -1.0, 0.0, 103.0],
    [1.0, 0.0, 0.0, 0.0],
    [0.0, 0.0, 1.0, 0.0],
    [0.0, 0.0, 0.0, 1.0]
],
  "dcmmeta_shape": [104, 104, 72, 581],
  "dcmmeta_slice_dim": 2,
  "dcmmeta_version": 0.6,
  "global": {
    "const": {
      "AcquisitionMatrix": [104, 0, 0, 104],
      "AngioFlag": "N",
      "BitsAllocated": 16,
      "BitsStored": 12,
      "Columns": 936,
      "EchoNumbers": 1,
      "EchoTime": 34.8,
      "EchoTrainLength": 1,
      "FlipAngle": 55.0,
      "HighBit": 11,
      "ImageOrientationPatient": [0.99992603512999, 0.0016085030514, 0.01205557908826, 4.4216641e-08, 0.99121564832126, -0.1322555803098],
      "ImagePositionPatient": [-935.91632411949, -949.9211086267, 15.718497224878],
      "ImageType": [
        "ORIGINAL",
        "PRIMARY",
        "M",
        "MB",
        "ND",
        "MOSAIC"
],
      "ImagedNucleus": "1H",
      "ImagingFrequency": 123.234441,
      "InPlanePhaseEncodingDirection": "COL",
      "MRAcquisitionType": "2D",
      "MagneticFieldStrength": 3.0,
      "Manufacturer": "SIEMENS",
      "ManufacturerModelName": "TrioTim",
      "Modality": "MR",
      "NumberOfAverages": 1.0,
      "NumberOfPhaseEncodingSteps": 91,
      "PercentPhaseFieldOfView": 100.0,
      "PercentSampling": 100.0,
      "PerformedProcedureStepStartTime": "134016.312000",
      "PhotometricInterpretation": "MONOCHROME2",
      "PixelBandwidth": 1923.0,
      "PixelRepresentation": 0,
      "PixelSpacing": [2.0, 2.0],
      "ProtocolName": "cmrr_mbep2d_bold_2mm_MB8_Task_8x",
      "RepetitionTime": 785.0,
      "Rows": 936,
      "SAR": 0.13169320744857,
      "SamplesPerPixel": 1,
      "ScanOptions": [
        "PFP",
        "FS"
],
      "ScanningSequence": "EP",
      "SequenceName": "epfid2d1_104",
      "SequenceVariant": [
        "SK",
        "SS"
],
      "SeriesDescription": "cmrr_mbep2d_bold_2mm_MB8_Task_8x",
      "SeriesNumber": 17,
      "SeriesTime": "150013.921000",
      "SliceLocation": -98.660807513616,
      "SliceThickness": 2.0,
      "SmallestImagePixelValue": 0,
      "SoftwareVersions": "syngo MR B19",
      "SpacingBetweenSlices": 1.9999999865782,
      "SpecificCharacterSet": "ISO_IR 100",
      "StudyID": "1",
      "StudyTime": "134016.250000",
      "TransmitCoilName": "Body",
      "VariableFlipAngleFlag": "N",
      "WindowCenterWidthExplanation": "Algo1",
      "dBdt": 0.0},
    "slices": {}
  },
  "time": {
    "samples": {
      "AcquisitionNumber": [1, 2, 3, 4, 5, 6, 7, 8, 9, 10, 11, 12, 13, 14, 15, 16, 17, 18, 19, 20, 21, 22, 23, 24, 25, 26, 27, 28, 29, 30, 31, 32, 33, 34, 35, 36, 37, 38, 39, 40, 41, 42, 43, 44, 45, 46, 47, 48, 49, 50, 51, 52, 53, 54, 55, 56, 57, 58, 59, 60, 61, 62, 63, 64, 65, 66, 67, 68, 69, 70, 71, 72, 73, 74, 75, 76, 77, 78, 79, 80, 81, 82, 83, 84, 85, 86, 87, 88, 89, 90, 91, 92, 93, 94, 95, 96, 97, 98, 99, 100, 101, 102, 103, 104, 105, 106, 107, 108, 109, 110, 111, 112, 113, 114, 115, 116, 117, 118, 119, 120, 121, 122, 123, 124, 125, 126, 127, 128, 129, 130, 131, 132, 133, 134, 135, 136, 137, 138, 139, 140, 141, 142, 143, 144, 145, 146, 147, 148, 149, 150, 151, 152, 153, 154, 155, 156, 157, 158, 159, 160, 161, 162, 163, 164, 165, 166, 167, 168, 169, 170, 171, 172, 173, 174, 175, 176, 177, 178, 179, 180, 181, 182, 183, 184, 185, 186, 187, 188, 189, 190, 191, 192, 193, 194, 195, 196, 197, 198, 199, 200, 201, 202, 203, 204, 205, 206, 207, 208, 209, 210, 211, 212, 213, 214, 215, 216, 217, 218, 219, 220, 221, 222, 223, 224, 225, 226, 227, 228, 229, 230, 231, 232, 233, 234, 235, 236, 237, 238, 239, 240, 241, 242, 243, 244, 245, 246, 247, 248, 249, 250, 251, 252, 253, 254, 255, 256, 257, 258, 259, 260, 261, 262, 263, 264, 265, 266, 267, 268, 269, 270, 271, 272, 273, 274, 275, 276, 277, 278, 279, 280, 281, 282, 283, 284, 285, 286, 287, 288, 289, 290, 291, 292, 293, 294, 295, 296, 297, 298, 299, 300, 301, 302, 303, 304, 305, 306, 307, 308, 309, 310, 311, 312, 313, 314, 315, 316, 317, 318, 319, 320, 321, 322, 323, 324, 325, 326, 327, 328, 329, 330, 331, 332, 333, 334, 335, 336, 337, 338, 339, 340, 341, 342, 343, 344, 345, 346, 347, 348, 349, 350, 351, 352, 353, 354, 355, 356, 357, 358, 359, 360, 361, 362, 363, 364, 365, 366, 367, 368, 369, 370, 371, 372, 373, 374, 375, 376, 377, 378, 379, 380, 381, 382, 383, 384, 385, 386, 387, 388, 389, 390, 391, 392, 393, 394, 395, 396, 397, 398, 399, 400, 401, 402, 403, 404, 405, 406, 407, 408, 409, 410, 411, 412, 413, 414, 415, 416, 417, 418, 419, 420, 421, 422, 423, 424, 425, 426, 427, 428, 429, 430, 431, 432, 433, 434, 435, 436, 437, 438, 439, 440, 441, 442, 443, 444, 445, 446, 447, 448, 449, 450, 451, 452, 453, 454, 455, 456, 457, 458, 459, 460, 461, 462, 463, 464, 465, 466, 467, 468, 469, 470, 471, 472, 473, 474, 475, 476, 477, 478, 479, 480, 481, 482, 483, 484, 485, 486, 487, 488, 489, 490, 491, 492, 493, 494, 495, 496, 497, 498, 499, 500, 501, 502, 503, 504, 505, 506, 507, 508, 509, 510, 511, 512, 513, 514, 515, 516, 517, 518, 519, 520, 521, 522, 523, 524, 525, 526, 527, 528, 529, 530, 531, 532, 533, 534, 535, 536, 537, 538, 539, 540, 541, 542, 543, 544, 545, 546, 547, 548, 549, 550, 551, 552, 553, 554, 555, 556, 557, 558, 559, 560, 561, 562, 563, 564, 565, 566, 567, 568, 569, 570, 571, 572, 573, 574, 575, 576, 577, 578, 579, 580, 581],
      "AcquisitionTime": ["145938.740000", "145939.527500", "145940.317500", "145941.105000", "145941.892500", "145942.680000", "145943.470000", "145944.257500", "145945.045000", "145945.832500", "145946.622500", "145947.410000", "145948.197500", "145948.985000", "145949.775000", "145950.562500", "145951.350000", "145952.137500", "145952.927500", "145953.715000", "145954.502500", "145955.292500", "145956.080000", "145956.867500", "145957.655000", "145958.445000", "145959.232500", "150000.020000", "150000.807500", "150001.597500", "150002.385000", "150003.172500", "150003.960000", "150004.750000", "150005.537500", "150006.325000", "150007.112500", "150007.902500", "150008.690000", "150009.477500", "150010.265000", "150011.055000", "150011.842500", "150012.630000", "150013.420000", "150014.207500", "150014.995000", "150015.782500", "150016.572500", "150017.360000", "150018.147500", "150018.935000", "150019.725000", "150020.512500", "150021.300000", "150022.087500", "150022.877500", "150023.665000", "150024.452500", "150025.240000", "150026.030000", "150026.817500", "150027.605000", "150028.392500", "150029.182500", "150029.970000", "150030.757500", "150031.547500", "150032.335000", "150033.122500", "150033.910000", "150034.700000", "150035.487500", "150036.275000", "150037.062500", "150037.852500", "150038.640000", "150039.427500", "150040.215000", "150041.005000", "150041.792500", "150042.580000", "150043.367500", "150044.157500", "150044.945000", "150045.732500", "150046.520000", "150047.310000", "150048.097500", "150048.885000", "150049.675000", "150050.462500", "150051.250000", "150052.037500", "150052.827500", "150053.615000", "150054.402500", "150055.190000", "150055.980000", "150056.767500", "150057.555000", "150058.342500", "150059.132500", "150059.920000", "150100.707500", "150101.495000", "150102.285000", "150103.072500", "150103.860000", "150104.650000", "150105.437500", "150106.225000", "150107.012500", "150107.802500", "150108.590000", "150109.377500", "150110.165000", "150110.955000", "150111.742500", "150112.530000", "150113.317500", "150114.107500", "150114.895000", "150115.682500", "150116.470000", "150117.260000", "150118.047500", "150118.835000", "150119.622500", "150120.412500", "150121.200000", "150121.987500", "150122.777500", "150123.565000", "150124.352500", "150125.140000", "150125.930000", "150126.717500", "150127.505000", "150128.292500", "150129.082500", "150129.870000", "150130.657500", "150131.445000", "150132.235000", "150133.022500", "150133.810000", "150134.597500", "150135.387500", "150136.175000", "150136.962500", "150137.750000", "150138.540000", "150139.327500", "150140.115000", "150140.905000", "150141.692500", "150142.480000", "150143.267500", "150144.057500", "150144.845000", "150145.632500", "150146.420000", "150147.210000", "150147.997500", "150148.785000", "150149.572500", "150150.362500", "150151.150000", "150151.937500", "150152.725000", "150153.515000", "150154.302500", "150155.090000", "150155.877500", "150156.667500", "150157.455000", "150158.242500", "150159.032500", "150159.820000", "150200.607500", "150201.395000", "150202.185000", "150202.972500", "150203.760000", "150204.547500", "150205.337500", "150206.125000", "150206.912500", "150207.700000", "150208.490000", "150209.277500", "150210.065000", "150210.852500", "150211.642500", "150212.430000", "150213.217500", "150214.005000", "150214.795000", "150215.582500", "150216.370000", "150217.160000", "150217.947500", "150218.735000", "150219.522500", "150220.312500", "150221.100000", "150221.887500", "150222.675000", "150223.465000", "150224.252500", "150225.040000", "150225.827500", "150226.617500", "150227.405000", "150228.192500", "150228.980000", "150229.770000", "150230.557500", "150231.345000", "150232.132500", "150232.922500", "150233.710000", "150234.497500", "150235.287500", "150236.075000", "150236.862500", "150237.650000", "150238.440000", "150239.227500", "150240.015000", "150240.802500", "150241.592500", "150242.380000", "150243.167500", "150243.955000", "150244.745000", "150245.532500", "150246.320000", "150247.107500", "150247.897500", "150248.685000", "150249.472500", "150250.260000", "150251.050000", "150251.837500", "150252.625000", "150253.415000", "150254.202500", "150254.990000", "150255.777500", "150256.567500", "150257.355000", "150258.142500", "150258.930000", "150259.720000", "150300.507500", "150301.295000", "150302.082500", "150302.872500", "150303.660000", "150304.447500", "150305.235000", "150306.025000", "150306.812500", "150307.600000", "150308.387500", "150309.177500", "150309.965000", "150310.752500", "150311.542500", "150312.330000", "150313.117500", "150313.905000", "150314.695000", "150315.482500", "150316.270000", "150317.057500", "150317.847500", "150318.635000", "150319.422500", "150320.210000", "150321.000000", "150321.787500", "150322.575000", "150323.362500", "150324.152500", "150324.940000", "150325.727500", "150326.515000", "150327.305000", "150328.092500", "150328.880000", "150329.670000", "150330.457500", "150331.245000", "150332.032500", "150332.822500", "150333.610000", "150334.397500", "150335.185000", "150335.975000", "150336.762500", "150337.550000", "150338.337500", "150339.127500", "150339.915000", "150340.702500", "150341.490000", "150342.280000", "150343.067500", "150343.855000", "150344.642500", "150345.432500", "150346.220000", "150347.007500", "150347.797500", "150348.585000", "150349.372500", "150350.160000", "150350.950000", "150351.737500", "150352.525000", "150353.312500", "150354.102500", "150354.890000", "150355.677500", "150356.465000", "150357.255000", "150358.042500", "150358.830000", "150359.617500", "150400.407500", "150401.195000", "150401.982500", "150402.770000", "150403.560000", "150404.347500", "150405.135000", "150405.925000", "150406.712500", "150407.500000", "150408.287500", "150409.077500", "150409.865000", "150410.652500", "150411.440000", "150412.230000", "150413.017500", "150413.805000", "150414.592500", "150415.382500", "150416.170000", "150416.957500", "150417.745000", "150418.535000", "150419.322500", "150420.110000", "150420.900000", "150421.687500", "150422.475000", "150423.262500", "150424.052500", "150424.840000", "150425.627500", "150426.415000", "150427.205000", "150427.992500", "150428.780000", "150429.567500", "150430.357500", "150431.145000", "150431.932500", "150432.720000", "150433.510000", "150434.297500", "150435.085000", "150435.872500", "150436.662500", "150437.450000", "150438.237500", "150439.027500", "150439.815000", "150440.602500", "150441.390000", "150442.180000", "150442.967500", "150443.755000", "150444.542500", "150445.332500", "150446.120000", "150446.907500", "150447.695000", "150448.485000", "150449.272500", "150450.060000", "150450.847500", "150451.637500", "150452.425000", "150453.212500", "150454.000000", "150454.790000", "150455.577500", "150456.365000", "150457.155000", "150457.942500", "150458.730000", "150459.517500", "150500.307500", "150501.095000", "150501.882500", "150502.670000", "150503.460000", "150504.247500", "150505.035000", "150505.822500", "150506.612500", "150507.400000", "150508.187500", "150508.975000", "150509.765000", "150510.552500", "150511.340000", "150512.127500", "150512.917500", "150513.705000", "150514.492500", "150515.282500", "150516.070000", "150516.857500", "150517.645000", "150518.435000", "150519.222500", "150520.010000", "150520.797500", "150521.587500", "150522.375000", "150523.162500", "150523.950000", "150524.740000", "150525.527500", "150526.315000", "150527.102500", "150527.892500", "150528.680000", "150529.467500", "150530.255000", "150531.045000", "150531.832500", "150532.620000", "150533.410000", "150534.197500", "150534.985000", "150535.772500", "150536.562500", "150537.350000", "150538.137500", "150538.925000", "150539.715000", "150540.502500", "150541.290000", "150542.077500", "150542.867500", "150543.655000", "150544.442500", "150545.230000", "150546.020000", "150546.807500", "150547.595000", "150548.382500", "150549.172500", "150549.960000", "150550.747500", "150551.537500", "150552.325000", "150553.112500", "150553.900000", "150554.690000", "150555.477500", "150556.265000", "150557.052500", "150557.842500", "150558.630000", "150559.417500", "150600.205000", "150600.995000", "150601.782500", "150602.570000", "150603.357500", "150604.147500", "150604.935000", "150605.722500", "150606.510000", "150607.300000", "150608.087500", "150608.875000", "150609.665000", "150610.452500", "150611.240000", "150612.027500", "150612.817500", "150613.605000", "150614.392500", "150615.180000", "150615.970000", "150616.757500", "150617.545000", "150618.332500", "150619.122500", "150619.910000", "150620.697500", "150621.485000", "150622.275000", "150623.062500", "150623.850000", "150624.637500", "150625.427500", "150626.215000", "150627.002500", "150627.792500", "150628.580000", "150629.367500", "150630.155000", "150630.945000", "150631.732500", "150632.520000", "150633.307500", "150634.097500", "150634.885000", "150635.672500", "150636.460000", "150637.250000", "150638.037500", "150638.825000", "150639.612500", "150640.402500", "150641.190000", "150641.977500", "150642.765000", "150643.555000", "150644.342500", "150645.130000", "150645.920000", "150646.707500", "150647.495000", "150648.282500", "150649.072500", "150649.860000", "150650.647500", "150651.435000", "150652.225000", "150653.012500", "150653.800000", "150654.587500", "150655.377500", "150656.165000", "150656.952500", "150657.740000", "150658.530000", "150659.317500", "150700.105000", "150700.892500", "150701.682500", "150702.470000", "150703.257500", "150704.047500", "150704.835000", "150705.622500", "150706.410000", "150707.200000", "150707.987500", "150708.775000", "150709.562500", "150710.352500", "150711.140000", "150711.927500", "150712.715000", "150713.505000", "150714.292500", "150715.080000", "150715.867500"],
      "ContentTime": ["150013.921000", "150013.921000", "150013.921000", "150013.921000", "150013.921000", "150013.937000", "150013.937000", "150013.937000", "150013.937000", "150013.937000", "150013.937000", "150013.937000", "150013.953000", "150013.953000", "150013.953000", "150013.953000", "150013.953000", "150013.953000", "150013.953000", "150013.953000", "150013.984000", "150014.000000", "150014.000000", "150014.000000", "150014.000000", "150014.000000", "150014.000000", "150014.000000", "150014.015000", "150014.015000", "150014.015000", "150014.015000", "150014.015000", "150014.015000", "150014.015000", "150014.015000", "150014.031000", "150014.031000", "150014.031000", "150014.031000", "150014.031000", "150014.031000", "150033.890000", "150033.890000", "150033.890000", "150033.906000", "150033.906000", "150033.906000", "150033.906000", "150033.906000", "150033.906000", "150033.906000", "150033.906000", "150033.921000", "150033.921000", "150033.921000", "150033.921000", "150033.921000", "150033.921000", "150033.921000", "150033.937000", "150033.937000", "150033.937000", "150033.937000", "150033.937000", "150033.937000", "150033.937000", "150033.937000", "150053.890000", "150053.890000", "150053.890000", "150053.906000", "150053.906000", "150053.906000", "150053.906000", "150053.906000", "150053.906000", "150053.906000", "150053.906000", "150053.921000", "150053.921000", "150053.921000", "150053.921000", "150053.921000", "150053.921000", "150053.921000", "150053.937000", "150053.937000", "150053.937000", "150053.937000", "150053.953000", "150053.953000", "150053.953000", "150113.890000", "150113.890000", "150113.890000", "150113.906000", "150113.906000", "150113.906000", "150113.906000", "150113.906000", "150113.906000", "150113.906000", "150113.906000", "150113.921000", "150113.921000", "150113.921000", "150113.921000", "150113.921000", "150113.921000", "150113.921000", "150113.937000", "150113.937000", "150113.937000", "150113.937000", "150113.937000", "150113.937000", "150113.937000", "150113.937000", "150133.890000", "150133.890000", "150133.890000", "150133.906000", "150133.906000", "150133.906000", "150133.906000", "150133.906000", "150133.906000", "150133.906000", "150133.906000", "150133.921000", "150133.921000", "150133.921000", "150133.921000", "150133.921000", "150133.921000", "150133.921000", "150133.937000", "150133.937000", "150133.937000", "150133.937000", "150133.937000", "150133.937000", "150133.937000", "150153.890000", "150153.890000", "150153.890000", "150153.906000", "150153.906000", "150153.906000", "150153.906000", "150153.906000", "150153.906000", "150153.906000", "150153.906000", "150153.921000", "150153.921000", "150153.921000", "150153.921000", "150153.921000", "150153.921000", "150153.921000", "150153.937000", "150153.937000", "150153.937000", "150153.937000", "150153.937000", "150153.937000", "150153.937000", "150153.937000", "150213.890000", "150213.890000", "150213.890000", "150213.906000", "150213.906000", "150213.906000", "150213.906000", "150213.906000", "150213.906000", "150213.906000", "150213.906000", "150213.921000", "150213.921000", "150213.921000", "150213.921000", "150213.921000", "150213.921000", "150213.921000", "150213.921000", "150213.937000", "150213.937000", "150213.937000", "150213.937000", "150213.937000", "150213.937000", "150233.890000", "150233.890000", "150233.890000", "150233.906000", "150233.906000", "150233.906000", "150233.906000", "150233.906000", "150233.906000", "150233.906000", "150233.906000", "150233.921000", "150233.921000", "150233.921000", "150233.921000", "150233.921000", "150233.921000", "150233.921000", "150233.937000", "150233.937000", "150233.937000", "150233.937000", "150233.937000", "150233.937000", "150233.937000", "150233.937000", "150253.890000", "150253.890000", "150253.890000", "150253.906000", "150253.906000", "150253.906000", "150253.906000", "150253.906000", "150253.906000", "150253.906000", "150253.906000", "150253.921000", "150253.921000", "150253.921000", "150253.921000", "150253.921000", "150253.921000", "150253.921000", "150253.937000", "150253.937000", "150253.937000", "150253.937000", "150253.937000", "150253.937000", "150253.937000", "150313.890000", "150313.890000", "150313.890000", "150313.906000", "150313.906000", "150313.906000", "150313.906000", "150313.906000", "150313.906000", "150313.906000", "150313.906000", "150313.921000", "150313.921000", "150313.921000", "150313.921000", "150313.921000", "150313.921000", "150313.921000", "150313.937000", "150313.937000", "150313.937000", "150313.937000", "150313.937000", "150313.937000", "150313.937000", "150313.937000", "150333.890000", "150333.890000", "150333.890000", "150333.906000", "150333.906000", "150333.906000", "150333.906000", "150333.906000", "150333.906000", "150333.906000", "150333.921000", "150333.921000", "150333.921000", "150333.921000", "150333.921000", "150333.921000", "150333.921000", "150333.937000", "150333.937000", "150333.937000", "150333.937000", "150333.937000", "150333.937000", "150333.937000", "150333.937000", "150353.890000", "150353.890000", "150353.890000", "150353.906000", "150353.906000", "150353.906000", "150353.906000", "150353.906000", "150353.906000", "150353.906000", "150353.921000", "150353.921000", "150353.921000", "150353.921000", "150353.921000", "150353.921000", "150353.921000", "150353.921000", "150353.937000", "150353.937000", "150353.937000", "150353.937000", "150353.937000", "150353.937000", "150353.937000", "150353.953000", "150413.890000", "150413.890000", "150413.890000", "150413.906000", "150413.906000", "150413.906000", "150413.906000", "150413.906000", "150413.906000", "150413.906000", "150413.906000", "150413.921000", "150413.921000", "150413.921000", "150413.921000", "150413.921000", "150413.921000", "150413.921000", "150413.937000", "150413.937000", "150413.937000", "150413.937000", "150413.937000", "150413.937000", "150413.937000", "150433.890000", "150433.890000", "150433.890000", "150433.906000", "150433.906000", "150433.906000", "150433.906000", "150433.906000", "150433.906000", "150433.906000", "150433.906000", "150433.921000", "150433.921000", "150433.921000", "150433.921000", "150433.921000", "150433.921000", "150433.921000", "150433.921000", "150433.937000", "150433.937000", "150433.937000", "150433.937000", "150433.937000", "150433.937000", "150433.937000", "150453.890000", "150453.890000", "150453.890000", "150453.906000", "150453.906000", "150453.906000", "150453.906000", "150453.906000", "150453.906000", "150453.906000", "150453.906000", "150453.921000", "150453.921000", "150453.921000", "150453.921000", "150453.921000", "150453.921000", "150453.921000", "150453.937000", "150453.937000", "150453.937000", "150453.937000", "150453.937000", "150453.937000", "150453.937000", "150513.890000", "150513.890000", "150513.890000", "150513.906000", "150513.906000", "150513.906000", "150513.906000", "150513.906000", "150513.906000", "150513.906000", "150513.921000", "150513.921000", "150513.921000", "150513.921000", "150513.921000", "150513.921000", "150513.921000", "150513.921000", "150513.937000", "150513.937000", "150513.937000", "150513.937000", "150513.937000", "150513.937000", "150513.937000", "150513.953000", "150533.890000", "150533.890000", "150533.890000", "150533.906000", "150533.906000", "150533.906000", "150533.906000", "150533.906000", "150533.906000", "150533.906000", "150533.906000", "150533.921000", "150533.921000", "150533.921000", "150533.921000", "150533.921000", "150533.921000", "150533.921000", "150533.921000", "150533.937000", "150533.937000", "150533.937000", "150533.937000", "150533.937000", "150533.937000", "150553.890000", "150553.890000", "150553.890000", "150553.906000", "150553.906000", "150553.906000", "150553.906000", "150553.906000", "150553.906000", "150553.906000", "150553.906000", "150553.921000", "150553.921000", "150553.921000", "150553.921000", "150553.921000", "150553.921000", "150553.921000", "150553.937000", "150553.937000", "150553.937000", "150553.937000", "150553.937000", "150553.937000", "150553.937000", "150553.937000", "150613.890000", "150613.890000", "150613.890000", "150613.906000", "150613.906000", "150613.906000", "150613.906000", "150613.906000", "150613.906000", "150613.906000", "150613.906000", "150613.921000", "150613.921000", "150613.921000", "150613.921000", "150613.921000", "150613.921000", "150613.921000", "150613.937000", "150613.937000", "150613.937000", "150613.937000", "150613.937000", "150613.937000", "150613.937000", "150633.890000", "150633.890000", "150633.890000", "150633.906000", "150633.906000", "150633.906000", "150633.906000", "150633.906000", "150633.906000", "150633.906000", "150633.921000", "150633.921000", "150633.921000", "150633.921000", "150633.921000", "150633.921000", "150633.921000", "150633.921000", "150633.937000", "150633.937000", "150633.937000", "150633.937000", "150633.937000", "150633.937000", "150633.937000", "150633.937000", "150653.890000", "150653.890000", "150653.890000", "150653.906000", "150653.906000", "150653.906000", "150653.906000", "150653.906000", "150653.906000", "150653.906000", "150653.906000", "150653.921000", "150653.921000", "150653.921000", "150653.921000", "150653.921000", "150653.921000", "150653.921000", "150653.921000", "150653.937000", "150653.937000", "150653.937000", "150653.937000", "150653.937000", "150653.937000", "150713.890000", "150713.890000", "150713.890000", "150713.906000", "150713.906000", "150713.906000", "150713.906000", "150713.906000", "150713.906000", "150713.906000", "150713.906000", "150713.921000", "150713.921000", "150713.921000", "150713.921000", "150713.921000", "150713.921000", "150713.921000", "150713.937000", "150713.937000", "150713.937000", "150713.937000", "150713.937000", "150713.937000", "150713.937000", "150713.937000", "150716.187000", "150716.187000", "150716.203000"],
