{
  "AcquisitionMatrixPE": 104,
  "AcquisitionNumber": 1,
  "AcquisitionTime": "15:15:34.742500",
  "BandwidthPerPixelPhaseEncode": 13.935,
  "BaseResolution": 104,
  "CoilString": "C:HEA;HEP",
  "ConversionSoftware": "dcm2niix",
  "ConversionSoftwareVersion": "v1.0.20210317",
  "DerivedVendorReportedEchoSpacing": 0.000690017,
  "DeviceSerialNumber": "35450",
  "DwellTime": 2.5e-06,
  "EchoTime": 0.0348,
  "EffectiveEchoSpacing": 0.000690017,
  "FlipAngle": 55,
  "ImageComments": "Unaliased MB8/PE3 (remote)",
  "ImageOrientationPatientDICOM": [0.999926, 0.0016085, 0.0120556, 4.42166e-08, 0.991216, -0.132256],
  "ImageType": [
    "ORIGINAL",
    "PRIMARY",
    "M",
    "MB",
    "ND",
    "MOSAIC"
],
  "ImagingFrequency": 123.234,
  "InPlanePhaseEncodingDirectionDICOM": "COL",
  "InstitutionAddress": "Univeristy Ave. 197,Newark,North East,US,07102-1814",
  "InstitutionName": "RUBIC",
  "InstitutionalDepartmentName": "Department",
  "MRAcquisitionType": "2D",
  "MagneticFieldStrength": 3,
  "Manufacturer": "Siemens",
  "ManufacturersModelName": "TrioTim",
  "Modality": "MR",
  "MultibandAccelerationFactor": 8,
  "PartialFourier": 0.875,
  "PatientPosition": "HFS",
  "PercentPhaseFOV": 100,
  "PercentSampling": 100,
  "PhaseEncodingDirection": "j-",
  "PhaseEncodingSteps": 91,
  "PhaseResolution": 1,
  "PixelBandwidth": 1923,
  "ProcedureStepDescription": "Cole^Michael",
  "ProtocolName": "cmrr_mbep2d_bold_2mm_MB8_Task_8x",
  "PulseSequenceDetails": "%CustomerSeq%\\cmrr_mbep2d_bold",
  "ReceiveCoilName": "32Ch_Head",
  "ReconMatrixPE": 104,
  "RepetitionTime": 0.785,
  "SAR": 0.131693,
  "ScanOptions": "PFP\\FS",
  "ScanningSequence": "EP",
  "SequenceName": "epfid2d1_104",
  "SequenceVariant": "SK\\SS",
  "SeriesDescription": "cmrr_mbep2d_bold_2mm_MB8_Task_8x",
  "SeriesNumber": 21,
  "ShimSetting": [2126, -415, -7290, 571, -7, -105, 104, 75],
  "SliceThickness": 2,
  "SliceTiming": [0, 0.4375, 0.0875, 0.525, 0.175, 0.6125, 0.2625, 0.7, 0.35, 0, 0.4375, 0.0875, 0.525, 0.175, 0.6125, 0.2625, 0.7, 0.35, 0, 0.4375, 0.0875, 0.525, 0.175, 0.6125, 0.2625, 0.7, 0.35, 0, 0.4375, 0.0875, 0.525, 0.175, 0.6125, 0.2625, 0.7, 0.35, 0, 0.4375, 0.0875, 0.525, 0.175, 0.6125, 0.2625, 0.7, 0.35, 0, 0.4375, 0.0875, 0.525, 0.175, 0.6125, 0.2625, 0.7, 0.35, 0, 0.4375, 0.0875, 0.525, 0.175, 0.6125, 0.2625, 0.7, 0.35, 0, 0.4375, 0.0875, 0.525, 0.175, 0.6125, 0.2625, 0.7, 0.35],
  "SoftwareVersions": "syngo MR B19",
  "SpacingBetweenSlices": 2,
  "StationName": "MRC35450",
  "TaskName": "cpro",
  "TotalReadoutTime": 0.0710717,
  "TxRefAmp": 321.497,
  "dcmmeta_affine": [
    [-1.9998520612716675, 8.843328203056444e-08, 0.024324825033545494, 103.97781372070312],
    [-0.003217006102204323, 1.9824312925338745, -0.26449158787727356, -80.29901123046875],
    [0.024111157283186913, 0.2645111680030823, 1.982284665107727, -111.53255462646484],
    [0.0, 0.0, 0.0, 1.0]
],
  "dcmmeta_reorient_transform": [
    [0.0, -1.0, 0.0, 103.0],
    [1.0, 0.0, 0.0, 0.0],
    [0.0, 0.0, 1.0, 0.0],
    [0.0, 0.0, 0.0, 1.0]
],
  "dcmmeta_shape": [104, 104, 72, 581],
  "dcmmeta_slice_dim": 2,
  "dcmmeta_version": 0.6,
  "global": {
    "const": {
      "AcquisitionMatrix": [104, 0, 0, 104],
      "AngioFlag": "N",
      "BitsAllocated": 16,
      "BitsStored": 12,
      "Columns": 936,
      "EchoNumbers": 1,
      "EchoTime": 34.8,
      "EchoTrainLength": 1,
      "FlipAngle": 55.0,
      "HighBit": 11,
      "ImageOrientationPatient": [0.99992603512999, 0.0016085030514, 0.01205557908826, 4.4216641e-08, 0.99121564832126, -0.1322555803098],
      "ImagePositionPatient": [-935.91632411949, -949.9211086267, 15.718497224878],
      "ImageType": [
        "ORIGINAL",
        "PRIMARY",
        "M",
        "MB",
        "ND",
        "MOSAIC"
],
      "ImagedNucleus": "1H",
      "ImagingFrequency": 123.234441,
      "InPlanePhaseEncodingDirection": "COL",
      "MRAcquisitionType": "2D",
      "MagneticFieldStrength": 3.0,
      "Manufacturer": "SIEMENS",
      "ManufacturerModelName": "TrioTim",
      "Modality": "MR",
      "NumberOfAverages": 1.0,
      "NumberOfPhaseEncodingSteps": 91,
      "PercentPhaseFieldOfView": 100.0,
      "PercentSampling": 100.0,
      "PerformedProcedureStepStartTime": "134016.312000",
      "PhotometricInterpretation": "MONOCHROME2",
      "PixelBandwidth": 1923.0,
      "PixelRepresentation": 0,
      "PixelSpacing": [2.0, 2.0],
      "ProtocolName": "cmrr_mbep2d_bold_2mm_MB8_Task_8x",
      "RepetitionTime": 785.0,
      "Rows": 936,
      "SAR": 0.13169320744857,
      "SamplesPerPixel": 1,
      "ScanOptions": [
        "PFP",
        "FS"
],
      "ScanningSequence": "EP",
      "SequenceName": "epfid2d1_104",
      "SequenceVariant": [
        "SK",
        "SS"
],
      "SeriesDescription": "cmrr_mbep2d_bold_2mm_MB8_Task_8x",
      "SeriesNumber": 21,
      "SeriesTime": "151553.921000",
      "SliceLocation": -98.660807513616,
      "SliceThickness": 2.0,
      "SmallestImagePixelValue": 0,
      "SoftwareVersions": "syngo MR B19",
      "SpacingBetweenSlices": 1.9999999865782,
      "SpecificCharacterSet": "ISO_IR 100",
      "StudyID": "1",
      "StudyTime": "134016.250000",
      "TransmitCoilName": "Body",
      "VariableFlipAngleFlag": "N",
      "WindowCenterWidthExplanation": "Algo1",
      "dBdt": 0.0},
    "slices": {}
  },
  "time": {
    "samples": {
      "AcquisitionNumber": [1, 2, 3, 4, 5, 6, 7, 8, 9, 10, 11, 12, 13, 14, 15, 16, 17, 18, 19, 20, 21, 22, 23, 24, 25, 26, 27, 28, 29, 30, 31, 32, 33, 34, 35, 36, 37, 38, 39, 40, 41, 42, 43, 44, 45, 46, 47, 48, 49, 50, 51, 52, 53, 54, 55, 56, 57, 58, 59, 60, 61, 62, 63, 64, 65, 66, 67, 68, 69, 70, 71, 72, 73, 74, 75, 76, 77, 78, 79, 80, 81, 82, 83, 84, 85, 86, 87, 88, 89, 90, 91, 92, 93, 94, 95, 96, 97, 98, 99, 100, 101, 102, 103, 104, 105, 106, 107, 108, 109, 110, 111, 112, 113, 114, 115, 116, 117, 118, 119, 120, 121, 122, 123, 124, 125, 126, 127, 128, 129, 130, 131, 132, 133, 134, 135, 136, 137, 138, 139, 140, 141, 142, 143, 144, 145, 146, 147, 148, 149, 150, 151, 152, 153, 154, 155, 156, 157, 158, 159, 160, 161, 162, 163, 164, 165, 166, 167, 168, 169, 170, 171, 172, 173, 174, 175, 176, 177, 178, 179, 180, 181, 182, 183, 184, 185, 186, 187, 188, 189, 190, 191, 192, 193, 194, 195, 196, 197, 198, 199, 200, 201, 202, 203, 204, 205, 206, 207, 208, 209, 210, 211, 212, 213, 214, 215, 216, 217, 218, 219, 220, 221, 222, 223, 224, 225, 226, 227, 228, 229, 230, 231, 232, 233, 234, 235, 236, 237, 238, 239, 240, 241, 242, 243, 244, 245, 246, 247, 248, 249, 250, 251, 252, 253, 254, 255, 256, 257, 258, 259, 260, 261, 262, 263, 264, 265, 266, 267, 268, 269, 270, 271, 272, 273, 274, 275, 276, 277, 278, 279, 280, 281, 282, 283, 284, 285, 286, 287, 288, 289, 290, 291, 292, 293, 294, 295, 296, 297, 298, 299, 300, 301, 302, 303, 304, 305, 306, 307, 308, 309, 310, 311, 312, 313, 314, 315, 316, 317, 318, 319, 320, 321, 322, 323, 324, 325, 326, 327, 328, 329, 330, 331, 332, 333, 334, 335, 336, 337, 338, 339, 340, 341, 342, 343, 344, 345, 346, 347, 348, 349, 350, 351, 352, 353, 354, 355, 356, 357, 358, 359, 360, 361, 362, 363, 364, 365, 366, 367, 368, 369, 370, 371, 372, 373, 374, 375, 376, 377, 378, 379, 380, 381, 382, 383, 384, 385, 386, 387, 388, 389, 390, 391, 392, 393, 394, 395, 396, 397, 398, 399, 400, 401, 402, 403, 404, 405, 406, 407, 408, 409, 410, 411, 412, 413, 414, 415, 416, 417, 418, 419, 420, 421, 422, 423, 424, 425, 426, 427, 428, 429, 430, 431, 432, 433, 434, 435, 436, 437, 438, 439, 440, 441, 442, 443, 444, 445, 446, 447, 448, 449, 450, 451, 452, 453, 454, 455, 456, 457, 458, 459, 460, 461, 462, 463, 464, 465, 466, 467, 468, 469, 470, 471, 472, 473, 474, 475, 476, 477, 478, 479, 480, 481, 482, 483, 484, 485, 486, 487, 488, 489, 490, 491, 492, 493, 494, 495, 496, 497, 498, 499, 500, 501, 502, 503, 504, 505, 506, 507, 508, 509, 510, 511, 512, 513, 514, 515, 516, 517, 518, 519, 520, 521, 522, 523, 524, 525, 526, 527, 528, 529, 530, 531, 532, 533, 534, 535, 536, 537, 538, 539, 540, 541, 542, 543, 544, 545, 546, 547, 548, 549, 550, 551, 552, 553, 554, 555, 556, 557, 558, 559, 560, 561, 562, 563, 564, 565, 566, 567, 568, 569, 570, 571, 572, 573, 574, 575, 576, 577, 578, 579, 580, 581],
      "AcquisitionTime": ["151534.742500", "151535.530000", "151536.317500", "151537.105000", "151537.895000", "151538.682500", "151539.470000", "151540.260000", "151541.047500", "151541.835000", "151542.622500", "151543.412500", "151544.200000", "151544.987500", "151545.775000", "151546.565000", "151547.352500", "151548.140000", "151548.927500", "151549.717500", "151550.505000", "151551.292500", "151552.080000", "151552.870000", "151553.657500", "151554.445000", "151555.232500", "151556.022500", "151556.810000", "151557.597500", "151558.387500", "151559.175000", "151559.962500", "151600.750000", "151601.540000", "151602.327500", "151603.115000", "151603.902500", "151604.692500", "151605.480000", "151606.267500", "151607.055000", "151607.845000", "151608.632500", "151609.420000", "151610.207500", "151610.997500", "151611.785000", "151612.572500", "151613.360000", "151614.150000", "151614.937500", "151615.725000", "151616.515000", "151617.302500", "151618.090000", "151618.877500", "151619.667500", "151620.455000", "151621.242500", "151622.030000", "151622.820000", "151623.607500", "151624.395000", "151625.182500", "151625.972500", "151626.760000", "151627.547500", "151628.335000", "151629.125000", "151629.912500", "151630.700000", "151631.490000", "151632.277500", "151633.065000", "151633.852500", "151634.642500", "151635.430000", "151636.217500", "151637.005000", "151637.795000", "151638.582500", "151639.370000", "151640.157500", "151640.947500", "151641.735000", "151642.522500", "151643.310000", "151644.100000", "151644.887500", "151645.675000", "151646.462500", "151647.252500", "151648.040000", "151648.827500", "151649.617500", "151650.405000", "151651.192500", "151651.980000", "151652.770000", "151653.557500", "151654.345000", "151655.132500", "151655.922500", "151656.710000", "151657.497500", "151658.285000", "151659.075000", "151659.862500", "151700.650000", "151701.437500", "151702.227500", "151703.015000", "151703.802500", "151704.590000", "151705.380000", "151706.167500", "151706.955000", "151707.745000", "151708.532500", "151709.320000", "151710.107500", "151710.897500", "151711.685000", "151712.472500", "151713.260000", "151714.050000", "151714.837500", "151715.625000", "151716.412500", "151717.202500", "151717.990000", "151718.777500", "151719.565000", "151720.355000", "151721.142500", "151721.930000", "151722.717500", "151723.507500", "151724.295000", "151725.082500", "151725.872500", "151726.660000", "151727.447500", "151728.235000", "151729.025000", "151729.812500", "151730.600000", "151731.387500", "151732.177500", "151732.965000", "151733.752500", "151734.540000", "151735.330000", "151736.117500", "151736.905000", "151737.692500", "151738.482500", "151739.270000", "151740.057500", "151740.845000", "151741.635000", "151742.422500", "151743.210000", "151744.000000", "151744.787500", "151745.575000", "151746.362500", "151747.152500", "151747.940000", "151748.727500", "151749.515000", "151750.305000", "151751.092500", "151751.880000", "151752.667500", "151753.457500", "151754.245000", "151755.032500", "151755.820000", "151756.610000", "151757.397500", "151758.185000", "151758.972500", "151759.762500", "151800.550000", "151801.337500", "151802.127500", "151802.915000", "151803.702500", "151804.490000", "151805.280000", "151806.067500", "151806.855000", "151807.642500", "151808.432500", "151809.220000", "151810.007500", "151810.795000", "151811.585000", "151812.372500", "151813.160000", "151813.947500", "151814.737500", "151815.525000", "151816.312500", "151817.100000", "151817.890000", "151818.677500", "151819.465000", "151820.255000", "151821.042500", "151821.830000", "151822.617500", "151823.407500", "151824.195000", "151824.982500", "151825.770000", "151826.560000", "151827.347500", "151828.135000", "151828.922500", "151829.712500", "151830.500000", "151831.287500", "151832.075000", "151832.865000", "151833.652500", "151834.440000", "151835.227500", "151836.017500", "151836.805000", "151837.592500", "151838.382500", "151839.170000", "151839.957500", "151840.745000", "151841.535000", "151842.322500", "151843.110000", "151843.897500", "151844.687500", "151845.475000", "151846.262500", "151847.050000", "151847.840000", "151848.627500", "151849.415000", "151850.202500", "151850.992500", "151851.780000", "151852.567500", "151853.355000", "151854.145000", "151854.932500", "151855.720000", "151856.510000", "151857.297500", "151858.085000", "151858.872500", "151859.662500", "151900.450000", "151901.237500", "151902.025000", "151902.815000", "151903.602500", "151904.390000", "151905.177500", "151905.967500", "151906.755000", "151907.542500", "151908.330000", "151909.120000", "151909.907500", "151910.695000", "151911.482500", "151912.272500", "151913.060000", "151913.847500", "151914.637500", "151915.425000", "151916.212500", "151917.000000", "151917.790000", "151918.577500", "151919.365000", "151920.152500", "151920.942500", "151921.730000", "151922.517500", "151923.305000", "151924.095000", "151924.882500", "151925.670000", "151926.457500", "151927.247500", "151928.035000", "151928.822500", "151929.610000", "151930.400000", "151931.187500", "151931.975000", "151932.765000", "151933.552500", "151934.340000", "151935.127500", "151935.917500", "151936.705000", "151937.492500", "151938.280000", "151939.070000", "151939.857500", "151940.645000", "151941.432500", "151942.222500", "151943.010000", "151943.797500", "151944.585000", "151945.375000", "151946.162500", "151946.950000", "151947.740000", "151948.527500", "151949.315000", "151950.102500", "151950.892500", "151951.680000", "151952.467500", "151953.255000", "151954.045000", "151954.832500", "151955.620000", "151956.407500", "151957.197500", "151957.985000", "151958.772500", "151959.560000", "152000.350000", "152001.137500", "152001.925000", "152002.712500", "152003.502500", "152004.290000", "152005.077500", "152005.867500", "152006.655000", "152007.442500", "152008.230000", "152009.020000", "152009.807500", "152010.595000", "152011.382500", "152012.172500", "152012.960000", "152013.747500", "152014.535000", "152015.325000", "152016.112500", "152016.900000", "152017.687500", "152018.477500", "152019.265000", "152020.052500", "152020.840000", "152021.630000", "152022.417500", "152023.205000", "152023.995000", "152024.782500", "152025.570000", "152026.357500", "152027.147500", "152027.935000", "152028.722500", "152029.510000", "152030.300000", "152031.087500", "152031.875000", "152032.662500", "152033.452500", "152034.240000", "152035.027500", "152035.815000", "152036.605000", "152037.392500", "152038.180000", "152038.967500", "152039.757500", "152040.545000", "152041.332500", "152042.122500", "152042.910000", "152043.697500", "152044.485000", "152045.275000", "152046.062500", "152046.850000", "152047.637500", "152048.427500", "152049.215000", "152050.002500", "152050.790000", "152051.580000", "152052.367500", "152053.155000", "152053.942500", "152054.732500", "152055.520000", "152056.307500", "152057.095000", "152057.885000", "152058.672500", "152059.460000", "152100.250000", "152101.037500", "152101.825000", "152102.612500", "152103.402500", "152104.190000", "152104.977500", "152105.765000", "152106.555000", "152107.342500", "152108.130000", "152108.917500", "152109.707500", "152110.495000", "152111.282500", "152112.070000", "152112.860000", "152113.647500", "152114.435000", "152115.222500", "152116.012500", "152116.800000", "152117.587500", "152118.377500", "152119.165000", "152119.952500", "152120.740000", "152121.530000", "152122.317500", "152123.105000", "152123.892500", "152124.682500", "152125.470000", "152126.257500", "152127.045000", "152127.835000", "152128.622500", "152129.410000", "152130.197500", "152130.987500", "152131.775000", "152132.562500", "152133.350000", "152134.140000", "152134.927500", "152135.715000", "152136.505000", "152137.292500", "152138.080000", "152138.867500", "152139.657500", "152140.445000", "152141.232500", "152142.020000", "152142.810000", "152143.597500", "152144.385000", "152145.172500", "152145.962500", "152146.750000", "152147.537500", "152148.325000", "152149.115000", "152149.902500", "152150.690000", "152151.477500", "152152.267500", "152153.055000", "152153.842500", "152154.632500", "152155.420000", "152156.207500", "152156.995000", "152157.785000", "152158.572500", "152159.360000", "152200.147500", "152200.937500", "152201.725000", "152202.512500", "152203.300000", "152204.090000", "152204.877500", "152205.665000", "152206.452500", "152207.242500", "152208.030000", "152208.817500", "152209.605000", "152210.395000", "152211.182500", "152211.970000", "152212.760000", "152213.547500", "152214.335000", "152215.122500", "152215.912500", "152216.700000", "152217.487500", "152218.275000", "152219.065000", "152219.852500", "152220.640000", "152221.427500", "152222.217500", "152223.005000", "152223.792500", "152224.580000", "152225.370000", "152226.157500", "152226.945000", "152227.732500", "152228.522500", "152229.310000", "152230.097500", "152230.887500", "152231.675000", "152232.462500", "152233.250000", "152234.040000", "152234.827500", "152235.615000", "152236.402500", "152237.192500", "152237.980000", "152238.767500", "152239.555000", "152240.345000", "152241.132500", "152241.920000", "152242.707500", "152243.497500", "152244.285000", "152245.072500", "152245.860000", "152246.650000", "152247.437500", "152248.225000", "152249.015000", "152249.802500", "152250.590000", "152251.377500", "152252.167500", "152252.955000", "152253.742500", "152254.530000", "152255.320000", "152256.107500", "152256.895000", "152257.682500", "152258.472500", "152259.260000", "152300.047500", "152300.835000", "152301.625000", "152302.412500", "152303.200000", "152303.990000", "152304.777500", "152305.565000", "152306.352500", "152307.142500", "152307.930000", "152308.717500", "152309.505000", "152310.295000", "152311.082500", "152311.870000"],
      "ContentTime": ["151553.937000", "151553.937000", "151553.937000", "151553.937000", "151553.937000", "151553.937000", "151553.937000", "151553.953000", "151553.953000", "151553.953000", "151553.953000", "151553.953000", "151553.953000", "151553.953000", "151553.953000", "151553.968000", "151553.968000", "151553.968000", "151553.968000", "151553.968000", "151553.968000", "151613.906000", "151613.906000", "151613.906000", "151613.921000", "151613.921000", "151613.921000", "151613.921000", "151613.921000", "151613.921000", "151613.921000", "151613.921000", "151613.937000", "151613.937000", "151613.937000", "151613.937000", "151613.937000", "151613.937000", "151613.937000", "151613.953000", "151613.953000", "151613.953000", "151613.953000", "151613.953000", "151613.953000", "151613.953000", "151633.906000", "151633.906000", "151633.906000", "151633.921000", "151633.921000", "151633.921000", "151633.921000", "151633.921000", "151633.921000", "151633.921000", "151633.921000", "151633.937000", "151633.937000", "151633.937000", "151633.937000", "151633.937000", "151633.937000", "151633.937000", "151633.937000", "151633.953000", "151633.953000", "151633.953000", "151633.953000", "151633.953000", "151633.953000", "151633.953000", "151653.906000", "151653.906000", "151653.921000", "151653.921000", "151653.921000", "151653.921000", "151653.921000", "151653.921000", "151653.921000", "151653.937000", "151653.937000", "151653.937000", "151653.937000", "151653.937000", "151653.937000", "151653.937000", "151653.937000", "151653.953000", "151653.953000", "151653.953000", "151653.953000", "151653.953000", "151653.953000", "151653.953000", "151653.968000", "151713.906000", "151713.906000", "151713.906000", "151713.921000", "151713.921000", "151713.921000", "151713.921000", "151713.921000", "151713.921000", "151713.921000", "151713.921000", "151713.937000", "151713.937000", "151713.937000", "151713.937000", "151713.937000", "151713.937000", "151713.937000", "151713.953000", "151713.953000", "151713.953000", "151713.953000", "151713.953000", "151713.953000", "151713.953000", "151713.953000", "151733.906000", "151733.906000", "151733.906000", "151733.921000", "151733.921000", "151733.921000", "151733.921000", "151733.921000", "151733.921000", "151733.921000", "151733.937000", "151733.937000", "151733.937000", "151733.937000", "151733.937000", "151733.937000", "151733.937000", "151733.937000", "151733.953000", "151733.953000", "151733.953000", "151733.953000", "151733.953000", "151733.953000", "151733.953000", "151753.906000", "151753.906000", "151753.906000", "151753.921000", "151753.921000", "151753.921000", "151753.921000", "151753.921000", "151753.921000", "151753.921000", "151753.921000", "151753.937000", "151753.937000", "151753.937000", "151753.937000", "151753.937000", "151753.937000", "151753.937000", "151753.953000", "151753.953000", "151753.953000", "151753.953000", "151753.953000", "151753.953000", "151753.953000", "151753.953000", "151813.906000", "151813.906000", "151813.906000", "151813.921000", "151813.921000", "151813.921000", "151813.921000", "151813.921000", "151813.921000", "151813.921000", "151813.921000", "151813.937000", "151813.937000", "151813.937000", "151813.937000", "151813.937000", "151813.937000", "151813.937000", "151813.953000", "151813.953000", "151813.953000", "151813.953000", "151813.953000", "151813.953000", "151813.953000", "151833.906000", "151833.906000", "151833.906000", "151833.921000", "151833.921000", "151833.921000", "151833.921000", "151833.921000", "151833.921000", "151833.921000", "151833.921000", "151833.937000", "151833.937000", "151833.937000", "151833.937000", "151833.937000", "151833.937000", "151833.937000", "151833.953000", "151833.953000", "151833.953000", "151833.953000", "151833.953000", "151833.953000", "151833.953000", "151833.953000", "151853.906000", "151853.906000", "151853.906000", "151853.921000", "151853.921000", "151853.921000", "151853.921000", "151853.921000", "151853.921000", "151853.921000", "151853.921000", "151853.937000", "151853.937000", "151853.937000", "151853.937000", "151853.937000", "151853.937000", "151853.937000", "151853.953000", "151853.953000", "151853.953000", "151853.953000", "151853.953000", "151853.953000", "151853.953000", "151913.906000", "151913.906000", "151913.906000", "151913.921000", "151913.921000", "151913.921000", "151913.921000", "151913.921000", "151913.921000", "151913.921000", "151913.937000", "151913.937000", "151913.937000", "151913.937000", "151913.937000", "151913.937000", "151913.937000", "151913.937000", "151913.953000", "151913.953000", "151913.953000", "151913.953000", "151913.953000", "151913.953000", "151913.953000", "151913.953000", "151933.906000", "151933.906000", "151933.906000", "151933.921000", "151933.921000", "151933.921000", "151933.921000", "151933.921000", "151933.921000", "151933.921000", "151933.921000", "151933.937000", "151933.937000", "151933.937000", "151933.937000", "151933.937000", "151933.937000", "151933.937000", "151933.953000", "151933.953000", "151933.953000", "151933.953000", "151933.953000", "151933.953000", "151933.953000", "151953.906000", "151953.906000", "151953.906000", "151953.921000", "151953.921000", "151953.921000", "151953.921000", "151953.921000", "151953.921000", "151953.921000", "151953.921000", "151953.937000", "151953.937000", "151953.937000", "151953.937000", "151953.937000", "151953.937000", "151953.937000", "151953.953000", "151953.953000", "151953.953000", "151953.953000", "151953.953000", "151953.953000", "151953.953000", "151953.953000", "152013.906000", "152013.906000", "152013.906000", "152013.921000", "152013.921000", "152013.921000", "152013.921000", "152013.921000", "152013.921000", "152013.921000", "152013.921000", "152013.937000", "152013.937000", "152013.937000", "152013.937000", "152013.937000", "152013.937000", "152013.937000", "152013.953000", "152013.953000", "152013.953000", "152013.953000", "152013.953000", "152013.953000", "152013.953000", "152033.906000", "152033.906000", "152033.906000", "152033.921000", "152033.921000", "152033.921000", "152033.921000", "152033.921000", "152033.921000", "152033.921000", "152033.937000", "152033.937000", "152033.937000", "152033.937000", "152033.937000", "152033.937000", "152033.937000", "152033.937000", "152033.953000", "152033.953000", "152033.953000", "152033.953000", "152033.953000", "152033.953000", "152033.953000", "152033.968000", "152053.906000", "152053.906000", "152053.906000", "152053.921000", "152053.921000", "152053.921000", "152053.921000", "152053.921000", "152053.921000", "152053.921000", "152053.921000", "152053.937000", "152053.937000", "152053.937000", "152053.937000", "152053.937000", "152053.937000", "152053.937000", "152053.937000", "152053.953000", "152053.953000", "152053.953000", "152053.953000", "152053.953000", "152053.953000", "152113.906000", "152113.906000", "152113.906000", "152113.921000", "152113.921000", "152113.921000", "152113.921000", "152113.921000", "152113.921000", "152113.921000", "152113.937000", "152113.937000", "152113.937000", "152113.937000", "152113.937000", "152113.937000", "152113.937000", "152113.937000", "152113.953000", "152113.953000", "152113.953000", "152113.953000", "152113.953000", "152113.953000", "152113.953000", "152113.968000", "152133.906000", "152133.906000", "152133.906000", "152133.921000", "152133.921000", "152133.921000", "152133.921000", "152133.921000", "152133.921000", "152133.921000", "152133.921000", "152133.937000", "152133.937000", "152133.937000", "152133.937000", "152133.937000", "152133.937000", "152133.937000", "152133.953000", "152133.953000", "152133.953000", "152133.953000", "152133.953000", "152133.953000", "152133.953000", "152153.906000", "152153.906000", "152153.906000", "152153.921000", "152153.921000", "152153.921000", "152153.921000", "152153.921000", "152153.921000", "152153.921000", "152153.937000", "152153.937000", "152153.937000", "152153.937000", "152153.937000", "152153.937000", "152153.937000", "152153.937000", "152153.953000", "152153.953000", "152153.953000", "152153.953000", "152153.953000", "152153.953000", "152153.953000", "152153.968000", "152213.906000", "152213.906000", "152213.906000", "152213.921000", "152213.921000", "152213.921000", "152213.921000", "152213.921000", "152213.921000", "152213.921000", "152213.921000", "152213.937000", "152213.937000", "152213.937000", "152213.937000", "152213.937000", "152213.937000", "152213.937000", "152213.953000", "152213.953000", "152213.953000", "152213.953000", "152213.953000", "152213.953000", "152213.953000", "152233.906000", "152233.906000", "152233.906000", "152233.921000", "152233.921000", "152233.921000", "152233.921000", "152233.921000", "152233.921000", "152233.921000", "152233.921000", "152233.937000", "152233.937000", "152233.937000", "152233.937000", "152233.937000", "152233.937000", "152233.937000", "152233.953000", "152233.953000", "152233.953000", "152233.953000", "152233.953000", "152233.953000", "152233.953000", "152233.968000", "152253.906000", "152253.906000", "152253.906000", "152253.921000", "152253.921000", "152253.921000", "152253.921000", "152253.921000", "152253.921000", "152253.921000", "152253.921000", "152253.937000", "152253.937000", "152253.937000", "152253.937000", "152253.937000", "152253.937000", "152253.937000", "152253.953000", "152253.953000", "152253.953000", "152253.953000", "152253.953000", "152253.953000", "152253.953000", "152313.187000", "152313.187000", "152313.203000", "152313.203000", "152313.203000", "152313.203000", "152313.203000", "152313.203000", "152313.203000", "152313.203000", "152313.218000", "152313.218000", "152313.218000", "152313.218000", "152313.218000", "152313.234000", "152313.234000", "152313.234000", "152313.234000", "152313.234000", "152313.234000", "152313.234000", "152313.234000", "152313.250000", "152313.250000"],
