{
  "AcquisitionMatrixPE": 104,
  "AcquisitionNumber": 1,
  "AcquisitionTime": "14:20:58.825000",
  "BandwidthPerPixelPhaseEncode": 13.935,
  "BaseResolution": 104,
  "CoilString": "C:HEA;HEP",
  "ConversionSoftware": "dcm2niix",
  "ConversionSoftwareVersion": "v1.0.20210317",
  "DerivedVendorReportedEchoSpacing": 0.000690017,
  "DeviceSerialNumber": "35450",
  "DwellTime": 2.5e-06,
  "EchoTime": 0.0348,
  "EffectiveEchoSpacing": 0.000690017,
  "FlipAngle": 55,
  "ImageComments": "Unaliased MB8/PE3 (remote)",
  "ImageOrientationPatientDICOM": [0.999926, 0.0016085, 0.0120556, 4.42166e-08, 0.991216, -0.132256],
  "ImageType": [
    "ORIGINAL",
    "PRIMARY",
    "M",
    "MB",
    "ND",
    "MOSAIC"
],
  "ImagingFrequency": 123.234,
  "InPlanePhaseEncodingDirectionDICOM": "COL",
  "InstitutionAddress": "Univeristy Ave. 197,Newark,North East,US,07102-1814",
  "InstitutionName": "RUBIC",
  "InstitutionalDepartmentName": "Department",
  "MRAcquisitionType": "2D",
  "MagneticFieldStrength": 3,
  "Manufacturer": "Siemens",
  "ManufacturersModelName": "TrioTim",
  "Modality": "MR",
  "MultibandAccelerationFactor": 8,
  "PartialFourier": 0.875,
  "PatientPosition": "HFS",
  "PercentPhaseFOV": 100,
  "PercentSampling": 100,
  "PhaseEncodingDirection": "j-",
  "PhaseEncodingSteps": 91,
  "PhaseResolution": 1,
  "PixelBandwidth": 1923,
  "ProcedureStepDescription": "Cole^Michael",
  "ProtocolName": "cmrr_mbep2d_bold_2mm_MB8_Rest",
  "PulseSequenceDetails": "%CustomerSeq%\\cmrr_mbep2d_bold",
  "ReceiveCoilName": "32Ch_Head",
  "ReconMatrixPE": 104,
  "RepetitionTime": 0.785,
  "SAR": 0.124962,
  "ScanOptions": "PFP\\FS",
  "ScanningSequence": "EP",
  "SequenceName": "epfid2d1_104",
  "SequenceVariant": "SK\\SS",
  "SeriesDescription": "cmrr_mbep2d_bold_2mm_MB8_Rest",
  "SeriesNumber": 9,
  "ShimSetting": [2126, -415, -7290, 571, -7, -105, 104, 75],
  "SliceThickness": 2,
  "SliceTiming": [0, 0.4375, 0.0875, 0.525, 0.175, 0.6125, 0.2625, 0.7, 0.35, 0, 0.4375, 0.0875, 0.525, 0.175, 0.6125, 0.2625, 0.7, 0.35, 0, 0.4375, 0.0875, 0.525, 0.175, 0.6125, 0.2625, 0.7, 0.35, 0, 0.4375, 0.0875, 0.525, 0.175, 0.6125, 0.2625, 0.7, 0.35, 0, 0.4375, 0.0875, 0.525, 0.175, 0.6125, 0.2625, 0.7, 0.35, 0, 0.4375, 0.0875, 0.525, 0.175, 0.6125, 0.2625, 0.7, 0.35, 0, 0.4375, 0.0875, 0.525, 0.175, 0.6125, 0.2625, 0.7, 0.35, 0, 0.4375, 0.0875, 0.525, 0.175, 0.6125, 0.2625, 0.7, 0.35],
  "SoftwareVersions": "syngo MR B19",
  "SpacingBetweenSlices": 2,
  "StationName": "MRC35450",
  "TaskName": "rest",
  "TotalReadoutTime": 0.0710717,
  "TxRefAmp": 321.497,
  "dcmmeta_affine": [
    [-1.9998520612716675, 8.843328203056444e-08, 0.024324825033545494, 103.97781372070312],
    [-0.003217006102204323, 1.9824312925338745, -0.26449158787727356, -80.29901123046875],
    [0.024111157283186913, 0.2645111680030823, 1.982284665107727, -111.53255462646484],
    [0.0, 0.0, 0.0, 1.0]
],
  "dcmmeta_reorient_transform": [
    [0.0, -1.0, 0.0, 103.0],
    [1.0, 0.0, 0.0, 0.0],
    [0.0, 0.0, 1.0, 0.0],
    [0.0, 0.0, 0.0, 1.0]
],
  "dcmmeta_shape": [104, 104, 72, 1070],
  "dcmmeta_slice_dim": 2,
  "dcmmeta_version": 0.6,
  "global": {
    "const": {
      "AcquisitionMatrix": [104, 0, 0, 104],
      "AngioFlag": "N",
      "BitsAllocated": 16,
      "BitsStored": 12,
      "Columns": 936,
      "EchoNumbers": 1,
      "EchoTime": 34.8,
      "EchoTrainLength": 1,
      "FlipAngle": 55.0,
      "HighBit": 11,
      "ImageOrientationPatient": [0.99992603512999, 0.0016085030514, 0.01205557908826, 4.4216641e-08, 0.99121564832126, -0.1322555803098],
      "ImagePositionPatient": [-935.91632411949, -949.9211086267, 15.718497224878],
      "ImageType": [
        "ORIGINAL",
        "PRIMARY",
        "M",
        "MB",
        "ND",
        "MOSAIC"
],
      "ImagedNucleus": "1H",
      "ImagingFrequency": 123.234376,
      "InPlanePhaseEncodingDirection": "COL",
      "MRAcquisitionType": "2D",
      "MagneticFieldStrength": 3.0,
      "Manufacturer": "SIEMENS",
      "ManufacturerModelName": "TrioTim",
      "Modality": "MR",
      "NumberOfAverages": 1.0,
      "NumberOfPhaseEncodingSteps": 91,
      "PercentPhaseFieldOfView": 100.0,
      "PercentSampling": 100.0,
      "PerformedProcedureStepStartTime": "134016.312000",
      "PhotometricInterpretation": "MONOCHROME2",
      "PixelBandwidth": 1923.0,
      "PixelRepresentation": 0,
      "PixelSpacing": [2.0, 2.0],
      "ProtocolName": "cmrr_mbep2d_bold_2mm_MB8_Rest",
      "RepetitionTime": 785.0,
      "Rows": 936,
      "SAR": 0.12496205155106,
      "SamplesPerPixel": 1,
      "ScanOptions": [
        "PFP",
        "FS"
],
      "ScanningSequence": "EP",
      "SequenceName": "epfid2d1_104",
      "SequenceVariant": [
        "SK",
        "SS"
],
      "SeriesDescription": "cmrr_mbep2d_bold_2mm_MB8_Rest",
      "SeriesNumber": 9,
      "SeriesTime": "142133.937000",
      "SliceLocation": -98.660807513616,
      "SliceThickness": 2.0,
      "SmallestImagePixelValue": 0,
      "SoftwareVersions": "syngo MR B19",
      "SpacingBetweenSlices": 1.9999999865782,
      "SpecificCharacterSet": "ISO_IR 100",
      "StudyID": "1",
      "StudyTime": "134016.250000",
      "TransmitCoilName": "Body",
      "VariableFlipAngleFlag": "N",
      "WindowCenterWidthExplanation": "Algo1",
      "dBdt": 0.0},
    "slices": {}
  },
  "time": {
    "samples": {
      "AcquisitionNumber": [1, 2, 3, 4, 5, 6, 7, 8, 9, 10, 11, 12, 13, 14, 15, 16, 17, 18, 19, 20, 21, 22, 23, 24, 25, 26, 27, 28, 29, 30, 31, 32, 33, 34, 35, 36, 37, 38, 39, 40, 41, 42, 43, 44, 45, 46, 47, 48, 49, 50, 51, 52, 53, 54, 55, 56, 57, 58, 59, 60, 61, 62, 63, 64, 65, 66, 67, 68, 69, 70, 71, 72, 73, 74, 75, 76, 77, 78, 79, 80, 81, 82, 83, 84, 85, 86, 87, 88, 89, 90, 91, 92, 93, 94, 95, 96, 97, 98, 99, 100, 101, 102, 103, 104, 105, 106, 107, 108, 109, 110, 111, 112, 113, 114, 115, 116, 117, 118, 119, 120, 121, 122, 123, 124, 125, 126, 127, 128, 129, 130, 131, 132, 133, 134, 135, 136, 137, 138, 139, 140, 141, 142, 143, 144, 145, 146, 147, 148, 149, 150, 151, 152, 153, 154, 155, 156, 157, 158, 159, 160, 161, 162, 163, 164, 165, 166, 167, 168, 169, 170, 171, 172, 173, 174, 175, 176, 177, 178, 179, 180, 181, 182, 183, 184, 185, 186, 187, 188, 189, 190, 191, 192, 193, 194, 195, 196, 197, 198, 199, 200, 201, 202, 203, 204, 205, 206, 207, 208, 209, 210, 211, 212, 213, 214, 215, 216, 217, 218, 219, 220, 221, 222, 223, 224, 225, 226, 227, 228, 229, 230, 231, 232, 233, 234, 235, 236, 237, 238, 239, 240, 241, 242, 243, 244, 245, 246, 247, 248, 249, 250, 251, 252, 253, 254, 255, 256, 257, 258, 259, 260, 261, 262, 263, 264, 265, 266, 267, 268, 269, 270, 271, 272, 273, 274, 275, 276, 277, 278, 279, 280, 281, 282, 283, 284, 285, 286, 287, 288, 289, 290, 291, 292, 293, 294, 295, 296, 297, 298, 299, 300, 301, 302, 303, 304, 305, 306, 307, 308, 309, 310, 311, 312, 313, 314, 315, 316, 317, 318, 319, 320, 321, 322, 323, 324, 325, 326, 327, 328, 329, 330, 331, 332, 333, 334, 335, 336, 337, 338, 339, 340, 341, 342, 343, 344, 345, 346, 347, 348, 349, 350, 351, 352, 353, 354, 355, 356, 357, 358, 359, 360, 361, 362, 363, 364, 365, 366, 367, 368, 369, 370, 371, 372, 373, 374, 375, 376, 377, 378, 379, 380, 381, 382, 383, 384, 385, 386, 387, 388, 389, 390, 391, 392, 393, 394, 395, 396, 397, 398, 399, 400, 401, 402, 403, 404, 405, 406, 407, 408, 409, 410, 411, 412, 413, 414, 415, 416, 417, 418, 419, 420, 421, 422, 423, 424, 425, 426, 427, 428, 429, 430, 431, 432, 433, 434, 435, 436, 437, 438, 439, 440, 441, 442, 443, 444, 445, 446, 447, 448, 449, 450, 451, 452, 453, 454, 455, 456, 457, 458, 459, 460, 461, 462, 463, 464, 465, 466, 467, 468, 469, 470, 471, 472, 473, 474, 475, 476, 477, 478, 479, 480, 481, 482, 483, 484, 485, 486, 487, 488, 489, 490, 491, 492, 493, 494, 495, 496, 497, 498, 499, 500, 501, 502, 503, 504, 505, 506, 507, 508, 509, 510, 511, 512, 513, 514, 515, 516, 517, 518, 519, 520, 521, 522, 523, 524, 525, 526, 527, 528, 529, 530, 531, 532, 533, 534, 535, 536, 537, 538, 539, 540, 541, 542, 543, 544, 545, 546, 547, 548, 549, 550, 551, 552, 553, 554, 555, 556, 557, 558, 559, 560, 561, 562, 563, 564, 565, 566, 567, 568, 569, 570, 571, 572, 573, 574, 575, 576, 577, 578, 579, 580, 581, 582, 583, 584, 585, 586, 587, 588, 589, 590, 591, 592, 593, 594, 595, 596, 597, 598, 599, 600, 601, 602, 603, 604, 605, 606, 607, 608, 609, 610, 611, 612, 613, 614, 615, 616, 617, 618, 619, 620, 621, 622, 623, 624, 625, 626, 627, 628, 629, 630, 631, 632, 633, 634, 635, 636, 637, 638, 639, 640, 641, 642, 643, 644, 645, 646, 647, 648, 649, 650, 651, 652, 653, 654, 655, 656, 657, 658, 659, 660, 661, 662, 663, 664, 665, 666, 667, 668, 669, 670, 671, 672, 673, 674, 675, 676, 677, 678, 679, 680, 681, 682, 683, 684, 685, 686, 687, 688, 689, 690, 691, 692, 693, 694, 695, 696, 697, 698, 699, 700, 701, 702, 703, 704, 705, 706, 707, 708, 709, 710, 711, 712, 713, 714, 715, 716, 717, 718, 719, 720, 721, 722, 723, 724, 725, 726, 727, 728, 729, 730, 731, 732, 733, 734, 735, 736, 737, 738, 739, 740, 741, 742, 743, 744, 745, 746, 747, 748, 749, 750, 751, 752, 753, 754, 755, 756, 757, 758, 759, 760, 761, 762, 763, 764, 765, 766, 767, 768, 769, 770, 771, 772, 773, 774, 775, 776, 777, 778, 779, 780, 781, 782, 783, 784, 785, 786, 787, 788, 789, 790, 791, 792, 793, 794, 795, 796, 797, 798, 799, 800, 801, 802, 803, 804, 805, 806, 807, 808, 809, 810, 811, 812, 813, 814, 815, 816, 817, 818, 819, 820, 821, 822, 823, 824, 825, 826, 827, 828, 829, 830, 831, 832, 833, 834, 835, 836, 837, 838, 839, 840, 841, 842, 843, 844, 845, 846, 847, 848, 849, 850, 851, 852, 853, 854, 855, 856, 857, 858, 859, 860, 861, 862, 863, 864, 865, 866, 867, 868, 869, 870, 871, 872, 873, 874, 875, 876, 877, 878, 879, 880, 881, 882, 883, 884, 885, 886, 887, 888, 889, 890, 891, 892, 893, 894, 895, 896, 897, 898, 899, 900, 901, 902, 903, 904, 905, 906, 907, 908, 909, 910, 911, 912, 913, 914, 915, 916, 917, 918, 919, 920, 921, 922, 923, 924, 925, 926, 927, 928, 929, 930, 931, 932, 933, 934, 935, 936, 937, 938, 939, 940, 941, 942, 943, 944, 945, 946, 947, 948, 949, 950, 951, 952, 953, 954, 955, 956, 957, 958, 959, 960, 961, 962, 963, 964, 965, 966, 967, 968, 969, 970, 971, 972, 973, 974, 975, 976, 977, 978, 979, 980, 981, 982, 983, 984, 985, 986, 987, 988, 989, 990, 991, 992, 993, 994, 995, 996, 997, 998, 999, 1000, 1001, 1002, 1003, 1004, 1005, 1006, 1007, 1008, 1009, 1010, 1011, 1012, 1013, 1014, 1015, 1016, 1017, 1018, 1019, 1020, 1021, 1022, 1023, 1024, 1025, 1026, 1027, 1028, 1029, 1030, 1031, 1032, 1033, 1034, 1035, 1036, 1037, 1038, 1039, 1040, 1041, 1042, 1043, 1044, 1045, 1046, 1047, 1048, 1049, 1050, 1051, 1052, 1053, 1054, 1055, 1056, 1057, 1058, 1059, 1060, 1061, 1062, 1063, 1064, 1065, 1066, 1067, 1068, 1069, 1070],
      "AcquisitionTime": ["142058.825000", "142059.612500", "142100.400000", "142101.190000", "142101.977500", "142102.765000", "142103.552500", "142104.342500", "142105.130000", "142105.917500", "142106.705000", "142107.495000", "142108.282500", "142109.070000", "142109.857500", "142110.647500", "142111.435000", "142112.222500", "142113.012500", "142113.800000", "142114.587500", "142115.375000", "142116.165000", "142116.952500", "142117.740000", "142118.527500", "142119.317500", "142120.105000", "142120.892500", "142121.680000", "142122.470000", "142123.257500", "142124.045000", "142124.832500", "142125.622500", "142126.410000", "142127.197500", "142127.985000", "142128.775000", "142129.562500", "142130.350000", "142131.140000", "142131.927500", "142132.715000", "142133.502500", "142134.292500", "142135.080000", "142135.867500", "142136.655000", "142137.445000", "142138.232500", "142139.020000", "142139.807500", "142140.597500", "142141.385000", "142142.172500", "142142.960000", "142143.750000", "142144.537500", "142145.325000", "142146.112500", "142146.902500", "142147.690000", "142148.477500", "142149.267500", "142150.055000", "142150.842500", "142151.630000", "142152.420000", "142153.207500", "142153.995000", "142154.782500", "142155.572500", "142156.360000", "142157.147500", "142157.935000", "142158.725000", "142159.512500", "142200.300000", "142201.087500", "142201.877500", "142202.665000", "142203.452500", "142204.240000", "142205.030000", "142205.817500", "142206.605000", "142207.395000", "142208.182500", "142208.970000", "142209.757500", "142210.547500", "142211.335000", "142212.122500", "142212.910000", "142213.700000", "142214.487500", "142215.275000", "142216.062500", "142216.852500", "142217.640000", "142218.427500", "142219.215000", "142220.005000", "142220.792500", "142221.580000", "142222.367500", "142223.157500", "142223.945000", "142224.732500", "142225.522500", "142226.310000", "142227.097500", "142227.885000", "142228.675000", "142229.462500", "142230.250000", "142231.037500", "142231.827500", "142232.615000", "142233.402500", "142234.190000", "142234.980000", "142235.767500", "142236.555000", "142237.342500", "142238.132500", "142238.920000", "142239.707500", "142240.495000", "142241.285000", "142242.072500", "142242.860000", "142243.650000", "142244.437500", "142245.225000", "142246.012500", "142246.802500", "142247.590000", "142248.377500", "142249.165000", "142249.955000", "142250.742500", "142251.530000", "142252.317500", "142253.107500", "142253.895000", "142254.682500", "142255.470000", "142256.260000", "142257.047500", "142257.835000", "142258.622500", "142259.412500", "142300.200000", "142300.987500", "142301.777500", "142302.565000", "142303.352500", "142304.140000", "142304.930000", "142305.717500", "142306.505000", "142307.292500", "142308.082500", "142308.870000", "142309.657500", "142310.445000", "142311.235000", "142312.022500", "142312.810000", "142313.597500", "142314.387500", "142315.175000", "142315.962500", "142316.750000", "142317.540000", "142318.327500", "142319.115000", "142319.905000", "142320.692500", "142321.480000", "142322.267500", "142323.057500", "142323.845000", "142324.632500", "142325.420000", "142326.210000", "142326.997500", "142327.785000", "142328.572500", "142329.362500", "142330.150000", "142330.937500", "142331.725000", "142332.515000", "142333.302500", "142334.090000", "142334.880000", "142335.667500", "142336.455000", "142337.242500", "142338.032500", "142338.820000", "142339.607500", "142340.395000", "142341.185000", "142341.972500", "142342.760000", "142343.547500", "142344.337500", "142345.125000", "142345.912500", "142346.700000", "142347.490000", "142348.277500", "142349.065000", "142349.852500", "142350.642500", "142351.430000", "142352.217500", "142353.007500", "142353.795000", "142354.582500", "142355.370000", "142356.160000", "142356.947500", "142357.735000", "142358.522500", "142359.312500", "142400.100000", "142400.887500", "142401.675000", "142402.465000", "142403.252500", "142404.040000", "142404.827500", "142405.617500", "142406.405000", "142407.192500", "142407.980000", "142408.770000", "142409.557500", "142410.345000", "142411.135000", "142411.922500", "142412.710000", "142413.497500", "142414.287500", "142415.075000", "142415.862500", "142416.650000", "142417.440000", "142418.227500", "142419.015000", "142419.802500", "142420.592500", "142421.380000", "142422.167500", "142422.955000", "142423.745000", "142424.532500", "142425.320000", "142426.107500", "142426.897500", "142427.685000", "142428.472500", "142429.262500", "142430.050000", "142430.837500", "142431.625000", "142432.415000", "142433.202500", "142433.990000", "142434.777500", "142435.567500", "142436.355000", "142437.142500", "142437.930000", "142438.720000", "142439.507500", "142440.295000", "142441.082500", "142441.872500", "142442.660000", "142443.447500", "142444.235000", "142445.025000", "142445.812500", "142446.600000", "142447.390000", "142448.177500", "142448.965000", "142449.752500", "142450.542500", "142451.330000", "142452.117500", "142452.905000", "142453.695000", "142454.482500", "142455.270000", "142456.057500", "142456.847500", "142457.635000", "142458.422500", "142459.210000", "142500.000000", "142500.787500", "142501.575000", "142502.362500", "142503.152500", "142503.940000", "142504.727500", "142505.517500", "142506.305000", "142507.092500", "142507.880000", "142508.670000", "142509.457500", "142510.245000", "142511.032500", "142511.822500", "142512.610000", "142513.397500", "142514.185000", "142514.975000", "142515.762500", "142516.550000", "142517.337500", "142518.127500", "142518.915000", "142519.702500", "142520.490000", "142521.280000", "142522.067500", "142522.855000", "142523.645000", "142524.432500", "142525.220000", "142526.007500", "142526.797500", "142527.585000", "142528.372500", "142529.160000", "142529.950000", "142530.737500", "142531.525000", "142532.312500", "142533.102500", "142533.890000", "142534.677500", "142535.465000", "142536.255000", "142537.042500", "142537.830000", "142538.617500", "142539.407500", "142540.195000", "142540.982500", "142541.772500", "142542.560000", "142543.347500", "142544.135000", "142544.925000", "142545.712500", "142546.500000", "142547.287500", "142548.077500", "142548.865000", "142549.652500", "142550.440000", "142551.230000", "142552.017500", "142552.805000", "142553.592500", "142554.382500", "142555.170000", "142555.957500", "142556.745000", "142557.535000", "142558.322500", "142559.110000", "142559.900000", "142600.687500", "142601.475000", "142602.262500", "142603.052500", "142603.840000", "142604.627500", "142605.415000", "142606.205000", "142606.992500", "142607.780000", "142608.567500", "142609.357500", "142610.145000", "142610.932500", "142611.720000", "142612.510000", "142613.297500", "142614.085000", "142614.872500", "142615.662500", "142616.450000", "142617.237500", "142618.027500", "142618.815000", "142619.602500", "142620.390000", "142621.180000", "142621.967500", "142622.755000", "142623.542500", "142624.332500", "142625.120000", "142625.907500", "142626.695000", "142627.485000", "142628.272500", "142629.060000", "142629.847500", "142630.637500", "142631.425000", "142632.212500", "142633.000000", "142633.790000", "142634.577500", "142635.365000", "142636.155000", "142636.942500", "142637.730000", "142638.517500", "142639.307500", "142640.095000", "142640.882500", "142641.670000", "142642.460000", "142643.247500", "142644.035000", "142644.822500", "142645.612500", "142646.400000", "142647.187500", "142647.975000", "142648.765000", "142649.552500", "142650.340000", "142651.130000", "142651.917500", "142652.705000", "142653.492500", "142654.282500", "142655.070000", "142655.857500", "142656.645000", "142657.435000", "142658.222500", "142659.010000", "142659.797500", "142700.587500", "142701.375000", "142702.162500", "142702.950000", "142703.740000", "142704.527500", "142705.315000", "142706.102500", "142706.892500", "142707.680000", "142708.467500", "142709.257500", "142710.045000", "142710.832500", "142711.620000", "142712.410000", "142713.197500", "142713.985000", "142714.772500", "142715.562500", "142716.350000", "142717.137500", "142717.925000", "142718.715000", "142719.502500", "142720.290000", "142721.077500", "142721.867500", "142722.655000", "142723.442500", "142724.230000", "142725.020000", "142725.807500", "142726.595000", "142727.385000", "142728.172500", "142728.960000", "142729.747500", "142730.537500", "142731.325000", "142732.112500", "142732.900000", "142733.690000", "142734.477500", "142735.265000", "142736.052500", "142736.842500", "142737.630000", "142738.417500", "142739.205000", "142739.995000", "142740.782500", "142741.570000", "142742.357500", "142743.147500", "142743.935000", "142744.722500", "142745.512500", "142746.300000", "142747.087500", "142747.875000", "142748.665000", "142749.452500", "142750.240000", "142751.027500", "142751.817500", "142752.605000", "142753.392500", "142754.180000", "142754.970000", "142755.757500", "142756.545000", "142757.332500", "142758.122500", "142758.910000", "142759.697500", "142800.485000", "142801.275000", "142802.062500", "142802.850000", "142803.640000", "142804.427500", "142805.215000", "142806.002500", "142806.792500", "142807.580000", "142808.367500", "142809.155000", "142809.945000", "142810.732500", "142811.520000", "142812.307500", "142813.097500", "142813.885000", "142814.672500", "142815.460000", "142816.250000", "142817.037500", "142817.825000", "142818.612500", "142819.402500", "142820.190000", "142820.977500", "142821.767500", "142822.555000", "142823.342500", "142824.130000", "142824.920000", "142825.707500", "142826.495000", "142827.282500", "142828.072500", "142828.860000", "142829.647500", "142830.435000", "142831.225000", "142832.012500", "142832.800000", "142833.587500", "142834.377500", "142835.165000", "142835.952500", "142836.740000", "142837.530000", "142838.317500", "142839.105000", "142839.895000", "142840.682500", "142841.470000", "142842.257500", "142843.047500", "142843.835000", "142844.622500", "142845.410000", "142846.200000", "142846.987500", "142847.775000", "142848.562500", "142849.352500", "142850.140000", "142850.927500", "142851.715000", "142852.505000", "142853.292500", "142854.080000", "142854.867500", "142855.657500", "142856.445000", "142857.232500", "142858.022500", "142858.810000", "142859.597500", "142900.385000", "142901.175000", "142901.962500", "142902.750000", "142903.537500", "142904.327500", "142905.115000", "142905.902500", "142906.690000", "142907.480000", "142908.267500", "142909.055000", "142909.842500", "142910.632500", "142911.420000", "142912.207500", "142912.995000", "142913.785000", "142914.572500", "142915.360000", "142916.150000", "142916.937500", "142917.725000", "142918.512500", "142919.302500", "142920.090000", "142920.877500", "142921.665000", "142922.455000", "142923.242500", "142924.030000", "142924.817500", "142925.607500", "142926.395000", "142927.182500", "142927.970000", "142928.760000", "142929.547500", "142930.335000", "142931.122500", "142931.912500", "142932.700000", "142933.487500", "142934.277500", "142935.065000", "142935.852500", "142936.640000", "142937.430000", "142938.217500", "142939.005000", "142939.792500", "142940.582500", "142941.370000", "142942.157500", "142942.945000", "142943.735000", "142944.522500", "142945.310000", "142946.097500", "142946.887500", "142947.675000", "142948.462500", "142949.250000", "142950.040000", "142950.827500", "142951.615000", "142952.405000", "142953.192500", "142953.980000", "142954.767500", "142955.557500", "142956.345000", "142957.132500", "142957.920000", "142958.710000", "142959.497500", "143000.285000", "143001.072500", "143001.862500", "143002.650000", "143003.437500", "143004.225000", "143005.015000", "143005.802500", "143006.590000", "143007.380000", "143008.167500", "143008.955000", "143009.742500", "143010.532500", "143011.320000", "143012.107500", "143012.895000", "143013.685000", "143014.472500", "143015.260000", "143016.047500", "143016.837500", "143017.625000", "143018.412500", "143019.200000", "143019.990000", "143020.777500", "143021.565000", "143022.352500", "143023.142500", "143023.930000", "143024.717500", "143025.507500", "143026.295000", "143027.082500", "143027.870000", "143028.660000", "143029.447500", "143030.235000", "143031.022500", "143031.812500", "143032.600000", "143033.387500", "143034.175000", "143034.965000", "143035.752500", "143036.540000", "143037.327500", "143038.117500", "143038.905000", "143039.692500", "143040.480000", "143041.270000", "143042.057500", "143042.845000", "143043.635000", "143044.422500", "143045.210000", "143045.997500", "143046.787500", "143047.575000", "143048.362500", "143049.150000", "143049.940000", "143050.727500", "143051.515000", "143052.302500", "143053.092500", "143053.880000", "143054.667500", "143055.455000", "143056.245000", "143057.032500", "143057.820000", "143058.607500", "143059.397500", "143100.185000", "143100.972500", "143101.762500", "143102.550000", "143103.337500", "143104.125000", "143104.915000", "143105.702500", "143106.490000", "143107.277500", "143108.067500", "143108.855000", "143109.642500", "143110.430000", "143111.220000", "143112.007500", "143112.795000", "143113.582500", "143114.372500", "143115.160000", "143115.947500", "143116.735000", "143117.525000", "143118.312500", "143119.100000", "143119.890000", "143120.677500", "143121.465000", "143122.252500", "143123.042500", "143123.830000", "143124.617500", "143125.405000", "143126.195000", "143126.982500", "143127.770000", "143128.557500", "143129.347500", "143130.135000", "143130.922500", "143131.710000", "143132.500000", "143133.287500", "143134.075000", "143134.862500", "143135.652500", "143136.440000", "143137.227500", "143138.017500", "143138.805000", "143139.592500", "143140.380000", "143141.170000", "143141.957500", "143142.745000", "143143.532500", "143144.322500", "143145.110000", "143145.897500", "143146.685000", "143147.475000", "143148.262500", "143149.050000", "143149.837500", "143150.627500", "143151.415000", "143152.202500", "143152.990000", "143153.780000", "143154.567500", "143155.355000", "143156.145000", "143156.932500", "143157.720000", "143158.507500", "143159.297500", "143200.085000", "143200.872500", "143201.660000", "143202.450000", "143203.237500", "143204.025000", "143204.812500", "143205.602500", "143206.390000", "143207.177500", "143207.965000", "143208.755000", "143209.542500", "143210.330000", "143211.117500", "143211.907500", "143212.695000", "143213.482500", "143214.272500", "143215.060000", "143215.847500", "143216.635000", "143217.425000", "143218.212500", "143219.000000", "143219.787500", "143220.577500", "143221.365000", "143222.152500", "143222.940000", "143223.730000", "143224.517500", "143225.305000", "143226.092500", "143226.882500", "143227.670000", "143228.457500", "143229.245000", "143230.035000", "143230.822500", "143231.610000", "143232.400000", "143233.187500", "143233.975000", "143234.762500", "143235.552500", "143236.340000", "143237.127500", "143237.915000", "143238.705000", "143239.492500", "143240.280000", "143241.067500", "143241.857500", "143242.645000", "143243.432500", "143244.220000", "143245.010000", "143245.797500", "143246.585000", "143247.372500", "143248.162500", "143248.950000", "143249.737500", "143250.527500", "143251.315000", "143252.102500", "143252.890000", "143253.680000", "143254.467500", "143255.255000", "143256.042500", "143256.832500", "143257.620000", "143258.407500", "143259.195000", "143259.985000", "143300.772500", "143301.560000", "143302.347500", "143303.137500", "143303.925000", "143304.712500", "143305.500000", "143306.290000", "143307.077500", "143307.865000", "143308.655000", "143309.442500", "143310.230000", "143311.017500", "143311.807500", "143312.595000", "143313.382500", "143314.170000", "143314.960000", "143315.747500", "143316.535000", "143317.322500", "143318.112500", "143318.900000", "143319.687500", "143320.475000", "143321.265000", "143322.052500", "143322.840000", "143323.630000", "143324.417500", "143325.205000", "143325.992500", "143326.782500", "143327.570000", "143328.357500", "143329.145000", "143329.935000", "143330.722500", "143331.510000", "143332.297500", "143333.087500", "143333.875000", "143334.662500", "143335.450000", "143336.240000", "143337.027500", "143337.815000", "143338.602500", "143339.392500", "143340.180000", "143340.967500", "143341.757500", "143342.545000", "143343.332500", "143344.120000", "143344.910000", "143345.697500", "143346.485000", "143347.272500", "143348.062500", "143348.850000", "143349.637500", "143350.425000", "143351.215000", "143352.002500", "143352.790000", "143353.577500", "143354.367500", "143355.155000", "143355.942500", "143356.730000", "143357.520000", "143358.307500", "143359.095000", "143359.885000", "143400.672500", "143401.460000", "143402.247500", "143403.037500", "143403.825000", "143404.612500", "143405.400000", "143406.190000", "143406.977500", "143407.765000", "143408.552500", "143409.342500", "143410.130000", "143410.917500", "143411.705000", "143412.495000", "143413.282500", "143414.070000", "143414.857500", "143415.647500", "143416.435000", "143417.222500", "143418.012500", "143418.800000", "143419.587500", "143420.375000", "143421.165000", "143421.952500", "143422.740000", "143423.527500", "143424.317500", "143425.105000", "143425.892500", "143426.680000", "143427.470000", "143428.257500", "143429.045000", "143429.832500", "143430.622500", "143431.410000", "143432.197500", "143432.985000", "143433.775000", "143434.562500", "143435.350000", "143436.140000", "143436.927500", "143437.715000", "143438.502500", "143439.292500", "143440.080000", "143440.867500", "143441.655000", "143442.445000", "143443.232500", "143444.020000", "143444.807500", "143445.597500", "143446.385000", "143447.172500", "143447.960000", "143448.750000", "143449.537500", "143450.325000", "143451.112500", "143451.902500", "143452.690000", "143453.477500", "143454.267500", "143455.055000", "143455.842500", "143456.630000", "143457.420000", "143458.207500", "143458.995000", "143459.782500", "143500.572500", "143501.360000"],
