{
  "AcquisitionMatrixPE": 104,
  "AcquisitionNumber": 1,
  "AcquisitionTime": "15:31:31.695000",
  "BandwidthPerPixelPhaseEncode": 13.935,
  "BaseResolution": 104,
  "CoilString": "C:HEA;HEP",
  "ConversionSoftware": "dcm2niix",
  "ConversionSoftwareVersion": "v1.0.20210317",
  "DerivedVendorReportedEchoSpacing": 0.000690017,
  "DeviceSerialNumber": "35450",
  "DwellTime": 2.5e-06,
  "EchoTime": 0.0348,
  "EffectiveEchoSpacing": 0.000690017,
  "FlipAngle": 55,
  "ImageComments": "Unaliased MB8/PE3 (remote)",
  "ImageOrientationPatientDICOM": [0.999926, 0.0016085, 0.0120556, 4.42166e-08, 0.991216, -0.132256],
  "ImageType": [
    "ORIGINAL",
    "PRIMARY",
    "M",
    "MB",
    "ND",
    "MOSAIC"
],
  "ImagingFrequency": 123.234,
  "InPlanePhaseEncodingDirectionDICOM": "COL",
  "InstitutionAddress": "Univeristy Ave. 197,Newark,North East,US,07102-1814",
  "InstitutionName": "RUBIC",
  "InstitutionalDepartmentName": "Department",
  "MRAcquisitionType": "2D",
  "MagneticFieldStrength": 3,
  "Manufacturer": "Siemens",
  "ManufacturersModelName": "TrioTim",
  "Modality": "MR",
  "MultibandAccelerationFactor": 8,
  "PartialFourier": 0.875,
  "PatientPosition": "HFS",
  "PercentPhaseFOV": 100,
  "PercentSampling": 100,
  "PhaseEncodingDirection": "j-",
  "PhaseEncodingSteps": 91,
  "PhaseResolution": 1,
  "PixelBandwidth": 1923,
  "ProcedureStepDescription": "Cole^Michael",
  "ProtocolName": "cmrr_mbep2d_bold_2mm_MB8_Task_8x",
  "PulseSequenceDetails": "%CustomerSeq%\\cmrr_mbep2d_bold",
  "ReceiveCoilName": "32Ch_Head",
  "ReconMatrixPE": 104,
  "RepetitionTime": 0.785,
  "SAR": 0.131693,
  "ScanOptions": "PFP\\FS",
  "ScanningSequence": "EP",
  "SequenceName": "epfid2d1_104",
  "SequenceVariant": "SK\\SS",
  "SeriesDescription": "cmrr_mbep2d_bold_2mm_MB8_Task_8x",
  "SeriesNumber": 25,
  "ShimSetting": [2126, -415, -7290, 571, -7, -105, 104, 75],
  "SliceThickness": 2,
  "SliceTiming": [0, 0.4375, 0.0875, 0.525, 0.175, 0.6125, 0.2625, 0.7, 0.35, 0, 0.4375, 0.0875, 0.525, 0.175, 0.6125, 0.2625, 0.7, 0.35, 0, 0.4375, 0.0875, 0.525, 0.175, 0.6125, 0.2625, 0.7, 0.35, 0, 0.4375, 0.0875, 0.525, 0.175, 0.6125, 0.2625, 0.7, 0.35, 0, 0.4375, 0.0875, 0.525, 0.175, 0.6125, 0.2625, 0.7, 0.35, 0, 0.4375, 0.0875, 0.525, 0.175, 0.6125, 0.2625, 0.7, 0.35, 0, 0.4375, 0.0875, 0.525, 0.175, 0.6125, 0.2625, 0.7, 0.35, 0, 0.4375, 0.0875, 0.525, 0.175, 0.6125, 0.2625, 0.7, 0.35],
  "SoftwareVersions": "syngo MR B19",
  "SpacingBetweenSlices": 2,
  "StationName": "MRC35450",
  "TaskName": "cpro",
  "TotalReadoutTime": 0.0710717,
  "TxRefAmp": 321.497,
  "dcmmeta_affine": [
    [-1.9998520612716675, 8.843328203056444e-08, 0.024324825033545494, 103.97781372070312],
    [-0.003217006102204323, 1.9824312925338745, -0.26449158787727356, -80.29901123046875],
    [0.024111157283186913, 0.2645111680030823, 1.982284665107727, -111.53255462646484],
    [0.0, 0.0, 0.0, 1.0]
],
  "dcmmeta_reorient_transform": [
    [0.0, -1.0, 0.0, 103.0],
    [1.0, 0.0, 0.0, 0.0],
    [0.0, 0.0, 1.0, 0.0],
    [0.0, 0.0, 0.0, 1.0]
],
  "dcmmeta_shape": [104, 104, 72, 581],
  "dcmmeta_slice_dim": 2,
  "dcmmeta_version": 0.6,
  "global": {
    "const": {
      "AcquisitionMatrix": [104, 0, 0, 104],
      "AngioFlag": "N",
      "BitsAllocated": 16,
      "BitsStored": 12,
      "Columns": 936,
      "EchoNumbers": 1,
      "EchoTime": 34.8,
      "EchoTrainLength": 1,
      "FlipAngle": 55.0,
      "HighBit": 11,
      "ImageOrientationPatient": [0.99992603512999, 0.0016085030514, 0.01205557908826, 4.4216641e-08, 0.99121564832126, -0.1322555803098],
      "ImagePositionPatient": [-935.91632411949, -949.9211086267, 15.718497224878],
      "ImageType": [
        "ORIGINAL",
        "PRIMARY",
        "M",
        "MB",
        "ND",
        "MOSAIC"
],
      "ImagedNucleus": "1H",
      "ImagingFrequency": 123.234441,
      "InPlanePhaseEncodingDirection": "COL",
      "MRAcquisitionType": "2D",
      "MagneticFieldStrength": 3.0,
      "Manufacturer": "SIEMENS",
      "ManufacturerModelName": "TrioTim",
      "Modality": "MR",
      "NumberOfAverages": 1.0,
      "NumberOfPhaseEncodingSteps": 91,
      "PercentPhaseFieldOfView": 100.0,
      "PercentSampling": 100.0,
      "PerformedProcedureStepStartTime": "134016.312000",
      "PhotometricInterpretation": "MONOCHROME2",
      "PixelBandwidth": 1923.0,
      "PixelRepresentation": 0,
      "PixelSpacing": [2.0, 2.0],
      "ProtocolName": "cmrr_mbep2d_bold_2mm_MB8_Task_8x",
      "RepetitionTime": 785.0,
      "Rows": 936,
      "SAR": 0.13169320744857,
      "SamplesPerPixel": 1,
      "ScanOptions": [
        "PFP",
        "FS"
],
      "ScanningSequence": "EP",
      "SequenceName": "epfid2d1_104",
      "SequenceVariant": [
        "SK",
        "SS"
],
      "SeriesDescription": "cmrr_mbep2d_bold_2mm_MB8_Task_8x",
      "SeriesNumber": 25,
      "SeriesTime": "153206.062000",
      "SliceLocation": -98.660807513616,
      "SliceThickness": 2.0,
      "SmallestImagePixelValue": 0,
      "SoftwareVersions": "syngo MR B19",
      "SpacingBetweenSlices": 1.9999999865782,
      "SpecificCharacterSet": "ISO_IR 100",
      "StudyID": "1",
      "StudyTime": "134016.250000",
      "TransmitCoilName": "Body",
      "VariableFlipAngleFlag": "N",
      "WindowCenterWidthExplanation": "Algo1",
      "dBdt": 0.0},
    "slices": {}
  },
  "time": {
    "samples": {
      "AcquisitionNumber": [1, 2, 3, 4, 5, 6, 7, 8, 9, 10, 11, 12, 13, 14, 15, 16, 17, 18, 19, 20, 21, 22, 23, 24, 25, 26, 27, 28, 29, 30, 31, 32, 33, 34, 35, 36, 37, 38, 39, 40, 41, 42, 43, 44, 45, 46, 47, 48, 49, 50, 51, 52, 53, 54, 55, 56, 57, 58, 59, 60, 61, 62, 63, 64, 65, 66, 67, 68, 69, 70, 71, 72, 73, 74, 75, 76, 77, 78, 79, 80, 81, 82, 83, 84, 85, 86, 87, 88, 89, 90, 91, 92, 93, 94, 95, 96, 97, 98, 99, 100, 101, 102, 103, 104, 105, 106, 107, 108, 109, 110, 111, 112, 113, 114, 115, 116, 117, 118, 119, 120, 121, 122, 123, 124, 125, 126, 127, 128, 129, 130, 131, 132, 133, 134, 135, 136, 137, 138, 139, 140, 141, 142, 143, 144, 145, 146, 147, 148, 149, 150, 151, 152, 153, 154, 155, 156, 157, 158, 159, 160, 161, 162, 163, 164, 165, 166, 167, 168, 169, 170, 171, 172, 173, 174, 175, 176, 177, 178, 179, 180, 181, 182, 183, 184, 185, 186, 187, 188, 189, 190, 191, 192, 193, 194, 195, 196, 197, 198, 199, 200, 201, 202, 203, 204, 205, 206, 207, 208, 209, 210, 211, 212, 213, 214, 215, 216, 217, 218, 219, 220, 221, 222, 223, 224, 225, 226, 227, 228, 229, 230, 231, 232, 233, 234, 235, 236, 237, 238, 239, 240, 241, 242, 243, 244, 245, 246, 247, 248, 249, 250, 251, 252, 253, 254, 255, 256, 257, 258, 259, 260, 261, 262, 263, 264, 265, 266, 267, 268, 269, 270, 271, 272, 273, 274, 275, 276, 277, 278, 279, 280, 281, 282, 283, 284, 285, 286, 287, 288, 289, 290, 291, 292, 293, 294, 295, 296, 297, 298, 299, 300, 301, 302, 303, 304, 305, 306, 307, 308, 309, 310, 311, 312, 313, 314, 315, 316, 317, 318, 319, 320, 321, 322, 323, 324, 325, 326, 327, 328, 329, 330, 331, 332, 333, 334, 335, 336, 337, 338, 339, 340, 341, 342, 343, 344, 345, 346, 347, 348, 349, 350, 351, 352, 353, 354, 355, 356, 357, 358, 359, 360, 361, 362, 363, 364, 365, 366, 367, 368, 369, 370, 371, 372, 373, 374, 375, 376, 377, 378, 379, 380, 381, 382, 383, 384, 385, 386, 387, 388, 389, 390, 391, 392, 393, 394, 395, 396, 397, 398, 399, 400, 401, 402, 403, 404, 405, 406, 407, 408, 409, 410, 411, 412, 413, 414, 415, 416, 417, 418, 419, 420, 421, 422, 423, 424, 425, 426, 427, 428, 429, 430, 431, 432, 433, 434, 435, 436, 437, 438, 439, 440, 441, 442, 443, 444, 445, 446, 447, 448, 449, 450, 451, 452, 453, 454, 455, 456, 457, 458, 459, 460, 461, 462, 463, 464, 465, 466, 467, 468, 469, 470, 471, 472, 473, 474, 475, 476, 477, 478, 479, 480, 481, 482, 483, 484, 485, 486, 487, 488, 489, 490, 491, 492, 493, 494, 495, 496, 497, 498, 499, 500, 501, 502, 503, 504, 505, 506, 507, 508, 509, 510, 511, 512, 513, 514, 515, 516, 517, 518, 519, 520, 521, 522, 523, 524, 525, 526, 527, 528, 529, 530, 531, 532, 533, 534, 535, 536, 537, 538, 539, 540, 541, 542, 543, 544, 545, 546, 547, 548, 549, 550, 551, 552, 553, 554, 555, 556, 557, 558, 559, 560, 561, 562, 563, 564, 565, 566, 567, 568, 569, 570, 571, 572, 573, 574, 575, 576, 577, 578, 579, 580, 581],
      "AcquisitionTime": ["153131.695000", "153132.482500", "153133.272500", "153134.060000", "153134.847500", "153135.635000", "153136.425000", "153137.212500", "153138.000000", "153138.787500", "153139.577500", "153140.365000", "153141.152500", "153141.942500", "153142.730000", "153143.517500", "153144.305000", "153145.095000", "153145.882500", "153146.670000", "153147.457500", "153148.247500", "153149.035000", "153149.822500", "153150.610000", "153151.400000", "153152.187500", "153152.975000", "153153.762500", "153154.552500", "153155.340000", "153156.127500", "153156.915000", "153157.705000", "153158.492500", "153159.280000", "153200.070000", "153200.857500", "153201.645000", "153202.432500", "153203.222500", "153204.010000", "153204.797500", "153205.585000", "153206.375000", "153207.162500", "153207.950000", "153208.737500", "153209.527500", "153210.315000", "153211.102500", "153211.890000", "153212.680000", "153213.467500", "153214.255000", "153215.042500", "153215.832500", "153216.620000", "153217.407500", "153218.197500", "153218.985000", "153219.772500", "153220.560000", "153221.350000", "153222.137500", "153222.925000", "153223.712500", "153224.502500", "153225.290000", "153226.077500", "153226.865000", "153227.655000", "153228.442500", "153229.230000", "153230.017500", "153230.807500", "153231.595000", "153232.382500", "153233.172500", "153233.960000", "153234.747500", "153235.535000", "153236.325000", "153237.112500", "153237.900000", "153238.687500", "153239.477500", "153240.265000", "153241.052500", "153241.840000", "153242.630000", "153243.417500", "153244.205000", "153244.992500", "153245.782500", "153246.570000", "153247.357500", "153248.145000", "153248.935000", "153249.722500", "153250.510000", "153251.300000", "153252.087500", "153252.875000", "153253.662500", "153254.452500", "153255.240000", "153256.027500", "153256.815000", "153257.605000", "153258.392500", "153259.180000", "153259.967500", "153300.757500", "153301.545000", "153302.332500", "153303.120000", "153303.910000", "153304.697500", "153305.485000", "153306.272500", "153307.062500", "153307.850000", "153308.637500", "153309.427500", "153310.215000", "153311.002500", "153311.790000", "153312.580000", "153313.367500", "153314.155000", "153314.942500", "153315.732500", "153316.520000", "153317.307500", "153318.095000", "153318.885000", "153319.672500", "153320.460000", "153321.247500", "153322.037500", "153322.825000", "153323.612500", "153324.400000", "153325.190000", "153325.977500", "153326.765000", "153327.555000", "153328.342500", "153329.130000", "153329.917500", "153330.707500", "153331.495000", "153332.282500", "153333.070000", "153333.860000", "153334.647500", "153335.435000", "153336.222500", "153337.012500", "153337.800000", "153338.587500", "153339.375000", "153340.165000", "153340.952500", "153341.740000", "153342.527500", "153343.317500", "153344.105000", "153344.892500", "153345.682500", "153346.470000", "153347.257500", "153348.045000", "153348.835000", "153349.622500", "153350.410000", "153351.197500", "153351.987500", "153352.775000", "153353.562500", "153354.350000", "153355.140000", "153355.927500", "153356.715000", "153357.502500", "153358.292500", "153359.080000", "153359.867500", "153400.655000", "153401.445000", "153402.232500", "153403.020000", "153403.810000", "153404.597500", "153405.385000", "153406.172500", "153406.962500", "153407.750000", "153408.537500", "153409.325000", "153410.115000", "153410.902500", "153411.690000", "153412.477500", "153413.267500", "153414.055000", "153414.842500", "153415.630000", "153416.420000", "153417.207500", "153417.995000", "153418.782500", "153419.572500", "153420.360000", "153421.147500", "153421.937500", "153422.725000", "153423.512500", "153424.300000", "153425.090000", "153425.877500", "153426.665000", "153427.452500", "153428.242500", "153429.030000", "153429.817500", "153430.605000", "153431.395000", "153432.182500", "153432.970000", "153433.757500", "153434.547500", "153435.335000", "153436.122500", "153436.910000", "153437.700000", "153438.487500", "153439.275000", "153440.065000", "153440.852500", "153441.640000", "153442.427500", "153443.217500", "153444.005000", "153444.792500", "153445.580000", "153446.370000", "153447.157500", "153447.945000", "153448.732500", "153449.522500", "153450.310000", "153451.097500", "153451.885000", "153452.675000", "153453.462500", "153454.250000", "153455.037500", "153455.827500", "153456.615000", "153457.402500", "153458.192500", "153458.980000", "153459.767500", "153500.555000", "153501.345000", "153502.132500", "153502.920000", "153503.707500", "153504.497500", "153505.285000", "153506.072500", "153506.860000", "153507.650000", "153508.437500", "153509.225000", "153510.012500", "153510.802500", "153511.590000", "153512.377500", "153513.165000", "153513.955000", "153514.742500", "153515.530000", "153516.320000", "153517.107500", "153517.895000", "153518.682500", "153519.472500", "153520.260000", "153521.047500", "153521.835000", "153522.625000", "153523.412500", "153524.200000", "153524.987500", "153525.777500", "153526.565000", "153527.352500", "153528.140000", "153528.930000", "153529.717500", "153530.505000", "153531.292500", "153532.082500", "153532.870000", "153533.657500", "153534.447500", "153535.235000", "153536.022500", "153536.810000", "153537.600000", "153538.387500", "153539.175000", "153539.962500", "153540.752500", "153541.540000", "153542.327500", "153543.115000", "153543.905000", "153544.692500", "153545.480000", "153546.267500", "153547.057500", "153547.845000", "153548.632500", "153549.422500", "153550.210000", "153550.997500", "153551.785000", "153552.575000", "153553.362500", "153554.150000", "153554.937500", "153555.727500", "153556.515000", "153557.302500", "153558.090000", "153558.880000", "153559.667500", "153600.455000", "153601.242500", "153602.032500", "153602.820000", "153603.607500", "153604.395000", "153605.185000", "153605.972500", "153606.760000", "153607.550000", "153608.337500", "153609.125000", "153609.912500", "153610.702500", "153611.490000", "153612.277500", "153613.065000", "153613.855000", "153614.642500", "153615.430000", "153616.217500", "153617.007500", "153617.795000", "153618.582500", "153619.370000", "153620.160000", "153620.947500", "153621.735000", "153622.522500", "153623.312500", "153624.100000", "153624.887500", "153625.677500", "153626.465000", "153627.252500", "153628.040000", "153628.830000", "153629.617500", "153630.405000", "153631.192500", "153631.982500", "153632.770000", "153633.557500", "153634.345000", "153635.135000", "153635.922500", "153636.710000", "153637.497500", "153638.287500", "153639.075000", "153639.862500", "153640.650000", "153641.440000", "153642.227500", "153643.015000", "153643.805000", "153644.592500", "153645.380000", "153646.167500", "153646.957500", "153647.745000", "153648.532500", "153649.320000", "153650.110000", "153650.897500", "153651.685000", "153652.472500", "153653.262500", "153654.050000", "153654.837500", "153655.625000", "153656.415000", "153657.202500", "153657.990000", "153658.777500", "153659.567500", "153700.355000", "153701.142500", "153701.932500", "153702.720000", "153703.507500", "153704.295000", "153705.085000", "153705.872500", "153706.660000", "153707.447500", "153708.237500", "153709.025000", "153709.812500", "153710.600000", "153711.390000", "153712.177500", "153712.965000", "153713.752500", "153714.542500", "153715.330000", "153716.117500", "153716.905000", "153717.695000", "153718.482500", "153719.270000", "153720.060000", "153720.847500", "153721.635000", "153722.422500", "153723.212500", "153724.000000", "153724.787500", "153725.575000", "153726.365000", "153727.152500", "153727.940000", "153728.727500", "153729.517500", "153730.305000", "153731.092500", "153731.880000", "153732.670000", "153733.457500", "153734.245000", "153735.032500", "153735.822500", "153736.610000", "153737.397500", "153738.187500", "153738.975000", "153739.762500", "153740.550000", "153741.340000", "153742.127500", "153742.915000", "153743.702500", "153744.492500", "153745.280000", "153746.067500", "153746.855000", "153747.645000", "153748.432500", "153749.220000", "153750.007500", "153750.797500", "153751.585000", "153752.372500", "153753.160000", "153753.950000", "153754.737500", "153755.525000", "153756.315000", "153757.102500", "153757.890000", "153758.677500", "153759.467500", "153800.255000", "153801.042500", "153801.830000", "153802.620000", "153803.407500", "153804.195000", "153804.982500", "153805.772500", "153806.560000", "153807.347500", "153808.135000", "153808.925000", "153809.712500", "153810.500000", "153811.287500", "153812.077500", "153812.865000", "153813.652500", "153814.442500", "153815.230000", "153816.017500", "153816.805000", "153817.595000", "153818.382500", "153819.170000", "153819.957500", "153820.747500", "153821.535000", "153822.322500", "153823.110000", "153823.900000", "153824.687500", "153825.475000", "153826.262500", "153827.052500", "153827.840000", "153828.627500", "153829.415000", "153830.205000", "153830.992500", "153831.780000", "153832.570000", "153833.357500", "153834.145000", "153834.932500", "153835.722500", "153836.510000", "153837.297500", "153838.085000", "153838.875000", "153839.662500", "153840.450000", "153841.237500", "153842.027500", "153842.815000", "153843.602500", "153844.390000", "153845.180000", "153845.967500", "153846.755000", "153847.542500", "153848.332500", "153849.120000", "153849.907500", "153850.697500", "153851.485000", "153852.272500", "153853.060000", "153853.850000", "153854.637500", "153855.425000", "153856.212500", "153857.002500", "153857.790000", "153858.577500", "153859.365000", "153900.155000", "153900.942500", "153901.730000", "153902.517500", "153903.307500", "153904.095000", "153904.882500", "153905.672500", "153906.460000", "153907.247500", "153908.035000", "153908.825000"],
      "ContentTime": ["153206.062000", "153206.062000", "153206.062000", "153206.062000", "153206.078000", "153206.078000", "153206.078000", "153206.078000", "153206.078000", "153206.078000", "153206.078000", "153206.078000", "153206.093000", "153206.093000", "153206.093000", "153206.093000", "153206.093000", "153206.093000", "153206.109000", "153206.109000", "153206.109000", "153206.109000", "153206.109000", "153206.109000", "153206.109000", "153206.109000", "153206.125000", "153206.125000", "153206.125000", "153206.125000", "153206.125000", "153206.125000", "153206.125000", "153206.125000", "153206.140000", "153206.140000", "153206.140000", "153206.140000", "153206.140000", "153206.140000", "153226.031000", "153226.031000", "153226.031000", "153226.046000", "153226.046000", "153226.046000", "153226.046000", "153226.046000", "153226.046000", "153226.046000", "153226.046000", "153226.062000", "153226.062000", "153226.062000", "153226.062000", "153226.062000", "153226.062000", "153226.062000", "153226.062000", "153226.078000", "153226.078000", "153226.078000", "153226.078000", "153226.078000", "153226.078000", "153226.078000", "153246.031000", "153246.031000", "153246.031000", "153246.046000", "153246.046000", "153246.046000", "153246.046000", "153246.046000", "153246.046000", "153246.046000", "153246.046000", "153246.062000", "153246.062000", "153246.062000", "153246.062000", "153246.062000", "153246.062000", "153246.062000", "153246.078000", "153246.078000", "153246.078000", "153246.078000", "153246.078000", "153246.078000", "153246.078000", "153306.031000", "153306.031000", "153306.031000", "153306.046000", "153306.046000", "153306.046000", "153306.046000", "153306.046000", "153306.046000", "153306.046000", "153306.046000", "153306.062000", "153306.062000", "153306.062000", "153306.062000", "153306.062000", "153306.062000", "153306.062000", "153306.062000", "153306.078000", "153306.078000", "153306.078000", "153306.078000", "153306.078000", "153306.078000", "153306.078000", "153326.031000", "153326.031000", "153326.031000", "153326.046000", "153326.046000", "153326.046000", "153326.046000", "153326.046000", "153326.046000", "153326.046000", "153326.062000", "153326.062000", "153326.062000", "153326.062000", "153326.062000", "153326.062000", "153326.062000", "153326.062000", "153326.078000", "153326.078000", "153326.078000", "153326.078000", "153326.078000", "153326.078000", "153326.078000", "153346.031000", "153346.062000", "153346.062000", "153346.078000", "153346.078000", "153346.078000", "153346.078000", "153346.078000", "153346.078000", "153346.078000", "153346.093000", "153346.093000", "153346.093000", "153346.093000", "153346.093000", "153346.093000", "153346.093000", "153346.093000", "153346.109000", "153346.109000", "153346.109000", "153346.109000", "153346.109000", "153346.109000", "153346.109000", "153406.031000", "153406.031000", "153406.031000", "153406.046000", "153406.046000", "153406.046000", "153406.046000", "153406.046000", "153406.046000", "153406.046000", "153406.062000", "153406.062000", "153406.062000", "153406.062000", "153406.062000", "153406.062000", "153406.062000", "153406.062000", "153406.078000", "153406.078000", "153406.078000", "153406.078000", "153406.078000", "153406.078000", "153406.078000", "153406.078000", "153426.031000", "153426.031000", "153426.031000", "153426.046000", "153426.046000", "153426.046000", "153426.046000", "153426.046000", "153426.046000", "153426.046000", "153426.046000", "153426.062000", "153426.062000", "153426.062000", "153426.062000", "153426.062000", "153426.078000", "153426.078000", "153426.078000", "153426.078000", "153426.078000", "153426.078000", "153426.078000", "153426.078000", "153426.093000", "153446.031000", "153446.031000", "153446.031000", "153446.046000", "153446.046000", "153446.046000", "153446.046000", "153446.046000", "153446.046000", "153446.046000", "153446.046000", "153446.062000", "153446.062000", "153446.062000", "153446.062000", "153446.062000", "153446.062000", "153446.062000", "153446.078000", "153446.078000", "153446.078000", "153446.078000", "153446.078000", "153446.078000", "153446.078000", "153446.078000", "153506.031000", "153506.031000", "153506.031000", "153506.046000", "153506.046000", "153506.046000", "153506.046000", "153506.046000", "153506.046000", "153506.046000", "153506.062000", "153506.062000", "153506.062000", "153506.062000", "153506.062000", "153506.062000", "153506.062000", "153506.078000", "153506.078000", "153506.078000", "153506.078000", "153506.078000", "153506.078000", "153506.078000", "153506.078000", "153526.031000", "153526.031000", "153526.031000", "153526.046000", "153526.046000", "153526.046000", "153526.046000", "153526.046000", "153526.046000", "153526.046000", "153526.046000", "153526.062000", "153526.062000", "153526.062000", "153526.062000", "153526.062000", "153526.062000", "153526.062000", "153526.062000", "153526.078000", "153526.078000", "153526.078000", "153526.078000", "153526.078000", "153526.078000", "153526.078000", "153546.031000", "153546.031000", "153546.031000", "153546.046000", "153546.046000", "153546.046000", "153546.046000", "153546.046000", "153546.046000", "153546.046000", "153546.046000", "153546.062000", "153546.062000", "153546.062000", "153546.062000", "153546.062000", "153546.062000", "153546.062000", "153546.062000", "153546.078000", "153546.078000", "153546.078000", "153546.078000", "153546.078000", "153546.078000", "153606.031000", "153606.031000", "153606.031000", "153606.046000", "153606.046000", "153606.046000", "153606.046000", "153606.046000", "153606.046000", "153606.046000", "153606.046000", "153606.062000", "153606.062000", "153606.062000", "153606.062000", "153606.062000", "153606.062000", "153606.062000", "153606.078000", "153606.078000", "153606.078000", "153606.078000", "153606.078000", "153606.078000", "153606.078000", "153606.078000", "153626.031000", "153626.031000", "153626.031000", "153626.046000", "153626.046000", "153626.046000", "153626.046000", "153626.046000", "153626.046000", "153626.046000", "153626.046000", "153626.062000", "153626.062000", "153626.062000", "153626.062000", "153626.062000", "153626.062000", "153626.062000", "153626.078000", "153626.078000", "153626.078000", "153626.078000", "153626.078000", "153626.078000", "153626.078000", "153646.031000", "153646.031000", "153646.031000", "153646.046000", "153646.046000", "153646.046000", "153646.046000", "153646.046000", "153646.046000", "153646.046000", "153646.046000", "153646.062000", "153646.062000", "153646.062000", "153646.062000", "153646.062000", "153646.062000", "153646.062000", "153646.062000", "153646.078000", "153646.078000", "153646.078000", "153646.078000", "153646.078000", "153646.078000", "153646.078000", "153706.031000", "153706.031000", "153706.031000", "153706.046000", "153706.046000", "153706.046000", "153706.046000", "153706.046000", "153706.046000", "153706.046000", "153706.046000", "153706.062000", "153706.062000", "153706.062000", "153706.062000", "153706.062000", "153706.062000", "153706.062000", "153706.062000", "153706.078000", "153706.078000", "153706.078000", "153706.078000", "153706.078000", "153706.078000", "153726.031000", "153726.031000", "153726.031000", "153726.046000", "153726.046000", "153726.046000", "153726.046000", "153726.046000", "153726.046000", "153726.046000", "153726.046000", "153726.062000", "153726.062000", "153726.062000", "153726.062000", "153726.062000", "153726.062000", "153726.062000", "153726.062000", "153726.078000", "153726.078000", "153726.078000", "153726.078000", "153726.078000", "153726.078000", "153726.078000", "153746.031000", "153746.031000", "153746.031000", "153746.046000", "153746.046000", "153746.046000", "153746.046000", "153746.046000", "153746.046000", "153746.046000", "153746.046000", "153746.062000", "153746.062000", "153746.062000", "153746.062000", "153746.062000", "153746.062000", "153746.062000", "153746.062000", "153746.078000", "153746.078000", "153746.078000", "153746.078000", "153746.078000", "153746.078000", "153806.031000", "153806.031000", "153806.031000", "153806.046000", "153806.046000", "153806.046000", "153806.046000", "153806.046000", "153806.046000", "153806.046000", "153806.046000", "153806.062000", "153806.062000", "153806.062000", "153806.062000", "153806.062000", "153806.062000", "153806.062000", "153806.078000", "153806.078000", "153806.078000", "153806.078000", "153806.078000", "153806.078000", "153806.078000", "153806.078000", "153826.031000", "153826.031000", "153826.031000", "153826.046000", "153826.046000", "153826.046000", "153826.046000", "153826.062000", "153826.062000", "153826.062000", "153826.062000", "153826.062000", "153826.062000", "153826.078000", "153826.078000", "153826.078000", "153826.078000", "153826.078000", "153826.078000", "153826.078000", "153826.078000", "153826.093000", "153826.093000", "153826.093000", "153826.093000", "153846.031000", "153846.031000", "153846.031000", "153846.046000", "153846.046000", "153846.046000", "153846.046000", "153846.046000", "153846.046000", "153846.046000", "153846.062000", "153846.062000", "153846.062000", "153846.062000", "153846.062000", "153846.062000", "153846.062000", "153846.062000", "153846.078000", "153846.078000", "153846.078000", "153846.078000", "153846.078000", "153846.078000", "153846.078000", "153846.078000", "153906.031000", "153906.031000", "153906.031000", "153906.046000", "153906.046000", "153906.046000", "153906.046000", "153906.046000", "153906.046000", "153906.046000", "153906.046000", "153906.062000", "153906.062000", "153906.062000", "153906.062000", "153906.062000", "153906.062000", "153906.062000", "153906.062000", "153906.078000", "153906.078000", "153906.078000", "153906.078000", "153906.078000", "153906.078000", "153910.265000", "153910.265000", "153910.265000", "153910.265000", "153910.265000", "153910.265000"],
