{
  "AcquisitionMatrixPE": 104,
  "AcquisitionNumber": 1,
  "AcquisitionTime": "15:39:29.690000",
  "BandwidthPerPixelPhaseEncode": 13.935,
  "BaseResolution": 104,
  "CoilString": "C:HEA;HEP",
  "ConversionSoftware": "dcm2niix",
  "ConversionSoftwareVersion": "v1.0.20210317",
  "DerivedVendorReportedEchoSpacing": 0.000690017,
  "DeviceSerialNumber": "35450",
  "DwellTime": 2.5e-06,
  "EchoTime": 0.0348,
  "EffectiveEchoSpacing": 0.000690017,
  "FlipAngle": 55,
  "ImageComments": "Unaliased MB8/PE3 (remote)",
  "ImageOrientationPatientDICOM": [0.999926, 0.0016085, 0.0120556, 4.42166e-08, 0.991216, -0.132256],
  "ImageType": [
    "ORIGINAL",
    "PRIMARY",
    "M",
    "MB",
    "ND",
    "MOSAIC"
],
  "ImagingFrequency": 123.234,
  "InPlanePhaseEncodingDirectionDICOM": "COL",
  "InstitutionAddress": "Univeristy Ave. 197,Newark,North East,US,07102-1814",
  "InstitutionName": "RUBIC",
  "InstitutionalDepartmentName": "Department",
  "MRAcquisitionType": "2D",
  "MagneticFieldStrength": 3,
  "Manufacturer": "Siemens",
  "ManufacturersModelName": "TrioTim",
  "Modality": "MR",
  "MultibandAccelerationFactor": 8,
  "PartialFourier": 0.875,
  "PatientPosition": "HFS",
  "PercentPhaseFOV": 100,
  "PercentSampling": 100,
  "PhaseEncodingDirection": "j-",
  "PhaseEncodingSteps": 91,
  "PhaseResolution": 1,
  "PixelBandwidth": 1923,
  "ProcedureStepDescription": "Cole^Michael",
  "ProtocolName": "cmrr_mbep2d_bold_2mm_MB8_Task_8x",
  "PulseSequenceDetails": "%CustomerSeq%\\cmrr_mbep2d_bold",
  "ReceiveCoilName": "32Ch_Head",
  "ReconMatrixPE": 104,
  "RepetitionTime": 0.785,
  "SAR": 0.131693,
  "ScanOptions": "PFP\\FS",
  "ScanningSequence": "EP",
  "SequenceName": "epfid2d1_104",
  "SequenceVariant": "SK\\SS",
  "SeriesDescription": "cmrr_mbep2d_bold_2mm_MB8_Task_8x",
  "SeriesNumber": 27,
  "ShimSetting": [2126, -415, -7290, 571, -7, -105, 104, 75],
  "SliceThickness": 2,
  "SliceTiming": [0, 0.4375, 0.0875, 0.525, 0.175, 0.6125, 0.2625, 0.7, 0.35, 0, 0.4375, 0.0875, 0.525, 0.175, 0.6125, 0.2625, 0.7, 0.35, 0, 0.4375, 0.0875, 0.525, 0.175, 0.6125, 0.2625, 0.7, 0.35, 0, 0.4375, 0.0875, 0.525, 0.175, 0.6125, 0.2625, 0.7, 0.35, 0, 0.4375, 0.0875, 0.525, 0.175, 0.6125, 0.2625, 0.7, 0.35, 0, 0.4375, 0.0875, 0.525, 0.175, 0.6125, 0.2625, 0.7, 0.35, 0, 0.4375, 0.0875, 0.525, 0.175, 0.6125, 0.2625, 0.7, 0.35, 0, 0.4375, 0.0875, 0.525, 0.175, 0.6125, 0.2625, 0.7, 0.35],
  "SoftwareVersions": "syngo MR B19",
  "SpacingBetweenSlices": 2,
  "StationName": "MRC35450",
  "TaskName": "cpro",
  "TotalReadoutTime": 0.0710717,
  "TxRefAmp": 321.497,
  "dcmmeta_affine": [
    [-1.9998520612716675, 8.843328203056444e-08, 0.024324825033545494, 103.97781372070312],
    [-0.003217006102204323, 1.9824312925338745, -0.26449158787727356, -80.29901123046875],
    [0.024111157283186913, 0.2645111680030823, 1.982284665107727, -111.53255462646484],
    [0.0, 0.0, 0.0, 1.0]
],
  "dcmmeta_reorient_transform": [
    [0.0, -1.0, 0.0, 103.0],
    [1.0, 0.0, 0.0, 0.0],
    [0.0, 0.0, 1.0, 0.0],
    [0.0, 0.0, 0.0, 1.0]
],
  "dcmmeta_shape": [104, 104, 72, 581],
  "dcmmeta_slice_dim": 2,
  "dcmmeta_version": 0.6,
  "global": {
    "const": {
      "AcquisitionMatrix": [104, 0, 0, 104],
      "AngioFlag": "N",
      "BitsAllocated": 16,
      "BitsStored": 12,
      "Columns": 936,
      "EchoNumbers": 1,
      "EchoTime": 34.8,
      "EchoTrainLength": 1,
      "FlipAngle": 55.0,
      "HighBit": 11,
      "ImageOrientationPatient": [0.99992603512999, 0.0016085030514, 0.01205557908826, 4.4216641e-08, 0.99121564832126, -0.1322555803098],
      "ImagePositionPatient": [-935.91632411949, -949.9211086267, 15.718497224878],
      "ImageType": [
        "ORIGINAL",
        "PRIMARY",
        "M",
        "MB",
        "ND",
        "MOSAIC"
],
      "ImagedNucleus": "1H",
      "ImagingFrequency": 123.234441,
      "InPlanePhaseEncodingDirection": "COL",
      "MRAcquisitionType": "2D",
      "MagneticFieldStrength": 3.0,
      "Manufacturer": "SIEMENS",
      "ManufacturerModelName": "TrioTim",
      "Modality": "MR",
      "NumberOfAverages": 1.0,
      "NumberOfPhaseEncodingSteps": 91,
      "PercentPhaseFieldOfView": 100.0,
      "PercentSampling": 100.0,
      "PerformedProcedureStepStartTime": "134016.312000",
      "PhotometricInterpretation": "MONOCHROME2",
      "PixelBandwidth": 1923.0,
      "PixelRepresentation": 0,
      "PixelSpacing": [2.0, 2.0],
      "ProtocolName": "cmrr_mbep2d_bold_2mm_MB8_Task_8x",
      "RepetitionTime": 785.0,
      "Rows": 936,
      "SAR": 0.13169320744857,
      "SamplesPerPixel": 1,
      "ScanOptions": [
        "PFP",
        "FS"
],
      "ScanningSequence": "EP",
      "SequenceName": "epfid2d1_104",
      "SequenceVariant": [
        "SK",
        "SS"
],
      "SeriesDescription": "cmrr_mbep2d_bold_2mm_MB8_Task_8x",
      "SeriesNumber": 27,
      "SeriesTime": "153953.937000",
      "SliceLocation": -98.660807513616,
      "SliceThickness": 2.0,
      "SmallestImagePixelValue": 0,
      "SoftwareVersions": "syngo MR B19",
      "SpacingBetweenSlices": 1.9999999865782,
      "SpecificCharacterSet": "ISO_IR 100",
      "StudyID": "1",
      "StudyTime": "134016.250000",
      "TransmitCoilName": "Body",
      "VariableFlipAngleFlag": "N",
      "WindowCenterWidthExplanation": "Algo1",
      "dBdt": 0.0},
    "slices": {}
  },
  "time": {
    "samples": {
      "AcquisitionNumber": [1, 2, 3, 4, 5, 6, 7, 8, 9, 10, 11, 12, 13, 14, 15, 16, 17, 18, 19, 20, 21, 22, 23, 24, 25, 26, 27, 28, 29, 30, 31, 32, 33, 34, 35, 36, 37, 38, 39, 40, 41, 42, 43, 44, 45, 46, 47, 48, 49, 50, 51, 52, 53, 54, 55, 56, 57, 58, 59, 60, 61, 62, 63, 64, 65, 66, 67, 68, 69, 70, 71, 72, 73, 74, 75, 76, 77, 78, 79, 80, 81, 82, 83, 84, 85, 86, 87, 88, 89, 90, 91, 92, 93, 94, 95, 96, 97, 98, 99, 100, 101, 102, 103, 104, 105, 106, 107, 108, 109, 110, 111, 112, 113, 114, 115, 116, 117, 118, 119, 120, 121, 122, 123, 124, 125, 126, 127, 128, 129, 130, 131, 132, 133, 134, 135, 136, 137, 138, 139, 140, 141, 142, 143, 144, 145, 146, 147, 148, 149, 150, 151, 152, 153, 154, 155, 156, 157, 158, 159, 160, 161, 162, 163, 164, 165, 166, 167, 168, 169, 170, 171, 172, 173, 174, 175, 176, 177, 178, 179, 180, 181, 182, 183, 184, 185, 186, 187, 188, 189, 190, 191, 192, 193, 194, 195, 196, 197, 198, 199, 200, 201, 202, 203, 204, 205, 206, 207, 208, 209, 210, 211, 212, 213, 214, 215, 216, 217, 218, 219, 220, 221, 222, 223, 224, 225, 226, 227, 228, 229, 230, 231, 232, 233, 234, 235, 236, 237, 238, 239, 240, 241, 242, 243, 244, 245, 246, 247, 248, 249, 250, 251, 252, 253, 254, 255, 256, 257, 258, 259, 260, 261, 262, 263, 264, 265, 266, 267, 268, 269, 270, 271, 272, 273, 274, 275, 276, 277, 278, 279, 280, 281, 282, 283, 284, 285, 286, 287, 288, 289, 290, 291, 292, 293, 294, 295, 296, 297, 298, 299, 300, 301, 302, 303, 304, 305, 306, 307, 308, 309, 310, 311, 312, 313, 314, 315, 316, 317, 318, 319, 320, 321, 322, 323, 324, 325, 326, 327, 328, 329, 330, 331, 332, 333, 334, 335, 336, 337, 338, 339, 340, 341, 342, 343, 344, 345, 346, 347, 348, 349, 350, 351, 352, 353, 354, 355, 356, 357, 358, 359, 360, 361, 362, 363, 364, 365, 366, 367, 368, 369, 370, 371, 372, 373, 374, 375, 376, 377, 378, 379, 380, 381, 382, 383, 384, 385, 386, 387, 388, 389, 390, 391, 392, 393, 394, 395, 396, 397, 398, 399, 400, 401, 402, 403, 404, 405, 406, 407, 408, 409, 410, 411, 412, 413, 414, 415, 416, 417, 418, 419, 420, 421, 422, 423, 424, 425, 426, 427, 428, 429, 430, 431, 432, 433, 434, 435, 436, 437, 438, 439, 440, 441, 442, 443, 444, 445, 446, 447, 448, 449, 450, 451, 452, 453, 454, 455, 456, 457, 458, 459, 460, 461, 462, 463, 464, 465, 466, 467, 468, 469, 470, 471, 472, 473, 474, 475, 476, 477, 478, 479, 480, 481, 482, 483, 484, 485, 486, 487, 488, 489, 490, 491, 492, 493, 494, 495, 496, 497, 498, 499, 500, 501, 502, 503, 504, 505, 506, 507, 508, 509, 510, 511, 512, 513, 514, 515, 516, 517, 518, 519, 520, 521, 522, 523, 524, 525, 526, 527, 528, 529, 530, 531, 532, 533, 534, 535, 536, 537, 538, 539, 540, 541, 542, 543, 544, 545, 546, 547, 548, 549, 550, 551, 552, 553, 554, 555, 556, 557, 558, 559, 560, 561, 562, 563, 564, 565, 566, 567, 568, 569, 570, 571, 572, 573, 574, 575, 576, 577, 578, 579, 580, 581],
      "AcquisitionTime": ["153929.690000", "153930.477500", "153931.265000", "153932.055000", "153932.842500", "153933.630000", "153934.417500", "153935.207500", "153935.995000", "153936.782500", "153937.572500", "153938.360000", "153939.147500", "153939.935000", "153940.725000", "153941.512500", "153942.300000", "153943.087500", "153943.877500", "153944.665000", "153945.452500", "153946.240000", "153947.030000", "153947.817500", "153948.605000", "153949.392500", "153950.182500", "153950.970000", "153951.757500", "153952.545000", "153953.335000", "153954.122500", "153954.910000", "153955.700000", "153956.487500", "153957.275000", "153958.062500", "153958.852500", "153959.640000", "154000.427500", "154001.215000", "154002.005000", "154002.792500", "154003.580000", "154004.367500", "154005.157500", "154005.945000", "154006.732500", "154007.520000", "154008.310000", "154009.097500", "154009.885000", "154010.672500", "154011.462500", "154012.250000", "154013.037500", "154013.827500", "154014.615000", "154015.402500", "154016.190000", "154016.980000", "154017.767500", "154018.555000", "154019.342500", "154020.132500", "154020.920000", "154021.707500", "154022.495000", "154023.285000", "154024.072500", "154024.860000", "154025.647500", "154026.437500", "154027.225000", "154028.012500", "154028.800000", "154029.590000", "154030.377500", "154031.165000", "154031.955000", "154032.742500", "154033.530000", "154034.317500", "154035.107500", "154035.895000", "154036.682500", "154037.470000", "154038.260000", "154039.047500", "154039.835000", "154040.622500", "154041.412500", "154042.200000", "154042.987500", "154043.775000", "154044.565000", "154045.352500", "154046.140000", "154046.927500", "154047.717500", "154048.505000", "154049.292500", "154050.082500", "154050.870000", "154051.657500", "154052.445000", "154053.235000", "154054.022500", "154054.810000", "154055.597500", "154056.387500", "154057.175000", "154057.962500", "154058.750000", "154059.540000", "154100.327500", "154101.115000", "154101.902500", "154102.692500", "154103.480000", "154104.267500", "154105.055000", "154105.845000", "154106.632500", "154107.420000", "154108.210000", "154108.997500", "154109.785000", "154110.572500", "154111.362500", "154112.150000", "154112.937500", "154113.725000", "154114.515000", "154115.302500", "154116.090000", "154116.877500", "154117.667500", "154118.455000", "154119.242500", "154120.030000", "154120.820000", "154121.607500", "154122.395000", "154123.185000", "154123.972500", "154124.760000", "154125.547500", "154126.337500", "154127.125000", "154127.912500", "154128.700000", "154129.490000", "154130.277500", "154131.065000", "154131.852500", "154132.642500", "154133.430000", "154134.217500", "154135.005000", "154135.795000", "154136.582500", "154137.370000", "154138.157500", "154138.947500", "154139.735000", "154140.522500", "154141.312500", "154142.100000", "154142.887500", "154143.675000", "154144.465000", "154145.252500", "154146.040000", "154146.827500", "154147.617500", "154148.405000", "154149.192500", "154149.980000", "154150.770000", "154151.557500", "154152.345000", "154153.132500", "154153.922500", "154154.710000", "154155.497500", "154156.285000", "154157.075000", "154157.862500", "154158.650000", "154159.440000", "154200.227500", "154201.015000", "154201.802500", "154202.592500", "154203.380000", "154204.167500", "154204.955000", "154205.745000", "154206.532500", "154207.320000", "154208.107500", "154208.897500", "154209.685000", "154210.472500", "154211.260000", "154212.050000", "154212.837500", "154213.625000", "154214.412500", "154215.202500", "154215.990000", "154216.777500", "154217.567500", "154218.355000", "154219.142500", "154219.930000", "154220.720000", "154221.507500", "154222.295000", "154223.082500", "154223.872500", "154224.660000", "154225.447500", "154226.235000", "154227.025000", "154227.812500", "154228.600000", "154229.387500", "154230.177500", "154230.965000", "154231.752500", "154232.540000", "154233.330000", "154234.117500", "154234.905000", "154235.695000", "154236.482500", "154237.270000", "154238.057500", "154238.847500", "154239.635000", "154240.422500", "154241.210000", "154242.000000", "154242.787500", "154243.575000", "154244.362500", "154245.152500", "154245.940000", "154246.727500", "154247.515000", "154248.305000", "154249.092500", "154249.880000", "154250.667500", "154251.457500", "154252.245000", "154253.032500", "154253.822500", "154254.610000", "154255.397500", "154256.185000", "154256.975000", "154257.762500", "154258.550000", "154259.337500", "154300.127500", "154300.915000", "154301.702500", "154302.490000", "154303.280000", "154304.067500", "154304.855000", "154305.642500", "154306.432500", "154307.220000", "154308.007500", "154308.795000", "154309.585000", "154310.372500", "154311.160000", "154311.950000", "154312.737500", "154313.525000", "154314.312500", "154315.102500", "154315.890000", "154316.677500", "154317.465000", "154318.255000", "154319.042500", "154319.830000", "154320.617500", "154321.407500", "154322.195000", "154322.982500", "154323.770000", "154324.560000", "154325.347500", "154326.135000", "154326.922500", "154327.712500", "154328.500000", "154329.287500", "154330.077500", "154330.865000", "154331.652500", "154332.440000", "154333.230000", "154334.017500", "154334.805000", "154335.592500", "154336.382500", "154337.170000", "154337.957500", "154338.745000", "154339.535000", "154340.322500", "154341.110000", "154341.897500", "154342.687500", "154343.475000", "154344.262500", "154345.050000", "154345.840000", "154346.627500", "154347.415000", "154348.205000", "154348.992500", "154349.780000", "154350.567500", "154351.357500", "154352.145000", "154352.932500", "154353.720000", "154354.510000", "154355.297500", "154356.085000", "154356.872500", "154357.662500", "154358.450000", "154359.237500", "154400.025000", "154400.815000", "154401.602500", "154402.390000", "154403.177500", "154403.967500", "154404.755000", "154405.542500", "154406.332500", "154407.120000", "154407.907500", "154408.695000", "154409.485000", "154410.272500", "154411.060000", "154411.847500", "154412.637500", "154413.425000", "154414.212500", "154415.000000", "154415.790000", "154416.577500", "154417.365000", "154418.152500", "154418.942500", "154419.730000", "154420.517500", "154421.305000", "154422.095000", "154422.882500", "154423.670000", "154424.460000", "154425.247500", "154426.035000", "154426.822500", "154427.612500", "154428.400000", "154429.187500", "154429.975000", "154430.765000", "154431.552500", "154432.340000", "154433.127500", "154433.917500", "154434.705000", "154435.492500", "154436.280000", "154437.070000", "154437.857500", "154438.645000", "154439.435000", "154440.222500", "154441.010000", "154441.797500", "154442.587500", "154443.375000", "154444.162500", "154444.950000", "154445.740000", "154446.527500", "154447.315000", "154448.102500", "154448.892500", "154449.680000", "154450.467500", "154451.255000", "154452.045000", "154452.832500", "154453.620000", "154454.407500", "154455.197500", "154455.985000", "154456.772500", "154457.562500", "154458.350000", "154459.137500", "154459.925000", "154500.715000", "154501.502500", "154502.290000", "154503.077500", "154503.867500", "154504.655000", "154505.442500", "154506.230000", "154507.020000", "154507.807500", "154508.595000", "154509.382500", "154510.172500", "154510.960000", "154511.747500", "154512.535000", "154513.325000", "154514.112500", "154514.900000", "154515.690000", "154516.477500", "154517.265000", "154518.052500", "154518.842500", "154519.630000", "154520.417500", "154521.205000", "154521.995000", "154522.782500", "154523.570000", "154524.357500", "154525.147500", "154525.935000", "154526.722500", "154527.510000", "154528.300000", "154529.087500", "154529.875000", "154530.662500", "154531.452500", "154532.240000", "154533.027500", "154533.817500", "154534.605000", "154535.392500", "154536.180000", "154536.970000", "154537.757500", "154538.545000", "154539.332500", "154540.122500", "154540.910000", "154541.697500", "154542.485000", "154543.275000", "154544.062500", "154544.850000", "154545.637500", "154546.427500", "154547.215000", "154548.002500", "154548.790000", "154549.580000", "154550.367500", "154551.155000", "154551.945000", "154552.732500", "154553.520000", "154554.307500", "154555.097500", "154555.885000", "154556.672500", "154557.460000", "154558.250000", "154559.037500", "154559.825000", "154600.612500", "154601.402500", "154602.190000", "154602.977500", "154603.765000", "154604.555000", "154605.342500", "154606.130000", "154606.917500", "154607.707500", "154608.495000", "154609.282500", "154610.072500", "154610.860000", "154611.647500", "154612.435000", "154613.225000", "154614.012500", "154614.800000", "154615.587500", "154616.377500", "154617.165000", "154617.952500", "154618.740000", "154619.530000", "154620.317500", "154621.105000", "154621.892500", "154622.682500", "154623.470000", "154624.257500", "154625.045000", "154625.835000", "154626.622500", "154627.410000", "154628.200000", "154628.987500", "154629.775000", "154630.562500", "154631.352500", "154632.140000", "154632.927500", "154633.715000", "154634.505000", "154635.292500", "154636.080000", "154636.867500", "154637.657500", "154638.445000", "154639.232500", "154640.020000", "154640.810000", "154641.597500", "154642.385000", "154643.172500", "154643.962500", "154644.750000", "154645.537500", "154646.327500", "154647.115000", "154647.902500", "154648.690000", "154649.480000", "154650.267500", "154651.055000", "154651.842500", "154652.632500", "154653.420000", "154654.207500", "154654.995000", "154655.785000", "154656.572500", "154657.360000", "154658.147500", "154658.937500", "154659.725000", "154700.512500", "154701.300000", "154702.090000", "154702.877500", "154703.665000", "154704.455000", "154705.242500", "154706.030000", "154706.817500"],
      "ContentTime": ["153953.937000", "153953.937000", "153953.937000", "153953.937000", "153953.937000", "153953.937000", "153953.953000", "153953.953000", "153953.953000", "153953.953000", "153953.953000", "153953.953000", "153953.953000", "153953.953000", "153953.968000", "153953.968000", "153953.968000", "153953.968000", "153953.968000", "153953.968000", "153953.968000", "153953.968000", "153953.984000", "153953.984000", "153953.984000", "153953.984000", "153953.984000", "153953.984000", "154013.906000", "154013.906000", "154013.906000", "154013.921000", "154013.921000", "154013.921000", "154013.921000", "154013.921000", "154013.921000", "154013.921000", "154013.921000", "154013.937000", "154013.937000", "154013.937000", "154013.937000", "154013.937000", "154013.937000", "154013.937000", "154013.953000", "154013.953000", "154013.953000", "154013.953000", "154013.953000", "154013.953000", "154013.953000", "154033.906000", "154033.906000", "154033.906000", "154033.921000", "154033.921000", "154033.921000", "154033.921000", "154033.921000", "154033.921000", "154033.921000", "154033.921000", "154033.937000", "154033.937000", "154033.937000", "154033.937000", "154033.937000", "154033.937000", "154033.937000", "154033.937000", "154033.953000", "154033.953000", "154033.953000", "154033.953000", "154033.953000", "154033.953000", "154033.953000", "154053.906000", "154053.906000", "154053.906000", "154053.921000", "154053.921000", "154053.921000", "154053.921000", "154053.921000", "154053.921000", "154053.921000", "154053.921000", "154053.937000", "154053.937000", "154053.937000", "154053.937000", "154053.937000", "154053.937000", "154053.937000", "154053.937000", "154053.953000", "154053.953000", "154053.953000", "154053.953000", "154053.953000", "154053.953000", "154113.906000", "154113.906000", "154113.906000", "154113.921000", "154113.921000", "154113.921000", "154113.921000", "154113.921000", "154113.921000", "154113.921000", "154113.921000", "154113.937000", "154113.937000", "154113.937000", "154113.937000", "154113.937000", "154113.937000", "154113.937000", "154113.953000", "154113.953000", "154113.953000", "154113.953000", "154113.953000", "154113.953000", "154113.953000", "154113.953000", "154133.906000", "154133.906000", "154133.906000", "154133.921000", "154133.921000", "154133.921000", "154133.921000", "154133.921000", "154133.921000", "154133.921000", "154133.921000", "154133.937000", "154133.937000", "154133.937000", "154133.937000", "154133.937000", "154133.937000", "154133.937000", "154133.937000", "154133.953000", "154133.953000", "154133.953000", "154133.953000", "154133.953000", "154133.953000", "154153.906000", "154153.906000", "154153.906000", "154153.921000", "154153.921000", "154153.921000", "154153.921000", "154153.921000", "154153.921000", "154153.921000", "154153.937000", "154153.937000", "154153.937000", "154153.937000", "154153.937000", "154153.937000", "154153.937000", "154153.953000", "154153.953000", "154153.953000", "154153.953000", "154153.953000", "154153.953000", "154153.953000", "154153.953000", "154153.968000", "154213.906000", "154213.906000", "154213.906000", "154213.921000", "154213.921000", "154213.921000", "154213.921000", "154213.921000", "154213.921000", "154213.921000", "154213.921000", "154213.937000", "154213.937000", "154213.937000", "154213.937000", "154213.937000", "154213.937000", "154213.937000", "154213.953000", "154213.953000", "154213.953000", "154213.953000", "154213.953000", "154213.953000", "154213.953000", "154233.906000", "154233.906000", "154233.906000", "154233.921000", "154233.921000", "154233.921000", "154233.921000", "154233.921000", "154233.921000", "154233.921000", "154233.921000", "154233.937000", "154233.937000", "154233.937000", "154233.937000", "154233.937000", "154233.937000", "154233.937000", "154233.953000", "154233.953000", "154233.953000", "154233.953000", "154233.953000", "154233.953000", "154233.953000", "154233.953000", "154253.906000", "154253.906000", "154253.906000", "154253.921000", "154253.921000", "154253.921000", "154253.921000", "154253.921000", "154253.921000", "154253.921000", "154253.921000", "154253.937000", "154253.937000", "154253.937000", "154253.937000", "154253.937000", "154253.937000", "154253.937000", "154253.953000", "154253.953000", "154253.953000", "154253.953000", "154253.953000", "154253.953000", "154253.953000", "154313.906000", "154313.906000", "154313.906000", "154313.921000", "154313.921000", "154313.921000", "154313.921000", "154313.921000", "154313.921000", "154313.921000", "154313.921000", "154313.937000", "154313.937000", "154313.937000", "154313.937000", "154313.937000", "154313.937000", "154313.937000", "154313.953000", "154313.953000", "154313.953000", "154313.953000", "154313.953000", "154313.953000", "154313.953000", "154313.953000", "154333.906000", "154333.906000", "154333.906000", "154333.921000", "154333.921000", "154333.921000", "154333.921000", "154333.921000", "154333.921000", "154333.921000", "154333.921000", "154333.937000", "154333.937000", "154333.937000", "154333.937000", "154333.937000", "154333.937000", "154333.937000", "154333.953000", "154333.953000", "154333.953000", "154333.953000", "154333.953000", "154333.953000", "154333.953000", "154353.906000", "154353.906000", "154353.906000", "154353.921000", "154353.921000", "154353.921000", "154353.921000", "154353.921000", "154353.921000", "154353.921000", "154353.921000", "154353.937000", "154353.937000", "154353.937000", "154353.937000", "154353.953000", "154353.953000", "154353.953000", "154353.953000", "154353.953000", "154353.953000", "154353.953000", "154353.968000", "154353.968000", "154353.968000", "154413.906000", "154413.906000", "154413.906000", "154413.921000", "154413.921000", "154413.921000", "154413.921000", "154413.921000", "154413.921000", "154413.921000", "154413.921000", "154413.937000", "154413.937000", "154413.937000", "154413.937000", "154413.937000", "154413.937000", "154413.937000", "154413.953000", "154413.953000", "154413.953000", "154413.953000", "154413.953000", "154413.953000", "154413.953000", "154413.953000", "154433.906000", "154433.906000", "154433.906000", "154433.921000", "154433.921000", "154433.921000", "154433.921000", "154433.921000", "154433.921000", "154433.921000", "154433.921000", "154433.937000", "154433.937000", "154433.937000", "154433.937000", "154433.937000", "154433.937000", "154433.937000", "154433.953000", "154433.953000", "154433.953000", "154433.953000", "154433.953000", "154433.953000", "154433.953000", "154453.906000", "154453.906000", "154453.906000", "154453.921000", "154453.921000", "154453.921000", "154453.921000", "154453.921000", "154453.921000", "154453.921000", "154453.937000", "154453.937000", "154453.937000", "154453.937000", "154453.937000", "154453.937000", "154453.937000", "154453.937000", "154453.953000", "154453.953000", "154453.953000", "154453.953000", "154453.953000", "154453.953000", "154453.953000", "154453.968000", "154513.906000", "154513.906000", "154513.906000", "154513.921000", "154513.921000", "154513.921000", "154513.921000", "154513.921000", "154513.921000", "154513.921000", "154513.921000", "154513.937000", "154513.937000", "154513.937000", "154513.937000", "154513.937000", "154513.937000", "154513.937000", "154513.953000", "154513.953000", "154513.953000", "154513.953000", "154513.953000", "154513.953000", "154513.953000", "154533.906000", "154533.906000", "154533.906000", "154533.921000", "154533.921000", "154533.921000", "154533.921000", "154533.921000", "154533.921000", "154533.921000", "154533.921000", "154533.937000", "154533.937000", "154533.937000", "154533.937000", "154533.937000", "154533.937000", "154533.937000", "154533.953000", "154533.953000", "154533.953000", "154533.953000", "154533.953000", "154533.953000", "154533.953000", "154533.953000", "154553.906000", "154553.906000", "154553.906000", "154553.921000", "154553.921000", "154553.921000", "154553.921000", "154553.921000", "154553.921000", "154553.921000", "154553.921000", "154553.937000", "154553.937000", "154553.937000", "154553.937000", "154553.937000", "154553.937000", "154553.937000", "154553.953000", "154553.953000", "154553.953000", "154553.953000", "154553.953000", "154553.953000", "154553.953000", "154613.906000", "154613.906000", "154613.906000", "154613.921000", "154613.921000", "154613.921000", "154613.921000", "154613.921000", "154613.921000", "154613.921000", "154613.921000", "154613.937000", "154613.937000", "154613.937000", "154613.937000", "154613.937000", "154613.937000", "154613.937000", "154613.937000", "154613.953000", "154613.953000", "154613.953000", "154613.953000", "154613.953000", "154613.953000", "154613.953000", "154633.906000", "154633.906000", "154633.906000", "154633.921000", "154633.921000", "154633.921000", "154633.921000", "154633.921000", "154633.921000", "154633.921000", "154633.921000", "154633.937000", "154633.937000", "154633.937000", "154633.937000", "154633.937000", "154633.937000", "154633.937000", "154633.953000", "154633.953000", "154633.953000", "154633.953000", "154633.953000", "154633.953000", "154633.968000", "154653.906000", "154653.906000", "154653.906000", "154653.921000", "154653.921000", "154653.921000", "154653.921000", "154653.921000", "154653.921000", "154653.921000", "154653.921000", "154653.937000", "154653.937000", "154653.937000", "154653.937000", "154653.937000", "154653.937000", "154653.937000", "154653.937000", "154653.953000", "154653.953000", "154653.953000", "154653.953000", "154653.953000", "154653.953000", "154653.953000", "154707.843000", "154707.843000", "154707.843000", "154707.843000", "154707.843000", "154707.843000", "154707.843000", "154707.843000", "154707.859000", "154707.859000", "154707.859000", "154707.859000", "154707.859000", "154707.859000", "154707.859000", "154707.859000", "154707.875000", "154707.875000"],
