{
  "AcquisitionMatrixPE": 104,
  "AcquisitionNumber": 1,
  "AcquisitionTime": "15:07:35.725000",
  "BandwidthPerPixelPhaseEncode": 13.935,
  "BaseResolution": 104,
  "CoilString": "C:HEA;HEP",
  "ConversionSoftware": "dcm2niix",
  "ConversionSoftwareVersion": "v1.0.20210317",
  "DerivedVendorReportedEchoSpacing": 0.000690017,
  "DeviceSerialNumber": "35450",
  "DwellTime": 2.5e-06,
  "EchoTime": 0.0348,
  "EffectiveEchoSpacing": 0.000690017,
  "FlipAngle": 55,
  "ImageComments": "Unaliased MB8/PE3 (remote)",
  "ImageOrientationPatientDICOM": [0.999926, 0.0016085, 0.0120556, 4.42166e-08, 0.991216, -0.132256],
  "ImageType": [
    "ORIGINAL",
    "PRIMARY",
    "M",
    "MB",
    "ND",
    "MOSAIC"
],
  "ImagingFrequency": 123.234,
  "InPlanePhaseEncodingDirectionDICOM": "COL",
  "InstitutionAddress": "Univeristy Ave. 197,Newark,North East,US,07102-1814",
  "InstitutionName": "RUBIC",
  "InstitutionalDepartmentName": "Department",
  "MRAcquisitionType": "2D",
  "MagneticFieldStrength": 3,
  "Manufacturer": "Siemens",
  "ManufacturersModelName": "TrioTim",
  "Modality": "MR",
  "MultibandAccelerationFactor": 8,
  "PartialFourier": 0.875,
  "PatientPosition": "HFS",
  "PercentPhaseFOV": 100,
  "PercentSampling": 100,
  "PhaseEncodingDirection": "j-",
  "PhaseEncodingSteps": 91,
  "PhaseResolution": 1,
  "PixelBandwidth": 1923,
  "ProcedureStepDescription": "Cole^Michael",
  "ProtocolName": "cmrr_mbep2d_bold_2mm_MB8_Task_8x",
  "PulseSequenceDetails": "%CustomerSeq%\\cmrr_mbep2d_bold",
  "ReceiveCoilName": "32Ch_Head",
  "ReconMatrixPE": 104,
  "RepetitionTime": 0.785,
  "SAR": 0.131693,
  "ScanOptions": "PFP\\FS",
  "ScanningSequence": "EP",
  "SequenceName": "epfid2d1_104",
  "SequenceVariant": "SK\\SS",
  "SeriesDescription": "cmrr_mbep2d_bold_2mm_MB8_Task_8x",
  "SeriesNumber": 19,
  "ShimSetting": [2126, -415, -7290, 571, -7, -105, 104, 75],
  "SliceThickness": 2,
  "SliceTiming": [0, 0.4375, 0.0875, 0.525, 0.175, 0.6125, 0.2625, 0.7, 0.35, 0, 0.4375, 0.0875, 0.525, 0.175, 0.6125, 0.2625, 0.7, 0.35, 0, 0.4375, 0.0875, 0.525, 0.175, 0.6125, 0.2625, 0.7, 0.35, 0, 0.4375, 0.0875, 0.525, 0.175, 0.6125, 0.2625, 0.7, 0.35, 0, 0.4375, 0.0875, 0.525, 0.175, 0.6125, 0.2625, 0.7, 0.35, 0, 0.4375, 0.0875, 0.525, 0.175, 0.6125, 0.2625, 0.7, 0.35, 0, 0.4375, 0.0875, 0.525, 0.175, 0.6125, 0.2625, 0.7, 0.35, 0, 0.4375, 0.0875, 0.525, 0.175, 0.6125, 0.2625, 0.7, 0.35],
  "SoftwareVersions": "syngo MR B19",
  "SpacingBetweenSlices": 2,
  "StationName": "MRC35450",
  "TaskName": "cpro",
  "TotalReadoutTime": 0.0710717,
  "TxRefAmp": 321.497,
  "dcmmeta_affine": [
    [-1.9998520612716675, 8.843328203056444e-08, 0.024324825033545494, 103.97781372070312],
    [-0.003217006102204323, 1.9824312925338745, -0.26449158787727356, -80.29901123046875],
    [0.024111157283186913, 0.2645111680030823, 1.982284665107727, -111.53255462646484],
    [0.0, 0.0, 0.0, 1.0]
],
  "dcmmeta_reorient_transform": [
    [0.0, -1.0, 0.0, 103.0],
    [1.0, 0.0, 0.0, 0.0],
    [0.0, 0.0, 1.0, 0.0],
    [0.0, 0.0, 0.0, 1.0]
],
  "dcmmeta_shape": [104, 104, 72, 581],
  "dcmmeta_slice_dim": 2,
  "dcmmeta_version": 0.6,
  "global": {
    "const": {
      "AcquisitionMatrix": [104, 0, 0, 104],
      "AngioFlag": "N",
      "BitsAllocated": 16,
      "BitsStored": 12,
      "Columns": 936,
      "EchoNumbers": 1,
      "EchoTime": 34.8,
      "EchoTrainLength": 1,
      "FlipAngle": 55.0,
      "HighBit": 11,
      "ImageOrientationPatient": [0.99992603512999, 0.0016085030514, 0.01205557908826, 4.4216641e-08, 0.99121564832126, -0.1322555803098],
      "ImagePositionPatient": [-935.91632411949, -949.9211086267, 15.718497224878],
      "ImageType": [
        "ORIGINAL",
        "PRIMARY",
        "M",
        "MB",
        "ND",
        "MOSAIC"
],
      "ImagedNucleus": "1H",
      "ImagingFrequency": 123.234441,
      "InPlanePhaseEncodingDirection": "COL",
      "MRAcquisitionType": "2D",
      "MagneticFieldStrength": 3.0,
      "Manufacturer": "SIEMENS",
      "ManufacturerModelName": "TrioTim",
      "Modality": "MR",
      "NumberOfAverages": 1.0,
      "NumberOfPhaseEncodingSteps": 91,
      "PercentPhaseFieldOfView": 100.0,
      "PercentSampling": 100.0,
      "PerformedProcedureStepStartTime": "134016.312000",
      "PhotometricInterpretation": "MONOCHROME2",
      "PixelBandwidth": 1923.0,
      "PixelRepresentation": 0,
      "PixelSpacing": [2.0, 2.0],
      "ProtocolName": "cmrr_mbep2d_bold_2mm_MB8_Task_8x",
      "RepetitionTime": 785.0,
      "Rows": 936,
      "SAR": 0.13169320744857,
      "SamplesPerPixel": 1,
      "ScanOptions": [
        "PFP",
        "FS"
],
      "ScanningSequence": "EP",
      "SequenceName": "epfid2d1_104",
      "SequenceVariant": [
        "SK",
        "SS"
],
      "SeriesDescription": "cmrr_mbep2d_bold_2mm_MB8_Task_8x",
      "SeriesNumber": 19,
      "SeriesTime": "150806.609000",
      "SliceLocation": -98.660807513616,
      "SliceThickness": 2.0,
      "SmallestImagePixelValue": 0,
      "SoftwareVersions": "syngo MR B19",
      "SpacingBetweenSlices": 1.9999999865782,
      "SpecificCharacterSet": "ISO_IR 100",
      "StudyID": "1",
      "StudyTime": "134016.250000",
      "TransmitCoilName": "Body",
      "VariableFlipAngleFlag": "N",
      "WindowCenterWidthExplanation": "Algo1",
      "dBdt": 0.0},
    "slices": {}
  },
  "time": {
    "samples": {
      "AcquisitionNumber": [1, 2, 3, 4, 5, 6, 7, 8, 9, 10, 11, 12, 13, 14, 15, 16, 17, 18, 19, 20, 21, 22, 23, 24, 25, 26, 27, 28, 29, 30, 31, 32, 33, 34, 35, 36, 37, 38, 39, 40, 41, 42, 43, 44, 45, 46, 47, 48, 49, 50, 51, 52, 53, 54, 55, 56, 57, 58, 59, 60, 61, 62, 63, 64, 65, 66, 67, 68, 69, 70, 71, 72, 73, 74, 75, 76, 77, 78, 79, 80, 81, 82, 83, 84, 85, 86, 87, 88, 89, 90, 91, 92, 93, 94, 95, 96, 97, 98, 99, 100, 101, 102, 103, 104, 105, 106, 107, 108, 109, 110, 111, 112, 113, 114, 115, 116, 117, 118, 119, 120, 121, 122, 123, 124, 125, 126, 127, 128, 129, 130, 131, 132, 133, 134, 135, 136, 137, 138, 139, 140, 141, 142, 143, 144, 145, 146, 147, 148, 149, 150, 151, 152, 153, 154, 155, 156, 157, 158, 159, 160, 161, 162, 163, 164, 165, 166, 167, 168, 169, 170, 171, 172, 173, 174, 175, 176, 177, 178, 179, 180, 181, 182, 183, 184, 185, 186, 187, 188, 189, 190, 191, 192, 193, 194, 195, 196, 197, 198, 199, 200, 201, 202, 203, 204, 205, 206, 207, 208, 209, 210, 211, 212, 213, 214, 215, 216, 217, 218, 219, 220, 221, 222, 223, 224, 225, 226, 227, 228, 229, 230, 231, 232, 233, 234, 235, 236, 237, 238, 239, 240, 241, 242, 243, 244, 245, 246, 247, 248, 249, 250, 251, 252, 253, 254, 255, 256, 257, 258, 259, 260, 261, 262, 263, 264, 265, 266, 267, 268, 269, 270, 271, 272, 273, 274, 275, 276, 277, 278, 279, 280, 281, 282, 283, 284, 285, 286, 287, 288, 289, 290, 291, 292, 293, 294, 295, 296, 297, 298, 299, 300, 301, 302, 303, 304, 305, 306, 307, 308, 309, 310, 311, 312, 313, 314, 315, 316, 317, 318, 319, 320, 321, 322, 323, 324, 325, 326, 327, 328, 329, 330, 331, 332, 333, 334, 335, 336, 337, 338, 339, 340, 341, 342, 343, 344, 345, 346, 347, 348, 349, 350, 351, 352, 353, 354, 355, 356, 357, 358, 359, 360, 361, 362, 363, 364, 365, 366, 367, 368, 369, 370, 371, 372, 373, 374, 375, 376, 377, 378, 379, 380, 381, 382, 383, 384, 385, 386, 387, 388, 389, 390, 391, 392, 393, 394, 395, 396, 397, 398, 399, 400, 401, 402, 403, 404, 405, 406, 407, 408, 409, 410, 411, 412, 413, 414, 415, 416, 417, 418, 419, 420, 421, 422, 423, 424, 425, 426, 427, 428, 429, 430, 431, 432, 433, 434, 435, 436, 437, 438, 439, 440, 441, 442, 443, 444, 445, 446, 447, 448, 449, 450, 451, 452, 453, 454, 455, 456, 457, 458, 459, 460, 461, 462, 463, 464, 465, 466, 467, 468, 469, 470, 471, 472, 473, 474, 475, 476, 477, 478, 479, 480, 481, 482, 483, 484, 485, 486, 487, 488, 489, 490, 491, 492, 493, 494, 495, 496, 497, 498, 499, 500, 501, 502, 503, 504, 505, 506, 507, 508, 509, 510, 511, 512, 513, 514, 515, 516, 517, 518, 519, 520, 521, 522, 523, 524, 525, 526, 527, 528, 529, 530, 531, 532, 533, 534, 535, 536, 537, 538, 539, 540, 541, 542, 543, 544, 545, 546, 547, 548, 549, 550, 551, 552, 553, 554, 555, 556, 557, 558, 559, 560, 561, 562, 563, 564, 565, 566, 567, 568, 569, 570, 571, 572, 573, 574, 575, 576, 577, 578, 579, 580, 581],
      "AcquisitionTime": ["150735.725000", "150736.512500", "150737.300000", "150738.090000", "150738.877500", "150739.665000", "150740.452500", "150741.242500", "150742.030000", "150742.817500", "150743.605000", "150744.395000", "150745.182500", "150745.970000", "150746.757500", "150747.547500", "150748.335000", "150749.122500", "150749.910000", "150750.700000", "150751.487500", "150752.275000", "150753.065000", "150753.852500", "150754.640000", "150755.427500", "150756.217500", "150757.005000", "150757.792500", "150758.580000", "150759.370000", "150800.157500", "150800.945000", "150801.732500", "150802.522500", "150803.310000", "150804.097500", "150804.885000", "150805.675000", "150806.462500", "150807.250000", "150808.037500", "150808.827500", "150809.615000", "150810.402500", "150811.192500", "150811.980000", "150812.767500", "150813.555000", "150814.345000", "150815.132500", "150815.920000", "150816.707500", "150817.497500", "150818.285000", "150819.072500", "150819.860000", "150820.650000", "150821.437500", "150822.225000", "150823.012500", "150823.802500", "150824.590000", "150825.377500", "150826.165000", "150826.955000", "150827.742500", "150828.530000", "150829.320000", "150830.107500", "150830.895000", "150831.682500", "150832.472500", "150833.260000", "150834.047500", "150834.835000", "150835.625000", "150836.412500", "150837.200000", "150837.987500", "150838.777500", "150839.565000", "150840.352500", "150841.140000", "150841.930000", "150842.717500", "150843.505000", "150844.292500", "150845.082500", "150845.870000", "150846.657500", "150847.447500", "150848.235000", "150849.022500", "150849.810000", "150850.600000", "150851.387500", "150852.175000", "150852.962500", "150853.752500", "150854.540000", "150855.327500", "150856.115000", "150856.905000", "150857.692500", "150858.480000", "150859.267500", "150900.057500", "150900.845000", "150901.632500", "150902.420000", "150903.210000", "150903.997500", "150904.785000", "150905.575000", "150906.362500", "150907.150000", "150907.937500", "150908.727500", "150909.515000", "150910.302500", "150911.090000", "150911.880000", "150912.667500", "150913.455000", "150914.242500", "150915.032500", "150915.820000", "150916.607500", "150917.395000", "150918.185000", "150918.972500", "150919.760000", "150920.547500", "150921.337500", "150922.125000", "150922.912500", "150923.702500", "150924.490000", "150925.277500", "150926.065000", "150926.855000", "150927.642500", "150928.430000", "150929.217500", "150930.007500", "150930.795000", "150931.582500", "150932.370000", "150933.160000", "150933.947500", "150934.735000", "150935.522500", "150936.312500", "150937.100000", "150937.887500", "150938.675000", "150939.465000", "150940.252500", "150941.040000", "150941.830000", "150942.617500", "150943.405000", "150944.192500", "150944.982500", "150945.770000", "150946.557500", "150947.345000", "150948.135000", "150948.922500", "150949.710000", "150950.497500", "150951.287500", "150952.075000", "150952.862500", "150953.650000", "150954.440000", "150955.227500", "150956.015000", "150956.805000", "150957.592500", "150958.380000", "150959.167500", "150959.957500", "151000.745000", "151001.532500", "151002.320000", "151003.110000", "151003.897500", "151004.685000", "151005.472500", "151006.262500", "151007.050000", "151007.837500", "151008.625000", "151009.415000", "151010.202500", "151010.990000", "151011.777500", "151012.567500", "151013.355000", "151014.142500", "151014.932500", "151015.720000", "151016.507500", "151017.295000", "151018.085000", "151018.872500", "151019.660000", "151020.447500", "151021.237500", "151022.025000", "151022.812500", "151023.600000", "151024.390000", "151025.177500", "151025.965000", "151026.752500", "151027.542500", "151028.330000", "151029.117500", "151029.905000", "151030.695000", "151031.482500", "151032.270000", "151033.060000", "151033.847500", "151034.635000", "151035.422500", "151036.212500", "151037.000000", "151037.787500", "151038.575000", "151039.365000", "151040.152500", "151040.940000", "151041.727500", "151042.517500", "151043.305000", "151044.092500", "151044.880000", "151045.670000", "151046.457500", "151047.245000", "151048.032500", "151048.822500", "151049.610000", "151050.397500", "151051.187500", "151051.975000", "151052.762500", "151053.550000", "151054.340000", "151055.127500", "151055.915000", "151056.702500", "151057.492500", "151058.280000", "151059.067500", "151059.855000", "151100.645000", "151101.432500", "151102.220000", "151103.007500", "151103.797500", "151104.585000", "151105.372500", "151106.160000", "151106.950000", "151107.737500", "151108.525000", "151109.315000", "151110.102500", "151110.890000", "151111.677500", "151112.467500", "151113.255000", "151114.042500", "151114.830000", "151115.620000", "151116.407500", "151117.195000", "151117.982500", "151118.772500", "151119.560000", "151120.347500", "151121.135000", "151121.925000", "151122.712500", "151123.500000", "151124.287500", "151125.077500", "151125.865000", "151126.652500", "151127.442500", "151128.230000", "151129.017500", "151129.805000", "151130.595000", "151131.382500", "151132.170000", "151132.957500", "151133.747500", "151134.535000", "151135.322500", "151136.110000", "151136.900000", "151137.687500", "151138.475000", "151139.262500", "151140.052500", "151140.840000", "151141.627500", "151142.415000", "151143.205000", "151143.992500", "151144.780000", "151145.570000", "151146.357500", "151147.145000", "151147.932500", "151148.722500", "151149.510000", "151150.297500", "151151.085000", "151151.875000", "151152.662500", "151153.450000", "151154.237500", "151155.027500", "151155.815000", "151156.602500", "151157.390000", "151158.180000", "151158.967500", "151159.755000", "151200.542500", "151201.332500", "151202.120000", "151202.907500", "151203.697500", "151204.485000", "151205.272500", "151206.060000", "151206.850000", "151207.637500", "151208.425000", "151209.212500", "151210.002500", "151210.790000", "151211.577500", "151212.365000", "151213.155000", "151213.942500", "151214.730000", "151215.517500", "151216.307500", "151217.095000", "151217.882500", "151218.670000", "151219.460000", "151220.247500", "151221.035000", "151221.825000", "151222.612500", "151223.400000", "151224.187500", "151224.977500", "151225.765000", "151226.552500", "151227.340000", "151228.130000", "151228.917500", "151229.705000", "151230.492500", "151231.282500", "151232.070000", "151232.857500", "151233.645000", "151234.435000", "151235.222500", "151236.010000", "151236.797500", "151237.587500", "151238.375000", "151239.162500", "151239.952500", "151240.740000", "151241.527500", "151242.315000", "151243.105000", "151243.892500", "151244.680000", "151245.467500", "151246.257500", "151247.045000", "151247.832500", "151248.620000", "151249.410000", "151250.197500", "151250.985000", "151251.772500", "151252.562500", "151253.350000", "151254.137500", "151254.925000", "151255.715000", "151256.502500", "151257.290000", "151258.080000", "151258.867500", "151259.655000", "151300.442500", "151301.232500", "151302.020000", "151302.807500", "151303.595000", "151304.385000", "151305.172500", "151305.960000", "151306.747500", "151307.537500", "151308.325000", "151309.112500", "151309.900000", "151310.690000", "151311.477500", "151312.265000", "151313.055000", "151313.842500", "151314.630000", "151315.417500", "151316.207500", "151316.995000", "151317.782500", "151318.570000", "151319.360000", "151320.147500", "151320.935000", "151321.722500", "151322.512500", "151323.300000", "151324.087500", "151324.875000", "151325.665000", "151326.452500", "151327.240000", "151328.027500", "151328.817500", "151329.605000", "151330.392500", "151331.182500", "151331.970000", "151332.757500", "151333.545000", "151334.335000", "151335.122500", "151335.910000", "151336.697500", "151337.487500", "151338.275000", "151339.062500", "151339.850000", "151340.640000", "151341.427500", "151342.215000", "151343.002500", "151343.792500", "151344.580000", "151345.367500", "151346.155000", "151346.945000", "151347.732500", "151348.520000", "151349.310000", "151350.097500", "151350.885000", "151351.672500", "151352.462500", "151353.250000", "151354.037500", "151354.825000", "151355.615000", "151356.402500", "151357.190000", "151357.977500", "151358.767500", "151359.555000", "151400.342500", "151401.130000", "151401.920000", "151402.707500", "151403.495000", "151404.282500", "151405.072500", "151405.860000", "151406.647500", "151407.437500", "151408.225000", "151409.012500", "151409.800000", "151410.590000", "151411.377500", "151412.165000", "151412.952500", "151413.742500", "151414.530000", "151415.317500", "151416.105000", "151416.895000", "151417.682500", "151418.470000", "151419.257500", "151420.047500", "151420.835000", "151421.622500", "151422.410000", "151423.200000", "151423.987500", "151424.775000", "151425.565000", "151426.352500", "151427.140000", "151427.927500", "151428.717500", "151429.505000", "151430.292500", "151431.080000", "151431.870000", "151432.657500", "151433.445000", "151434.232500", "151435.022500", "151435.810000", "151436.597500", "151437.385000", "151438.175000", "151438.962500", "151439.750000", "151440.537500", "151441.327500", "151442.115000", "151442.902500", "151443.692500", "151444.480000", "151445.267500", "151446.055000", "151446.845000", "151447.632500", "151448.420000", "151449.207500", "151449.997500", "151450.785000", "151451.572500", "151452.360000", "151453.150000", "151453.937500", "151454.725000", "151455.512500", "151456.302500", "151457.090000", "151457.877500", "151458.665000", "151459.455000", "151500.242500", "151501.030000", "151501.820000", "151502.607500", "151503.395000", "151504.182500", "151504.972500", "151505.760000", "151506.547500", "151507.335000", "151508.125000", "151508.912500", "151509.700000", "151510.487500", "151511.277500", "151512.065000", "151512.852500"],
      "ContentTime": ["150806.609000", "150806.609000", "150806.609000", "150806.625000", "150806.625000", "150806.625000", "150806.625000", "150806.625000", "150806.625000", "150806.625000", "150806.625000", "150806.640000", "150806.640000", "150806.640000", "150806.640000", "150806.640000", "150806.640000", "150806.640000", "150806.656000", "150806.656000", "150806.656000", "150806.656000", "150806.656000", "150806.656000", "150806.656000", "150806.656000", "150806.671000", "150806.671000", "150806.671000", "150806.671000", "150806.671000", "150806.671000", "150806.671000", "150806.671000", "150806.687000", "150806.687000", "150826.031000", "150826.031000", "150826.031000", "150826.046000", "150826.046000", "150826.046000", "150826.046000", "150826.046000", "150826.046000", "150826.046000", "150826.046000", "150826.062000", "150826.062000", "150826.062000", "150826.062000", "150826.062000", "150826.062000", "150826.062000", "150826.078000", "150826.078000", "150826.078000", "150826.078000", "150826.078000", "150826.078000", "150826.078000", "150846.031000", "150846.031000", "150846.031000", "150846.046000", "150846.046000", "150846.046000", "150846.046000", "150846.046000", "150846.046000", "150846.046000", "150846.046000", "150846.062000", "150846.062000", "150846.062000", "150846.062000", "150846.062000", "150846.062000", "150846.062000", "150846.078000", "150846.078000", "150846.078000", "150846.078000", "150846.078000", "150846.078000", "150846.078000", "150846.078000", "150906.031000", "150906.031000", "150906.031000", "150906.046000", "150906.046000", "150906.046000", "150906.046000", "150906.046000", "150906.046000", "150906.046000", "150906.046000", "150906.062000", "150906.062000", "150906.062000", "150906.062000", "150906.062000", "150906.062000", "150906.062000", "150906.078000", "150906.078000", "150906.078000", "150906.078000", "150906.078000", "150906.078000", "150906.078000", "150926.031000", "150926.031000", "150926.031000", "150926.046000", "150926.046000", "150926.046000", "150926.046000", "150926.046000", "150926.046000", "150926.046000", "150926.046000", "150926.062000", "150926.062000", "150926.062000", "150926.062000", "150926.062000", "150926.062000", "150926.062000", "150926.062000", "150926.078000", "150926.078000", "150926.078000", "150926.078000", "150926.078000", "150926.078000", "150926.078000", "150946.031000", "150946.031000", "150946.031000", "150946.046000", "150946.046000", "150946.046000", "150946.046000", "150946.046000", "150946.046000", "150946.046000", "150946.046000", "150946.062000", "150946.062000", "150946.062000", "150946.062000", "150946.062000", "150946.062000", "150946.062000", "150946.078000", "150946.078000", "150946.078000", "150946.078000", "150946.078000", "150946.078000", "150946.078000", "151006.031000", "151006.031000", "151006.031000", "151006.046000", "151006.046000", "151006.046000", "151006.046000", "151006.046000", "151006.046000", "151006.046000", "151006.046000", "151006.062000", "151006.062000", "151006.062000", "151006.062000", "151006.062000", "151006.062000", "151006.062000", "151006.078000", "151006.078000", "151006.078000", "151006.078000", "151006.078000", "151006.078000", "151006.078000", "151006.078000", "151026.031000", "151026.031000", "151026.031000", "151026.046000", "151026.046000", "151026.046000", "151026.046000", "151026.046000", "151026.046000", "151026.046000", "151026.046000", "151026.062000", "151026.062000", "151026.062000", "151026.062000", "151026.062000", "151026.062000", "151026.062000", "151026.062000", "151026.078000", "151026.078000", "151026.078000", "151026.078000", "151026.078000", "151026.078000", "151046.031000", "151046.031000", "151046.031000", "151046.046000", "151046.046000", "151046.046000", "151046.046000", "151046.046000", "151046.046000", "151046.046000", "151046.062000", "151046.062000", "151046.062000", "151046.062000", "151046.062000", "151046.062000", "151046.062000", "151046.062000", "151046.078000", "151046.078000", "151046.078000", "151046.078000", "151046.078000", "151046.078000", "151046.078000", "151046.078000", "151106.031000", "151106.031000", "151106.031000", "151106.046000", "151106.046000", "151106.046000", "151106.046000", "151106.046000", "151106.046000", "151106.046000", "151106.062000", "151106.062000", "151106.062000", "151106.062000", "151106.062000", "151106.062000", "151106.062000", "151106.062000", "151106.078000", "151106.078000", "151106.078000", "151106.078000", "151106.078000", "151106.078000", "151106.078000", "151126.031000", "151126.031000", "151126.031000", "151126.046000", "151126.046000", "151126.046000", "151126.046000", "151126.046000", "151126.046000", "151126.046000", "151126.046000", "151126.062000", "151126.062000", "151126.062000", "151126.062000", "151126.062000", "151126.062000", "151126.062000", "151126.062000", "151126.078000", "151126.078000", "151126.078000", "151126.078000", "151126.078000", "151126.078000", "151126.078000", "151146.031000", "151146.031000", "151146.031000", "151146.046000", "151146.046000", "151146.046000", "151146.046000", "151146.046000", "151146.046000", "151146.046000", "151146.046000", "151146.062000", "151146.062000", "151146.062000", "151146.062000", "151146.062000", "151146.062000", "151146.062000", "151146.078000", "151146.078000", "151146.078000", "151146.078000", "151146.078000", "151146.078000", "151146.078000", "151206.031000", "151206.031000", "151206.031000", "151206.046000", "151206.046000", "151206.046000", "151206.046000", "151206.046000", "151206.046000", "151206.046000", "151206.046000", "151206.062000", "151206.062000", "151206.062000", "151206.062000", "151206.062000", "151206.062000", "151206.062000", "151206.062000", "151206.078000", "151206.078000", "151206.078000", "151206.078000", "151206.078000", "151206.078000", "151206.093000", "151226.031000", "151226.031000", "151226.031000", "151226.046000", "151226.046000", "151226.046000", "151226.046000", "151226.046000", "151226.046000", "151226.046000", "151226.046000", "151226.062000", "151226.062000", "151226.062000", "151226.062000", "151226.062000", "151226.062000", "151226.062000", "151226.062000", "151226.078000", "151226.078000", "151226.078000", "151226.078000", "151226.078000", "151226.078000", "151246.031000", "151246.062000", "151246.062000", "151246.062000", "151246.062000", "151246.062000", "151246.062000", "151246.078000", "151246.078000", "151246.078000", "151246.078000", "151246.078000", "151246.078000", "151246.078000", "151246.078000", "151246.093000", "151246.093000", "151246.093000", "151246.093000", "151246.093000", "151246.093000", "151246.093000", "151246.109000", "151246.109000", "151246.109000", "151246.109000", "151306.031000", "151306.031000", "151306.031000", "151306.046000", "151306.046000", "151306.046000", "151306.046000", "151306.046000", "151306.046000", "151306.046000", "151306.046000", "151306.062000", "151306.062000", "151306.062000", "151306.062000", "151306.062000", "151306.062000", "151306.062000", "151306.062000", "151306.078000", "151306.078000", "151306.078000", "151306.078000", "151306.078000", "151306.078000", "151326.031000", "151326.031000", "151326.031000", "151326.046000", "151326.046000", "151326.046000", "151326.046000", "151326.046000", "151326.046000", "151326.046000", "151326.046000", "151326.062000", "151326.062000", "151326.062000", "151326.062000", "151326.062000", "151326.062000", "151326.062000", "151326.062000", "151326.078000", "151326.078000", "151326.078000", "151326.078000", "151326.078000", "151326.078000", "151326.078000", "151346.031000", "151346.031000", "151346.031000", "151346.046000", "151346.046000", "151346.046000", "151346.046000", "151346.046000", "151346.046000", "151346.046000", "151346.046000", "151346.062000", "151346.062000", "151346.062000", "151346.062000", "151346.062000", "151346.062000", "151346.062000", "151346.078000", "151346.078000", "151346.078000", "151346.078000", "151346.078000", "151346.078000", "151346.078000", "151406.031000", "151406.031000", "151406.031000", "151406.046000", "151406.046000", "151406.046000", "151406.046000", "151406.046000", "151406.046000", "151406.046000", "151406.046000", "151406.062000", "151406.062000", "151406.062000", "151406.062000", "151406.062000", "151406.062000", "151406.062000", "151406.062000", "151406.078000", "151406.078000", "151406.078000", "151406.078000", "151406.078000", "151406.078000", "151406.078000", "151426.031000", "151426.031000", "151426.031000", "151426.046000", "151426.046000", "151426.046000", "151426.046000", "151426.046000", "151426.046000", "151426.046000", "151426.046000", "151426.062000", "151426.062000", "151426.062000", "151426.062000", "151426.062000", "151426.062000", "151426.062000", "151426.078000", "151426.078000", "151426.078000", "151426.078000", "151426.078000", "151426.078000", "151426.078000", "151446.031000", "151446.031000", "151446.031000", "151446.046000", "151446.046000", "151446.046000", "151446.046000", "151446.046000", "151446.046000", "151446.046000", "151446.046000", "151446.062000", "151446.062000", "151446.062000", "151446.062000", "151446.062000", "151446.062000", "151446.062000", "151446.062000", "151446.078000", "151446.078000", "151446.078000", "151446.078000", "151446.078000", "151446.078000", "151446.078000", "151506.031000", "151506.031000", "151506.031000", "151506.046000", "151506.046000", "151506.046000", "151506.046000", "151506.046000", "151506.046000", "151506.046000", "151506.046000", "151506.062000", "151506.062000", "151506.062000", "151506.062000", "151506.062000", "151506.062000", "151506.078000", "151506.078000", "151506.078000", "151506.078000", "151506.078000", "151506.078000", "151506.078000", "151506.093000", "151513.578000", "151513.578000", "151513.578000", "151513.578000", "151513.578000", "151513.578000", "151513.578000", "151513.593000", "151513.593000", "151513.593000"],
