{
  "AcquisitionMatrixPE": 104,
  "AcquisitionNumber": 1,
  "AcquisitionTime": "14:27:38.472500",
  "BandwidthPerPixelPhaseEncode": 13.935,
  "BaseResolution": 104,
  "CoilString": "C:HEA;HEP",
  "ConversionSoftware": "dcm2niix",
  "ConversionSoftwareVersion": "v1.0.20210317",
  "DerivedVendorReportedEchoSpacing": 0.000690017,
  "DeviceSerialNumber": "35450",
  "DwellTime": 2.5e-06,
  "EchoTime": 0.0348,
  "EffectiveEchoSpacing": 0.000690017,
  "FlipAngle": 55,
  "ImageComments": "Unaliased MB8/PE3 (remote)",
  "ImageOrientationPatientDICOM": [1, 0, 0, 0, 0.997441, -0.0714974],
  "ImageType": [
    "ORIGINAL",
    "PRIMARY",
    "M",
    "MB",
    "ND",
    "MOSAIC"
],
  "ImagingFrequency": 123.234,
  "InPlanePhaseEncodingDirectionDICOM": "COL",
  "InstitutionAddress": "Univeristy Ave. 197,Newark,North East,US,07102-1814",
  "InstitutionName": "RUBIC",
  "InstitutionalDepartmentName": "Department",
  "MRAcquisitionType": "2D",
  "MagneticFieldStrength": 3,
  "Manufacturer": "Siemens",
  "ManufacturersModelName": "TrioTim",
  "Modality": "MR",
  "MultibandAccelerationFactor": 8,
  "PartialFourier": 0.875,
  "PatientPosition": "HFS",
  "PercentPhaseFOV": 100,
  "PercentSampling": 100,
  "PhaseEncodingDirection": "j-",
  "PhaseEncodingSteps": 91,
  "PhaseResolution": 1,
  "PixelBandwidth": 1923,
  "ProcedureStepDescription": "Cole^Michael",
  "ProtocolName": "cmrr_mbep2d_bold_2mm_MB8_Rest",
  "PulseSequenceDetails": "%CustomerSeq%\\cmrr_mbep2d_bold",
  "ReceiveCoilName": "32Ch_Head",
  "ReconMatrixPE": 104,
  "RepetitionTime": 0.785,
  "SAR": 0.137161,
  "ScanOptions": "PFP\\FS",
  "ScanningSequence": "EP",
  "SequenceName": "epfid2d1_104",
  "SequenceVariant": "SK\\SS",
  "SeriesDescription": "cmrr_mbep2d_bold_2mm_MB8_Rest",
  "SeriesNumber": 9,
  "ShimSetting": [2055, -414, -7357, 689, -125, -105, 110, 58],
  "SliceThickness": 2,
  "SliceTiming": [0, 0.4375, 0.0875, 0.525, 0.175, 0.6125, 0.2625, 0.7, 0.35, 0, 0.4375, 0.0875, 0.525, 0.175, 0.6125, 0.2625, 0.7, 0.35, 0, 0.4375, 0.0875, 0.525, 0.175, 0.6125, 0.2625, 0.7, 0.35, 0, 0.4375, 0.0875, 0.525, 0.175, 0.6125, 0.2625, 0.7, 0.35, 0, 0.4375, 0.0875, 0.525, 0.175, 0.6125, 0.2625, 0.7, 0.35, 0, 0.4375, 0.0875, 0.525, 0.175, 0.6125, 0.2625, 0.7, 0.35, 0, 0.4375, 0.0875, 0.525, 0.175, 0.6125, 0.2625, 0.7, 0.35, 0, 0.4375, 0.0875, 0.525, 0.175, 0.6125, 0.2625, 0.7, 0.35],
  "SoftwareVersions": "syngo MR B19",
  "SpacingBetweenSlices": 2,
  "StationName": "MRC35450",
  "TaskName": "rest",
  "TotalReadoutTime": 0.0710717,
  "TxRefAmp": 336.027,
  "dcmmeta_affine": [
    [-2.0, 0.0, 0.0, 105.3559341430664],
    [0.0, 1.994881510734558, -0.14299488067626953, -84.51736450195312],
    [0.0, 0.14299488067626953, 1.994881510734558, -99.18609619140625],
    [0.0, 0.0, 0.0, 1.0]
],
  "dcmmeta_reorient_transform": [
    [0.0, -1.0, 0.0, 103.0],
    [1.0, 0.0, 0.0, 0.0],
    [0.0, 0.0, 1.0, 0.0],
    [0.0, 0.0, 0.0, 1.0]
],
  "dcmmeta_shape": [104, 104, 72, 1070],
  "dcmmeta_slice_dim": 2,
  "dcmmeta_version": 0.6,
  "global": {
    "const": {
      "AcquisitionMatrix": [104, 0, 0, 104],
      "AngioFlag": "N",
      "BitsAllocated": 16,
      "BitsStored": 12,
      "Columns": 936,
      "EchoNumbers": 1,
      "EchoTime": 34.8,
      "EchoTrainLength": 1,
      "FlipAngle": 55.0,
      "HighBit": 11,
      "ImageOrientationPatient": [1.0, 0.0, 0.0, 0.0, 0.99744078313723, -0.0714974414548],
      "ImagePositionPatient": [-937.35593223572, -950.82617068796, -24.971751121524],
      "ImageType": [
        "ORIGINAL",
        "PRIMARY",
        "M",
        "MB",
        "ND",
        "MOSAIC"
],
      "ImagedNucleus": "1H",
      "ImagingFrequency": 123.234455,
      "InPlanePhaseEncodingDirection": "COL",
      "MRAcquisitionType": "2D",
      "MagneticFieldStrength": 3.0,
      "Manufacturer": "SIEMENS",
      "ManufacturerModelName": "TrioTim",
      "Modality": "MR",
      "NumberOfAverages": 1.0,
      "NumberOfPhaseEncodingSteps": 91,
      "PercentPhaseFieldOfView": 100.0,
      "PercentSampling": 100.0,
      "PerformedProcedureStepStartTime": "134158.921000",
      "PhotometricInterpretation": "MONOCHROME2",
      "PixelBandwidth": 1923.0,
      "PixelRepresentation": 0,
      "PixelSpacing": [2.0, 2.0],
      "ProtocolName": "cmrr_mbep2d_bold_2mm_MB8_Rest",
      "RepetitionTime": 785.0,
      "Rows": 936,
      "SAR": 0.13716120937176,
      "SamplesPerPixel": 1,
      "ScanOptions": [
        "PFP",
        "FS"
],
      "ScanningSequence": "EP",
      "SequenceName": "epfid2d1_104",
      "SequenceVariant": [
        "SK",
        "SS"
],
      "SeriesDescription": "cmrr_mbep2d_bold_2mm_MB8_Rest",
      "SeriesNumber": 9,
      "SeriesTime": "142813.609000",
      "SliceLocation": -92.889481467441,
      "SliceThickness": 2.0,
      "SmallestImagePixelValue": 0,
      "SoftwareVersions": "syngo MR B19",
      "SpacingBetweenSlices": 1.9999999705235,
      "SpecificCharacterSet": "ISO_IR 100",
      "StudyID": "1",
      "StudyTime": "134158.875000",
      "TransmitCoilName": "Body",
      "VariableFlipAngleFlag": "N",
      "WindowCenterWidthExplanation": "Algo1",
      "dBdt": 0.0},
    "slices": {}
  },
  "time": {
    "samples": {
      "AcquisitionNumber": [1, 2, 3, 4, 5, 6, 7, 8, 9, 10, 11, 12, 13, 14, 15, 16, 17, 18, 19, 20, 21, 22, 23, 24, 25, 26, 27, 28, 29, 30, 31, 32, 33, 34, 35, 36, 37, 38, 39, 40, 41, 42, 43, 44, 45, 46, 47, 48, 49, 50, 51, 52, 53, 54, 55, 56, 57, 58, 59, 60, 61, 62, 63, 64, 65, 66, 67, 68, 69, 70, 71, 72, 73, 74, 75, 76, 77, 78, 79, 80, 81, 82, 83, 84, 85, 86, 87, 88, 89, 90, 91, 92, 93, 94, 95, 96, 97, 98, 99, 100, 101, 102, 103, 104, 105, 106, 107, 108, 109, 110, 111, 112, 113, 114, 115, 116, 117, 118, 119, 120, 121, 122, 123, 124, 125, 126, 127, 128, 129, 130, 131, 132, 133, 134, 135, 136, 137, 138, 139, 140, 141, 142, 143, 144, 145, 146, 147, 148, 149, 150, 151, 152, 153, 154, 155, 156, 157, 158, 159, 160, 161, 162, 163, 164, 165, 166, 167, 168, 169, 170, 171, 172, 173, 174, 175, 176, 177, 178, 179, 180, 181, 182, 183, 184, 185, 186, 187, 188, 189, 190, 191, 192, 193, 194, 195, 196, 197, 198, 199, 200, 201, 202, 203, 204, 205, 206, 207, 208, 209, 210, 211, 212, 213, 214, 215, 216, 217, 218, 219, 220, 221, 222, 223, 224, 225, 226, 227, 228, 229, 230, 231, 232, 233, 234, 235, 236, 237, 238, 239, 240, 241, 242, 243, 244, 245, 246, 247, 248, 249, 250, 251, 252, 253, 254, 255, 256, 257, 258, 259, 260, 261, 262, 263, 264, 265, 266, 267, 268, 269, 270, 271, 272, 273, 274, 275, 276, 277, 278, 279, 280, 281, 282, 283, 284, 285, 286, 287, 288, 289, 290, 291, 292, 293, 294, 295, 296, 297, 298, 299, 300, 301, 302, 303, 304, 305, 306, 307, 308, 309, 310, 311, 312, 313, 314, 315, 316, 317, 318, 319, 320, 321, 322, 323, 324, 325, 326, 327, 328, 329, 330, 331, 332, 333, 334, 335, 336, 337, 338, 339, 340, 341, 342, 343, 344, 345, 346, 347, 348, 349, 350, 351, 352, 353, 354, 355, 356, 357, 358, 359, 360, 361, 362, 363, 364, 365, 366, 367, 368, 369, 370, 371, 372, 373, 374, 375, 376, 377, 378, 379, 380, 381, 382, 383, 384, 385, 386, 387, 388, 389, 390, 391, 392, 393, 394, 395, 396, 397, 398, 399, 400, 401, 402, 403, 404, 405, 406, 407, 408, 409, 410, 411, 412, 413, 414, 415, 416, 417, 418, 419, 420, 421, 422, 423, 424, 425, 426, 427, 428, 429, 430, 431, 432, 433, 434, 435, 436, 437, 438, 439, 440, 441, 442, 443, 444, 445, 446, 447, 448, 449, 450, 451, 452, 453, 454, 455, 456, 457, 458, 459, 460, 461, 462, 463, 464, 465, 466, 467, 468, 469, 470, 471, 472, 473, 474, 475, 476, 477, 478, 479, 480, 481, 482, 483, 484, 485, 486, 487, 488, 489, 490, 491, 492, 493, 494, 495, 496, 497, 498, 499, 500, 501, 502, 503, 504, 505, 506, 507, 508, 509, 510, 511, 512, 513, 514, 515, 516, 517, 518, 519, 520, 521, 522, 523, 524, 525, 526, 527, 528, 529, 530, 531, 532, 533, 534, 535, 536, 537, 538, 539, 540, 541, 542, 543, 544, 545, 546, 547, 548, 549, 550, 551, 552, 553, 554, 555, 556, 557, 558, 559, 560, 561, 562, 563, 564, 565, 566, 567, 568, 569, 570, 571, 572, 573, 574, 575, 576, 577, 578, 579, 580, 581, 582, 583, 584, 585, 586, 587, 588, 589, 590, 591, 592, 593, 594, 595, 596, 597, 598, 599, 600, 601, 602, 603, 604, 605, 606, 607, 608, 609, 610, 611, 612, 613, 614, 615, 616, 617, 618, 619, 620, 621, 622, 623, 624, 625, 626, 627, 628, 629, 630, 631, 632, 633, 634, 635, 636, 637, 638, 639, 640, 641, 642, 643, 644, 645, 646, 647, 648, 649, 650, 651, 652, 653, 654, 655, 656, 657, 658, 659, 660, 661, 662, 663, 664, 665, 666, 667, 668, 669, 670, 671, 672, 673, 674, 675, 676, 677, 678, 679, 680, 681, 682, 683, 684, 685, 686, 687, 688, 689, 690, 691, 692, 693, 694, 695, 696, 697, 698, 699, 700, 701, 702, 703, 704, 705, 706, 707, 708, 709, 710, 711, 712, 713, 714, 715, 716, 717, 718, 719, 720, 721, 722, 723, 724, 725, 726, 727, 728, 729, 730, 731, 732, 733, 734, 735, 736, 737, 738, 739, 740, 741, 742, 743, 744, 745, 746, 747, 748, 749, 750, 751, 752, 753, 754, 755, 756, 757, 758, 759, 760, 761, 762, 763, 764, 765, 766, 767, 768, 769, 770, 771, 772, 773, 774, 775, 776, 777, 778, 779, 780, 781, 782, 783, 784, 785, 786, 787, 788, 789, 790, 791, 792, 793, 794, 795, 796, 797, 798, 799, 800, 801, 802, 803, 804, 805, 806, 807, 808, 809, 810, 811, 812, 813, 814, 815, 816, 817, 818, 819, 820, 821, 822, 823, 824, 825, 826, 827, 828, 829, 830, 831, 832, 833, 834, 835, 836, 837, 838, 839, 840, 841, 842, 843, 844, 845, 846, 847, 848, 849, 850, 851, 852, 853, 854, 855, 856, 857, 858, 859, 860, 861, 862, 863, 864, 865, 866, 867, 868, 869, 870, 871, 872, 873, 874, 875, 876, 877, 878, 879, 880, 881, 882, 883, 884, 885, 886, 887, 888, 889, 890, 891, 892, 893, 894, 895, 896, 897, 898, 899, 900, 901, 902, 903, 904, 905, 906, 907, 908, 909, 910, 911, 912, 913, 914, 915, 916, 917, 918, 919, 920, 921, 922, 923, 924, 925, 926, 927, 928, 929, 930, 931, 932, 933, 934, 935, 936, 937, 938, 939, 940, 941, 942, 943, 944, 945, 946, 947, 948, 949, 950, 951, 952, 953, 954, 955, 956, 957, 958, 959, 960, 961, 962, 963, 964, 965, 966, 967, 968, 969, 970, 971, 972, 973, 974, 975, 976, 977, 978, 979, 980, 981, 982, 983, 984, 985, 986, 987, 988, 989, 990, 991, 992, 993, 994, 995, 996, 997, 998, 999, 1000, 1001, 1002, 1003, 1004, 1005, 1006, 1007, 1008, 1009, 1010, 1011, 1012, 1013, 1014, 1015, 1016, 1017, 1018, 1019, 1020, 1021, 1022, 1023, 1024, 1025, 1026, 1027, 1028, 1029, 1030, 1031, 1032, 1033, 1034, 1035, 1036, 1037, 1038, 1039, 1040, 1041, 1042, 1043, 1044, 1045, 1046, 1047, 1048, 1049, 1050, 1051, 1052, 1053, 1054, 1055, 1056, 1057, 1058, 1059, 1060, 1061, 1062, 1063, 1064, 1065, 1066, 1067, 1068, 1069, 1070],
      "AcquisitionTime": ["142738.472500", "142739.262500", "142740.050000", "142740.837500", "142741.625000", "142742.415000", "142743.202500", "142743.990000", "142744.777500", "142745.567500", "142746.355000", "142747.142500", "142747.930000", "142748.720000", "142749.507500", "142750.295000", "142751.085000", "142751.872500", "142752.660000", "142753.447500", "142754.237500", "142755.025000", "142755.812500", "142756.600000", "142757.390000", "142758.177500", "142758.965000", "142759.752500", "142800.542500", "142801.330000", "142802.117500", "142802.905000", "142803.695000", "142804.482500", "142805.270000", "142806.057500", "142806.847500", "142807.635000", "142808.422500", "142809.212500", "142810.000000", "142810.787500", "142811.575000", "142812.365000", "142813.152500", "142813.940000", "142814.727500", "142815.517500", "142816.305000", "142817.092500", "142817.880000", "142818.670000", "142819.457500", "142820.245000", "142821.032500", "142821.822500", "142822.610000", "142823.397500", "142824.185000", "142824.975000", "142825.762500", "142826.550000", "142827.340000", "142828.127500", "142828.915000", "142829.702500", "142830.492500", "142831.280000", "142832.067500", "142832.855000", "142833.645000", "142834.432500", "142835.220000", "142836.007500", "142836.797500", "142837.585000", "142838.372500", "142839.160000", "142839.950000", "142840.737500", "142841.525000", "142842.312500", "142843.102500", "142843.890000", "142844.677500", "142845.467500", "142846.255000", "142847.042500", "142847.830000", "142848.620000", "142849.407500", "142850.195000", "142850.982500", "142851.772500", "142852.560000", "142853.347500", "142854.135000", "142854.925000", "142855.712500", "142856.500000", "142857.287500", "142858.077500", "142858.865000", "142859.652500", "142900.442500", "142901.230000", "142902.017500", "142902.805000", "142903.595000", "142904.382500", "142905.170000", "142905.957500", "142906.747500", "142907.535000", "142908.322500", "142909.110000", "142909.900000", "142910.687500", "142911.475000", "142912.262500", "142913.052500", "142913.840000", "142914.627500", "142915.415000", "142916.205000", "142916.992500", "142917.780000", "142918.570000", "142919.357500", "142920.145000", "142920.932500", "142921.722500", "142922.510000", "142923.297500", "142924.085000", "142924.875000", "142925.662500", "142926.450000", "142927.237500", "142928.027500", "142928.815000", "142929.602500", "142930.390000", "142931.180000", "142931.967500", "142932.755000", "142933.542500", "142934.332500", "142935.120000", "142935.907500", "142936.697500", "142937.485000", "142938.272500", "142939.060000", "142939.850000", "142940.637500", "142941.425000", "142942.212500", "142943.002500", "142943.790000", "142944.577500", "142945.365000", "142946.155000", "142946.942500", "142947.730000", "142948.517500", "142949.307500", "142950.095000", "142950.882500", "142951.670000", "142952.460000", "142953.247500", "142954.035000", "142954.825000", "142955.612500", "142956.400000", "142957.187500", "142957.977500", "142958.765000", "142959.552500", "143000.340000", "143001.130000", "143001.917500", "143002.705000", "143003.492500", "143004.282500", "143005.070000", "143005.857500", "143006.645000", "143007.435000", "143008.222500", "143009.010000", "143009.797500", "143010.587500", "143011.375000", "143012.162500", "143012.952500", "143013.740000", "143014.527500", "143015.315000", "143016.105000", "143016.892500", "143017.680000", "143018.467500", "143019.257500", "143020.045000", "143020.832500", "143021.620000", "143022.410000", "143023.197500", "143023.985000", "143024.772500", "143025.562500", "143026.350000", "143027.137500", "143027.925000", "143028.715000", "143029.502500", "143030.290000", "143031.080000", "143031.867500", "143032.655000", "143033.442500", "143034.232500", "143035.020000", "143035.807500", "143036.595000", "143037.385000", "143038.172500", "143038.960000", "143039.747500", "143040.537500", "143041.325000", "143042.112500", "143042.900000", "143043.690000", "143044.477500", "143045.265000", "143046.052500", "143046.842500", "143047.630000", "143048.417500", "143049.207500", "143049.995000", "143050.782500", "143051.570000", "143052.360000", "143053.147500", "143053.935000", "143054.722500", "143055.512500", "143056.300000", "143057.087500", "143057.875000", "143058.665000", "143059.452500", "143100.240000", "143101.027500", "143101.817500", "143102.605000", "143103.392500", "143104.180000", "143104.970000", "143105.757500", "143106.545000", "143107.335000", "143108.122500", "143108.910000", "143109.697500", "143110.487500", "143111.275000", "143112.062500", "143112.850000", "143113.640000", "143114.427500", "143115.215000", "143116.002500", "143116.792500", "143117.580000", "143118.367500", "143119.155000", "143119.945000", "143120.732500", "143121.520000", "143122.307500", "143123.097500", "143123.885000", "143124.672500", "143125.462500", "143126.250000", "143127.037500", "143127.825000", "143128.615000", "143129.402500", "143130.190000", "143130.977500", "143131.767500", "143132.555000", "143133.342500", "143134.130000", "143134.920000", "143135.707500", "143136.495000", "143137.282500", "143138.072500", "143138.860000", "143139.647500", "143140.435000", "143141.225000", "143142.012500", "143142.800000", "143143.590000", "143144.377500", "143145.165000", "143145.952500", "143146.742500", "143147.530000", "143148.317500", "143149.105000", "143149.895000", "143150.682500", "143151.470000", "143152.257500", "143153.047500", "143153.835000", "143154.622500", "143155.410000", "143156.200000", "143156.987500", "143157.775000", "143158.562500", "143159.352500", "143200.140000", "143200.927500", "143201.717500", "143202.505000", "143203.292500", "143204.080000", "143204.870000", "143205.657500", "143206.445000", "143207.232500", "143208.022500", "143208.810000", "143209.597500", "143210.385000", "143211.175000", "143211.962500", "143212.750000", "143213.537500", "143214.327500", "143215.115000", "143215.902500", "143216.692500", "143217.480000", "143218.267500", "143219.055000", "143219.845000", "143220.632500", "143221.420000", "143222.207500", "143222.997500", "143223.785000", "143224.572500", "143225.360000", "143226.150000", "143226.937500", "143227.725000", "143228.512500", "143229.302500", "143230.090000", "143230.877500", "143231.665000", "143232.455000", "143233.242500", "143234.030000", "143234.820000", "143235.607500", "143236.395000", "143237.182500", "143237.972500", "143238.760000", "143239.547500", "143240.335000", "143241.125000", "143241.912500", "143242.700000", "143243.487500", "143244.277500", "143245.065000", "143245.852500", "143246.640000", "143247.430000", "143248.217500", "143249.005000", "143249.792500", "143250.582500", "143251.370000", "143252.157500", "143252.947500", "143253.735000", "143254.522500", "143255.310000", "143256.100000", "143256.887500", "143257.675000", "143258.462500", "143259.252500", "143300.040000", "143300.827500", "143301.615000", "143302.405000", "143303.192500", "143303.980000", "143304.767500", "143305.557500", "143306.345000", "143307.132500", "143307.920000", "143308.710000", "143309.497500", "143310.285000", "143311.075000", "143311.862500", "143312.650000", "143313.437500", "143314.227500", "143315.015000", "143315.802500", "143316.590000", "143317.380000", "143318.167500", "143318.955000", "143319.742500", "143320.532500", "143321.320000", "143322.107500", "143322.895000", "143323.685000", "143324.472500", "143325.260000", "143326.047500", "143326.837500", "143327.625000", "143328.412500", "143329.202500", "143329.990000", "143330.777500", "143331.565000", "143332.355000", "143333.142500", "143333.930000", "143334.717500", "143335.507500", "143336.295000", "143337.082500", "143337.870000", "143338.660000", "143339.447500", "143340.235000", "143341.022500", "143341.812500", "143342.600000", "143343.387500", "143344.175000", "143344.965000", "143345.752500", "143346.540000", "143347.330000", "143348.117500", "143348.905000", "143349.692500", "143350.482500", "143351.270000", "143352.057500", "143352.845000", "143353.635000", "143354.422500", "143355.210000", "143355.997500", "143356.787500", "143357.575000", "143358.362500", "143359.150000", "143359.940000", "143400.727500", "143401.515000", "143402.302500", "143403.092500", "143403.880000", "143404.667500", "143405.457500", "143406.245000", "143407.032500", "143407.820000", "143408.610000", "143409.397500", "143410.185000", "143410.972500", "143411.762500", "143412.550000", "143413.337500", "143414.125000", "143414.915000", "143415.702500", "143416.490000", "143417.277500", "143418.067500", "143418.855000", "143419.642500", "143420.430000", "143421.220000", "143422.007500", "143422.795000", "143423.585000", "143424.372500", "143425.160000", "143425.947500", "143426.737500", "143427.525000", "143428.312500", "143429.100000", "143429.890000", "143430.677500", "143431.465000", "143432.252500", "143433.042500", "143433.830000", "143434.617500", "143435.405000", "143436.195000", "143436.982500", "143437.770000", "143438.557500", "143439.347500", "143440.135000", "143440.922500", "143441.712500", "143442.500000", "143443.287500", "143444.075000", "143444.865000", "143445.652500", "143446.440000", "143447.227500", "143448.017500", "143448.805000", "143449.592500", "143450.380000", "143451.170000", "143451.957500", "143452.745000", "143453.532500", "143454.322500", "143455.110000", "143455.897500", "143456.685000", "143457.475000", "143458.262500", "143459.050000", "143459.840000", "143500.627500", "143501.415000", "143502.202500", "143502.992500", "143503.780000", "143504.567500", "143505.355000", "143506.145000", "143506.932500", "143507.720000", "143508.507500", "143509.297500", "143510.085000", "143510.872500", "143511.660000", "143512.450000", "143513.237500", "143514.025000", "143514.812500", "143515.602500", "143516.390000", "143517.177500", "143517.967500", "143518.755000", "143519.542500", "143520.330000", "143521.120000", "143521.907500", "143522.695000", "143523.482500", "143524.272500", "143525.060000", "143525.847500", "143526.635000", "143527.425000", "143528.212500", "143529.000000", "143529.787500", "143530.577500", "143531.365000", "143532.152500", "143532.942500", "143533.730000", "143534.517500", "143535.305000", "143536.095000", "143536.882500", "143537.670000", "143538.457500", "143539.247500", "143540.035000", "143540.822500", "143541.610000", "143542.400000", "143543.187500", "143543.975000", "143544.762500", "143545.552500", "143546.340000", "143547.127500", "143547.915000", "143548.705000", "143549.492500", "143550.280000", "143551.070000", "143551.857500", "143552.645000", "143553.432500", "143554.222500", "143555.010000", "143555.797500", "143556.585000", "143557.375000", "143558.162500", "143558.950000", "143559.737500", "143600.527500", "143601.315000", "143602.102500", "143602.890000", "143603.680000", "143604.467500", "143605.255000", "143606.042500", "143606.832500", "143607.620000", "143608.407500", "143609.197500", "143609.985000", "143610.772500", "143611.560000", "143612.350000", "143613.137500", "143613.925000", "143614.712500", "143615.502500", "143616.290000", "143617.077500", "143617.865000", "143618.655000", "143619.442500", "143620.230000", "143621.017500", "143621.807500", "143622.595000", "143623.382500", "143624.170000", "143624.960000", "143625.747500", "143626.535000", "143627.325000", "143628.112500", "143628.900000", "143629.687500", "143630.477500", "143631.265000", "143632.052500", "143632.840000", "143633.630000", "143634.417500", "143635.205000", "143635.992500", "143636.782500", "143637.570000", "143638.357500", "143639.145000", "143639.935000", "143640.722500", "143641.510000", "143642.297500", "143643.087500", "143643.875000", "143644.662500", "143645.452500", "143646.240000", "143647.027500", "143647.815000", "143648.605000", "143649.392500", "143650.180000", "143650.967500", "143651.757500", "143652.545000", "143653.332500", "143654.120000", "143654.910000", "143655.697500", "143656.485000", "143657.272500", "143658.062500", "143658.850000", "143659.637500", "143700.425000", "143701.215000", "143702.002500", "143702.790000", "143703.580000", "143704.367500", "143705.155000", "143705.942500", "143706.732500", "143707.520000", "143708.307500", "143709.095000", "143709.885000", "143710.672500", "143711.460000", "143712.247500", "143713.037500", "143713.825000", "143714.612500", "143715.400000", "143716.190000", "143716.977500", "143717.765000", "143718.552500", "143719.342500", "143720.130000", "143720.917500", "143721.707500", "143722.495000", "143723.282500", "143724.070000", "143724.860000", "143725.647500", "143726.435000", "143727.222500", "143728.012500", "143728.800000", "143729.587500", "143730.375000", "143731.165000", "143731.952500", "143732.740000", "143733.527500", "143734.317500", "143735.105000", "143735.892500", "143736.680000", "143737.470000", "143738.257500", "143739.045000", "143739.835000", "143740.622500", "143741.410000", "143742.197500", "143742.987500", "143743.775000", "143744.562500", "143745.350000", "143746.140000", "143746.927500", "143747.715000", "143748.502500", "143749.292500", "143750.080000", "143750.867500", "143751.655000", "143752.445000", "143753.232500", "143754.020000", "143754.807500", "143755.597500", "143756.385000", "143757.172500", "143757.962500", "143758.750000", "143759.537500", "143800.325000", "143801.115000", "143801.902500", "143802.690000", "143803.477500", "143804.267500", "143805.055000", "143805.842500", "143806.630000", "143807.420000", "143808.207500", "143808.995000", "143809.782500", "143810.572500", "143811.360000", "143812.147500", "143812.935000", "143813.725000", "143814.512500", "143815.300000", "143816.090000", "143816.877500", "143817.665000", "143818.452500", "143819.242500", "143820.030000", "143820.817500", "143821.605000", "143822.395000", "143823.182500", "143823.970000", "143824.757500", "143825.547500", "143826.335000", "143827.122500", "143827.910000", "143828.700000", "143829.487500", "143830.275000", "143831.062500", "143831.852500", "143832.640000", "143833.427500", "143834.217500", "143835.005000", "143835.792500", "143836.580000", "143837.370000", "143838.157500", "143838.945000", "143839.732500", "143840.522500", "143841.310000", "143842.097500", "143842.885000", "143843.675000", "143844.462500", "143845.250000", "143846.037500", "143846.827500", "143847.615000", "143848.402500", "143849.192500", "143849.980000", "143850.767500", "143851.555000", "143852.345000", "143853.132500", "143853.920000", "143854.707500", "143855.497500", "143856.285000", "143857.072500", "143857.860000", "143858.650000", "143859.437500", "143900.225000", "143901.012500", "143901.802500", "143902.590000", "143903.377500", "143904.165000", "143904.955000", "143905.742500", "143906.530000", "143907.320000", "143908.107500", "143908.895000", "143909.682500", "143910.472500", "143911.260000", "143912.047500", "143912.835000", "143913.625000", "143914.412500", "143915.200000", "143915.987500", "143916.777500", "143917.565000", "143918.352500", "143919.140000", "143919.930000", "143920.717500", "143921.505000", "143922.292500", "143923.082500", "143923.870000", "143924.657500", "143925.447500", "143926.235000", "143927.022500", "143927.810000", "143928.600000", "143929.387500", "143930.175000", "143930.962500", "143931.752500", "143932.540000", "143933.327500", "143934.115000", "143934.905000", "143935.692500", "143936.480000", "143937.267500", "143938.057500", "143938.845000", "143939.632500", "143940.420000", "143941.210000", "143941.997500", "143942.785000", "143943.575000", "143944.362500", "143945.150000", "143945.937500", "143946.727500", "143947.515000", "143948.302500", "143949.090000", "143949.880000", "143950.667500", "143951.455000", "143952.242500", "143953.032500", "143953.820000", "143954.607500", "143955.395000", "143956.185000", "143956.972500", "143957.760000", "143958.547500", "143959.337500", "144000.125000", "144000.912500", "144001.702500", "144002.490000", "144003.277500", "144004.065000", "144004.855000", "144005.642500", "144006.430000", "144007.217500", "144008.007500", "144008.795000", "144009.582500", "144010.370000", "144011.160000", "144011.947500", "144012.735000", "144013.522500", "144014.312500", "144015.100000", "144015.887500", "144016.675000", "144017.465000", "144018.252500", "144019.040000", "144019.830000", "144020.617500", "144021.405000", "144022.192500", "144022.982500", "144023.770000", "144024.557500", "144025.345000", "144026.135000", "144026.922500", "144027.710000", "144028.497500", "144029.287500", "144030.075000", "144030.862500", "144031.650000", "144032.440000", "144033.227500", "144034.015000", "144034.802500", "144035.592500", "144036.380000", "144037.167500", "144037.957500", "144038.745000", "144039.532500", "144040.320000", "144041.110000", "144041.897500", "144042.685000", "144043.472500", "144044.262500", "144045.050000", "144045.837500", "144046.625000", "144047.415000", "144048.202500", "144048.990000", "144049.777500", "144050.567500", "144051.355000", "144052.142500", "144052.930000", "144053.720000", "144054.507500", "144055.295000", "144056.085000", "144056.872500", "144057.660000", "144058.447500", "144059.237500", "144100.025000", "144100.812500", "144101.600000", "144102.390000", "144103.177500", "144103.965000", "144104.752500", "144105.542500", "144106.330000", "144107.117500", "144107.905000", "144108.695000", "144109.482500", "144110.270000", "144111.057500", "144111.847500", "144112.635000", "144113.422500", "144114.212500", "144115.000000", "144115.787500", "144116.575000", "144117.365000", "144118.152500", "144118.940000", "144119.727500", "144120.517500", "144121.305000", "144122.092500", "144122.880000", "144123.670000", "144124.457500", "144125.245000", "144126.032500", "144126.822500", "144127.610000", "144128.397500", "144129.185000", "144129.975000", "144130.762500", "144131.550000", "144132.340000", "144133.127500", "144133.915000", "144134.702500", "144135.492500", "144136.280000", "144137.067500", "144137.855000", "144138.645000", "144139.432500", "144140.220000", "144141.007500"],
