{
  "AcquisitionMatrixPE": 104,
  "AcquisitionNumber": 1,
  "AcquisitionTime": "15:25:35.687500",
  "BandwidthPerPixelPhaseEncode": 13.935,
  "BaseResolution": 104,
  "CoilString": "C:HEA;HEP",
  "ConversionSoftware": "dcm2niix",
  "ConversionSoftwareVersion": "v1.0.20210317",
  "DerivedVendorReportedEchoSpacing": 0.000690017,
  "DeviceSerialNumber": "35450",
  "DwellTime": 2.5e-06,
  "EchoTime": 0.0348,
  "EffectiveEchoSpacing": 0.000690017,
  "FlipAngle": 55,
  "ImageComments": "Unaliased MB8/PE3 (remote)",
  "ImageOrientationPatientDICOM": [1, 0, 0, 0, 0.997441, -0.0714974],
  "ImageType": [
    "ORIGINAL",
    "PRIMARY",
    "M",
    "MB",
    "ND",
    "MOSAIC"
],
  "ImagingFrequency": 123.235,
  "InPlanePhaseEncodingDirectionDICOM": "COL",
  "InstitutionAddress": "Univeristy Ave. 197,Newark,North East,US,07102-1814",
  "InstitutionName": "RUBIC",
  "InstitutionalDepartmentName": "Department",
  "MRAcquisitionType": "2D",
  "MagneticFieldStrength": 3,
  "Manufacturer": "Siemens",
  "ManufacturersModelName": "TrioTim",
  "Modality": "MR",
  "MultibandAccelerationFactor": 8,
  "PartialFourier": 0.875,
  "PatientPosition": "HFS",
  "PercentPhaseFOV": 100,
  "PercentSampling": 100,
  "PhaseEncodingDirection": "j-",
  "PhaseEncodingSteps": 91,
  "PhaseResolution": 1,
  "PixelBandwidth": 1923,
  "ProcedureStepDescription": "Cole^Michael",
  "ProtocolName": "cmrr_mbep2d_bold_2mm_MB8_Task_8x",
  "PulseSequenceDetails": "%CustomerSeq%\\cmrr_mbep2d_bold",
  "ReceiveCoilName": "32Ch_Head",
  "ReconMatrixPE": 104,
  "RepetitionTime": 0.785,
  "SAR": 0.133088,
  "ScanOptions": "PFP\\FS",
  "ScanningSequence": "EP",
  "SequenceName": "epfid2d1_104",
  "SequenceVariant": "SK\\SS",
  "SeriesDescription": "cmrr_mbep2d_bold_2mm_MB8_Task_8x",
  "SeriesNumber": 21,
  "ShimSetting": [2055, -414, -7357, 689, -125, -105, 110, 58],
  "SliceThickness": 2,
  "SliceTiming": [0, 0.4375, 0.0875, 0.525, 0.175, 0.6125, 0.2625, 0.7, 0.35, 0, 0.4375, 0.0875, 0.525, 0.175, 0.6125, 0.2625, 0.7, 0.35, 0, 0.4375, 0.0875, 0.525, 0.175, 0.6125, 0.2625, 0.7, 0.35, 0, 0.4375, 0.0875, 0.525, 0.175, 0.6125, 0.2625, 0.7, 0.35, 0, 0.4375, 0.0875, 0.525, 0.175, 0.6125, 0.2625, 0.7, 0.35, 0, 0.4375, 0.0875, 0.525, 0.175, 0.6125, 0.2625, 0.7, 0.35, 0, 0.4375, 0.0875, 0.525, 0.175, 0.6125, 0.2625, 0.7, 0.35, 0, 0.4375, 0.0875, 0.525, 0.175, 0.6125, 0.2625, 0.7, 0.35],
  "SoftwareVersions": "syngo MR B19",
  "SpacingBetweenSlices": 2,
  "StationName": "MRC35450",
  "TaskName": "cpro",
  "TotalReadoutTime": 0.0710717,
  "TxRefAmp": 336.027,
  "dcmmeta_affine": [
    [-2.0, 0.0, 0.0, 105.3559341430664],
    [0.0, 1.994881510734558, -0.14299488067626953, -84.51736450195312],
    [0.0, 0.14299488067626953, 1.994881510734558, -99.18609619140625],
    [0.0, 0.0, 0.0, 1.0]
],
  "dcmmeta_reorient_transform": [
    [0.0, -1.0, 0.0, 103.0],
    [1.0, 0.0, 0.0, 0.0],
    [0.0, 0.0, 1.0, 0.0],
    [0.0, 0.0, 0.0, 1.0]
],
  "dcmmeta_shape": [104, 104, 72, 581],
  "dcmmeta_slice_dim": 2,
  "dcmmeta_version": 0.6,
  "global": {
    "const": {
      "AcquisitionMatrix": [104, 0, 0, 104],
      "AngioFlag": "N",
      "BitsAllocated": 16,
      "BitsStored": 12,
      "Columns": 936,
      "EchoNumbers": 1,
      "EchoTime": 34.8,
      "EchoTrainLength": 1,
      "FlipAngle": 55.0,
      "HighBit": 11,
      "ImageOrientationPatient": [1.0, 0.0, 0.0, 0.0, 0.99744078313723, -0.0714974414548],
      "ImagePositionPatient": [-937.35593223572, -950.82617068796, -24.971751121524],
      "ImageType": [
        "ORIGINAL",
        "PRIMARY",
        "M",
        "MB",
        "ND",
        "MOSAIC"
],
      "ImagedNucleus": "1H",
      "ImagingFrequency": 123.234508,
      "InPlanePhaseEncodingDirection": "COL",
      "MRAcquisitionType": "2D",
      "MagneticFieldStrength": 3.0,
      "Manufacturer": "SIEMENS",
      "ManufacturerModelName": "TrioTim",
      "Modality": "MR",
      "NumberOfAverages": 1.0,
      "NumberOfPhaseEncodingSteps": 91,
      "PercentPhaseFieldOfView": 100.0,
      "PercentSampling": 100.0,
      "PerformedProcedureStepStartTime": "134158.921000",
      "PhotometricInterpretation": "MONOCHROME2",
      "PixelBandwidth": 1923.0,
      "PixelRepresentation": 0,
      "PixelSpacing": [2.0, 2.0],
      "ProtocolName": "cmrr_mbep2d_bold_2mm_MB8_Task_8x",
      "RepetitionTime": 785.0,
      "Rows": 936,
      "SAR": 0.13308794595066,
      "SamplesPerPixel": 1,
      "ScanOptions": [
        "PFP",
        "FS"
],
      "ScanningSequence": "EP",
      "SequenceName": "epfid2d1_104",
      "SequenceVariant": [
        "SK",
        "SS"
],
      "SeriesDescription": "cmrr_mbep2d_bold_2mm_MB8_Task_8x",
      "SeriesNumber": 21,
      "SeriesTime": "152613.609000",
      "SliceLocation": -92.889481467441,
      "SliceThickness": 2.0,
      "SmallestImagePixelValue": 0,
      "SoftwareVersions": "syngo MR B19",
      "SpacingBetweenSlices": 1.9999999705235,
      "SpecificCharacterSet": "ISO_IR 100",
      "StudyID": "1",
      "StudyTime": "134158.875000",
      "TransmitCoilName": "Body",
      "VariableFlipAngleFlag": "N",
      "WindowCenterWidthExplanation": "Algo1",
      "dBdt": 0.0},
    "slices": {}
  },
  "time": {
    "samples": {
      "AcquisitionNumber": [1, 2, 3, 4, 5, 6, 7, 8, 9, 10, 11, 12, 13, 14, 15, 16, 17, 18, 19, 20, 21, 22, 23, 24, 25, 26, 27, 28, 29, 30, 31, 32, 33, 34, 35, 36, 37, 38, 39, 40, 41, 42, 43, 44, 45, 46, 47, 48, 49, 50, 51, 52, 53, 54, 55, 56, 57, 58, 59, 60, 61, 62, 63, 64, 65, 66, 67, 68, 69, 70, 71, 72, 73, 74, 75, 76, 77, 78, 79, 80, 81, 82, 83, 84, 85, 86, 87, 88, 89, 90, 91, 92, 93, 94, 95, 96, 97, 98, 99, 100, 101, 102, 103, 104, 105, 106, 107, 108, 109, 110, 111, 112, 113, 114, 115, 116, 117, 118, 119, 120, 121, 122, 123, 124, 125, 126, 127, 128, 129, 130, 131, 132, 133, 134, 135, 136, 137, 138, 139, 140, 141, 142, 143, 144, 145, 146, 147, 148, 149, 150, 151, 152, 153, 154, 155, 156, 157, 158, 159, 160, 161, 162, 163, 164, 165, 166, 167, 168, 169, 170, 171, 172, 173, 174, 175, 176, 177, 178, 179, 180, 181, 182, 183, 184, 185, 186, 187, 188, 189, 190, 191, 192, 193, 194, 195, 196, 197, 198, 199, 200, 201, 202, 203, 204, 205, 206, 207, 208, 209, 210, 211, 212, 213, 214, 215, 216, 217, 218, 219, 220, 221, 222, 223, 224, 225, 226, 227, 228, 229, 230, 231, 232, 233, 234, 235, 236, 237, 238, 239, 240, 241, 242, 243, 244, 245, 246, 247, 248, 249, 250, 251, 252, 253, 254, 255, 256, 257, 258, 259, 260, 261, 262, 263, 264, 265, 266, 267, 268, 269, 270, 271, 272, 273, 274, 275, 276, 277, 278, 279, 280, 281, 282, 283, 284, 285, 286, 287, 288, 289, 290, 291, 292, 293, 294, 295, 296, 297, 298, 299, 300, 301, 302, 303, 304, 305, 306, 307, 308, 309, 310, 311, 312, 313, 314, 315, 316, 317, 318, 319, 320, 321, 322, 323, 324, 325, 326, 327, 328, 329, 330, 331, 332, 333, 334, 335, 336, 337, 338, 339, 340, 341, 342, 343, 344, 345, 346, 347, 348, 349, 350, 351, 352, 353, 354, 355, 356, 357, 358, 359, 360, 361, 362, 363, 364, 365, 366, 367, 368, 369, 370, 371, 372, 373, 374, 375, 376, 377, 378, 379, 380, 381, 382, 383, 384, 385, 386, 387, 388, 389, 390, 391, 392, 393, 394, 395, 396, 397, 398, 399, 400, 401, 402, 403, 404, 405, 406, 407, 408, 409, 410, 411, 412, 413, 414, 415, 416, 417, 418, 419, 420, 421, 422, 423, 424, 425, 426, 427, 428, 429, 430, 431, 432, 433, 434, 435, 436, 437, 438, 439, 440, 441, 442, 443, 444, 445, 446, 447, 448, 449, 450, 451, 452, 453, 454, 455, 456, 457, 458, 459, 460, 461, 462, 463, 464, 465, 466, 467, 468, 469, 470, 471, 472, 473, 474, 475, 476, 477, 478, 479, 480, 481, 482, 483, 484, 485, 486, 487, 488, 489, 490, 491, 492, 493, 494, 495, 496, 497, 498, 499, 500, 501, 502, 503, 504, 505, 506, 507, 508, 509, 510, 511, 512, 513, 514, 515, 516, 517, 518, 519, 520, 521, 522, 523, 524, 525, 526, 527, 528, 529, 530, 531, 532, 533, 534, 535, 536, 537, 538, 539, 540, 541, 542, 543, 544, 545, 546, 547, 548, 549, 550, 551, 552, 553, 554, 555, 556, 557, 558, 559, 560, 561, 562, 563, 564, 565, 566, 567, 568, 569, 570, 571, 572, 573, 574, 575, 576, 577, 578, 579, 580, 581],
      "AcquisitionTime": ["152535.687500", "152536.475000", "152537.262500", "152538.052500", "152538.840000", "152539.627500", "152540.415000", "152541.205000", "152541.992500", "152542.780000", "152543.567500", "152544.357500", "152545.145000", "152545.932500", "152546.722500", "152547.510000", "152548.297500", "152549.085000", "152549.875000", "152550.662500", "152551.450000", "152552.237500", "152553.027500", "152553.815000", "152554.602500", "152555.390000", "152556.180000", "152556.967500", "152557.755000", "152558.542500", "152559.332500", "152600.120000", "152600.907500", "152601.695000", "152602.485000", "152603.272500", "152604.060000", "152604.850000", "152605.637500", "152606.425000", "152607.212500", "152608.002500", "152608.790000", "152609.577500", "152610.365000", "152611.155000", "152611.942500", "152612.730000", "152613.517500", "152614.307500", "152615.095000", "152615.882500", "152616.670000", "152617.460000", "152618.247500", "152619.035000", "152619.822500", "152620.612500", "152621.400000", "152622.187500", "152622.977500", "152623.765000", "152624.552500", "152625.340000", "152626.130000", "152626.917500", "152627.705000", "152628.492500", "152629.282500", "152630.070000", "152630.857500", "152631.645000", "152632.435000", "152633.222500", "152634.010000", "152634.797500", "152635.587500", "152636.375000", "152637.162500", "152637.950000", "152638.740000", "152639.527500", "152640.315000", "152641.105000", "152641.892500", "152642.680000", "152643.467500", "152644.257500", "152645.045000", "152645.832500", "152646.620000", "152647.410000", "152648.197500", "152648.985000", "152649.772500", "152650.562500", "152651.350000", "152652.137500", "152652.925000", "152653.715000", "152654.502500", "152655.290000", "152656.080000", "152656.867500", "152657.655000", "152658.442500", "152659.232500", "152700.020000", "152700.807500", "152701.595000", "152702.385000", "152703.172500", "152703.960000", "152704.747500", "152705.537500", "152706.325000", "152707.112500", "152707.900000", "152708.690000", "152709.477500", "152710.265000", "152711.052500", "152711.842500", "152712.630000", "152713.417500", "152714.207500", "152714.995000", "152715.782500", "152716.570000", "152717.360000", "152718.147500", "152718.935000", "152719.722500", "152720.512500", "152721.300000", "152722.087500", "152722.875000", "152723.665000", "152724.452500", "152725.240000", "152726.027500", "152726.817500", "152727.605000", "152728.392500", "152729.180000", "152729.970000", "152730.757500", "152731.545000", "152732.335000", "152733.122500", "152733.910000", "152734.697500", "152735.487500", "152736.275000", "152737.062500", "152737.850000", "152738.640000", "152739.427500", "152740.215000", "152741.002500", "152741.792500", "152742.580000", "152743.367500", "152744.155000", "152744.945000", "152745.732500", "152746.520000", "152747.307500", "152748.097500", "152748.885000", "152749.672500", "152750.462500", "152751.250000", "152752.037500", "152752.825000", "152753.615000", "152754.402500", "152755.190000", "152755.977500", "152756.767500", "152757.555000", "152758.342500", "152759.130000", "152759.920000", "152800.707500", "152801.495000", "152802.282500", "152803.072500", "152803.860000", "152804.647500", "152805.435000", "152806.225000", "152807.012500", "152807.800000", "152808.590000", "152809.377500", "152810.165000", "152810.952500", "152811.742500", "152812.530000", "152813.317500", "152814.105000", "152814.895000", "152815.682500", "152816.470000", "152817.257500", "152818.047500", "152818.835000", "152819.622500", "152820.410000", "152821.200000", "152821.987500", "152822.775000", "152823.562500", "152824.352500", "152825.140000", "152825.927500", "152826.717500", "152827.505000", "152828.292500", "152829.080000", "152829.870000", "152830.657500", "152831.445000", "152832.232500", "152833.022500", "152833.810000", "152834.597500", "152835.385000", "152836.175000", "152836.962500", "152837.750000", "152838.537500", "152839.327500", "152840.115000", "152840.902500", "152841.690000", "152842.480000", "152843.267500", "152844.055000", "152844.845000", "152845.632500", "152846.420000", "152847.207500", "152847.997500", "152848.785000", "152849.572500", "152850.360000", "152851.150000", "152851.937500", "152852.725000", "152853.512500", "152854.302500", "152855.090000", "152855.877500", "152856.665000", "152857.455000", "152858.242500", "152859.030000", "152859.817500", "152900.607500", "152901.395000", "152902.182500", "152902.972500", "152903.760000", "152904.547500", "152905.335000", "152906.125000", "152906.912500", "152907.700000", "152908.487500", "152909.277500", "152910.065000", "152910.852500", "152911.640000", "152912.430000", "152913.217500", "152914.005000", "152914.792500", "152915.582500", "152916.370000", "152917.157500", "152917.945000", "152918.735000", "152919.522500", "152920.310000", "152921.100000", "152921.887500", "152922.675000", "152923.462500", "152924.252500", "152925.040000", "152925.827500", "152926.615000", "152927.405000", "152928.192500", "152928.980000", "152929.767500", "152930.557500", "152931.345000", "152932.132500", "152932.920000", "152933.710000", "152934.497500", "152935.285000", "152936.072500", "152936.862500", "152937.650000", "152938.437500", "152939.227500", "152940.015000", "152940.802500", "152941.590000", "152942.380000", "152943.167500", "152943.955000", "152944.742500", "152945.532500", "152946.320000", "152947.107500", "152947.895000", "152948.685000", "152949.472500", "152950.260000", "152951.047500", "152951.837500", "152952.625000", "152953.412500", "152954.200000", "152954.990000", "152955.777500", "152956.565000", "152957.355000", "152958.142500", "152958.930000", "152959.717500", "153000.507500", "153001.295000", "153002.082500", "153002.870000", "153003.660000", "153004.447500", "153005.235000", "153006.022500", "153006.812500", "153007.600000", "153008.387500", "153009.175000", "153009.965000", "153010.752500", "153011.540000", "153012.330000", "153013.117500", "153013.905000", "153014.692500", "153015.482500", "153016.270000", "153017.057500", "153017.845000", "153018.635000", "153019.422500", "153020.210000", "153020.997500", "153021.787500", "153022.575000", "153023.362500", "153024.150000", "153024.940000", "153025.727500", "153026.515000", "153027.302500", "153028.092500", "153028.880000", "153029.667500", "153030.457500", "153031.245000", "153032.032500", "153032.820000", "153033.610000", "153034.397500", "153035.185000", "153035.972500", "153036.762500", "153037.550000", "153038.337500", "153039.125000", "153039.915000", "153040.702500", "153041.490000", "153042.277500", "153043.067500", "153043.855000", "153044.642500", "153045.430000", "153046.220000", "153047.007500", "153047.795000", "153048.585000", "153049.372500", "153050.160000", "153050.947500", "153051.737500", "153052.525000", "153053.312500", "153054.100000", "153054.890000", "153055.677500", "153056.465000", "153057.252500", "153058.042500", "153058.830000", "153059.617500", "153100.405000", "153101.195000", "153101.982500", "153102.770000", "153103.557500", "153104.347500", "153105.135000", "153105.922500", "153106.712500", "153107.500000", "153108.287500", "153109.075000", "153109.865000", "153110.652500", "153111.440000", "153112.227500", "153113.017500", "153113.805000", "153114.592500", "153115.380000", "153116.170000", "153116.957500", "153117.745000", "153118.532500", "153119.322500", "153120.110000", "153120.897500", "153121.685000", "153122.475000", "153123.262500", "153124.050000", "153124.840000", "153125.627500", "153126.415000", "153127.202500", "153127.992500", "153128.780000", "153129.567500", "153130.355000", "153131.145000", "153131.932500", "153132.720000", "153133.507500", "153134.297500", "153135.085000", "153135.872500", "153136.660000", "153137.450000", "153138.237500", "153139.025000", "153139.812500", "153140.602500", "153141.390000", "153142.177500", "153142.967500", "153143.755000", "153144.542500", "153145.330000", "153146.120000", "153146.907500", "153147.695000", "153148.482500", "153149.272500", "153150.060000", "153150.847500", "153151.635000", "153152.425000", "153153.212500", "153154.000000", "153154.787500", "153155.577500", "153156.365000", "153157.152500", "153157.940000", "153158.730000", "153159.517500", "153200.305000", "153201.095000", "153201.882500", "153202.670000", "153203.457500", "153204.247500", "153205.035000", "153205.822500", "153206.610000", "153207.400000", "153208.187500", "153208.975000", "153209.762500", "153210.552500", "153211.340000", "153212.127500", "153212.915000", "153213.705000", "153214.492500", "153215.280000", "153216.067500", "153216.857500", "153217.645000", "153218.432500", "153219.222500", "153220.010000", "153220.797500", "153221.585000", "153222.375000", "153223.162500", "153223.950000", "153224.737500", "153225.527500", "153226.315000", "153227.102500", "153227.890000", "153228.680000", "153229.467500", "153230.255000", "153231.042500", "153231.832500", "153232.620000", "153233.407500", "153234.195000", "153234.985000", "153235.772500", "153236.560000", "153237.350000", "153238.137500", "153238.925000", "153239.712500", "153240.502500", "153241.290000", "153242.077500", "153242.865000", "153243.655000", "153244.442500", "153245.230000", "153246.017500", "153246.807500", "153247.595000", "153248.382500", "153249.170000", "153249.960000", "153250.747500", "153251.535000", "153252.322500", "153253.112500", "153253.900000", "153254.687500", "153255.477500", "153256.265000", "153257.052500", "153257.840000", "153258.630000", "153259.417500", "153300.205000", "153300.992500", "153301.782500", "153302.570000", "153303.357500", "153304.145000", "153304.935000", "153305.722500", "153306.510000", "153307.297500", "153308.087500", "153308.875000", "153309.662500", "153310.450000", "153311.240000", "153312.027500", "153312.815000"],
      "ContentTime": ["152613.609000", "152613.609000", "152613.609000", "152613.625000", "152613.625000", "152613.625000", "152613.625000", "152613.625000", "152613.625000", "152613.625000", "152613.625000", "152613.640000", "152613.640000", "152613.640000", "152613.640000", "152613.640000", "152613.640000", "152613.640000", "152613.656000", "152613.656000", "152613.656000", "152613.656000", "152613.656000", "152613.656000", "152613.656000", "152613.656000", "152613.671000", "152613.671000", "152613.671000", "152613.671000", "152613.671000", "152613.687000", "152613.687000", "152613.687000", "152613.687000", "152613.703000", "152613.703000", "152613.703000", "152613.703000", "152613.703000", "152613.703000", "152613.703000", "152613.718000", "152613.718000", "152613.718000", "152633.578000", "152633.578000", "152633.593000", "152633.593000", "152633.593000", "152633.593000", "152633.593000", "152633.609000", "152633.609000", "152633.609000", "152633.609000", "152633.609000", "152633.609000", "152633.609000", "152633.609000", "152633.625000", "152633.625000", "152633.625000", "152633.625000", "152633.625000", "152633.640000", "152633.640000", "152633.640000", "152633.640000", "152633.640000", "152653.578000", "152653.578000", "152653.593000", "152653.593000", "152653.593000", "152653.593000", "152653.593000", "152653.593000", "152653.593000", "152653.609000", "152653.609000", "152653.609000", "152653.609000", "152653.609000", "152653.609000", "152653.609000", "152653.625000", "152653.625000", "152653.625000", "152653.625000", "152653.625000", "152653.625000", "152653.625000", "152653.625000", "152653.640000", "152653.640000", "152713.578000", "152713.578000", "152713.593000", "152713.593000", "152713.593000", "152713.593000", "152713.593000", "152713.593000", "152713.593000", "152713.609000", "152713.609000", "152713.609000", "152713.609000", "152713.609000", "152713.609000", "152713.609000", "152713.609000", "152713.625000", "152713.625000", "152713.625000", "152713.625000", "152713.625000", "152713.625000", "152713.625000", "152713.625000", "152733.578000", "152733.578000", "152733.593000", "152733.593000", "152733.593000", "152733.593000", "152733.593000", "152733.593000", "152733.593000", "152733.609000", "152733.609000", "152733.609000", "152733.609000", "152733.609000", "152733.609000", "152733.609000", "152733.609000", "152733.625000", "152733.625000", "152733.625000", "152733.625000", "152733.625000", "152733.625000", "152733.625000", "152733.640000", "152733.640000", "152753.578000", "152753.593000", "152753.593000", "152753.593000", "152753.593000", "152753.593000", "152753.593000", "152753.593000", "152753.593000", "152753.609000", "152753.609000", "152753.609000", "152753.609000", "152753.609000", "152753.609000", "152753.609000", "152753.609000", "152753.625000", "152753.625000", "152753.625000", "152753.625000", "152753.625000", "152753.625000", "152753.640000", "152753.640000", "152813.578000", "152813.578000", "152813.593000", "152813.593000", "152813.593000", "152813.593000", "152813.593000", "152813.593000", "152813.593000", "152813.609000", "152813.609000", "152813.609000", "152813.609000", "152813.609000", "152813.609000", "152813.609000", "152813.609000", "152813.625000", "152813.625000", "152813.625000", "152813.625000", "152813.625000", "152813.625000", "152813.625000", "152813.640000", "152813.640000", "152833.578000", "152833.578000", "152833.593000", "152833.593000", "152833.593000", "152833.593000", "152833.593000", "152833.593000", "152833.593000", "152833.609000", "152833.609000", "152833.609000", "152833.609000", "152833.609000", "152833.609000", "152833.609000", "152833.609000", "152833.625000", "152833.625000", "152833.625000", "152833.625000", "152833.625000", "152833.625000", "152833.625000", "152833.640000", "152853.578000", "152853.578000", "152853.593000", "152853.593000", "152853.593000", "152853.593000", "152853.593000", "152853.593000", "152853.593000", "152853.609000", "152853.609000", "152853.609000", "152853.609000", "152853.609000", "152853.609000", "152853.609000", "152853.625000", "152853.625000", "152853.625000", "152853.625000", "152853.625000", "152853.625000", "152853.625000", "152853.625000", "152853.640000", "152853.640000", "152913.578000", "152913.578000", "152913.593000", "152913.593000", "152913.593000", "152913.593000", "152913.593000", "152913.593000", "152913.593000", "152913.609000", "152913.609000", "152913.609000", "152913.609000", "152913.609000", "152913.609000", "152913.609000", "152913.609000", "152913.625000", "152913.625000", "152913.625000", "152913.625000", "152913.625000", "152913.625000", "152913.640000", "152913.640000", "152933.578000", "152933.578000", "152933.593000", "152933.593000", "152933.593000", "152933.593000", "152933.593000", "152933.593000", "152933.593000", "152933.609000", "152933.609000", "152933.609000", "152933.609000", "152933.609000", "152933.609000", "152933.609000", "152933.609000", "152933.625000", "152933.625000", "152933.625000", "152933.625000", "152933.625000", "152933.625000", "152933.625000", "152933.640000", "152933.640000", "152953.578000", "152953.578000", "152953.593000", "152953.593000", "152953.593000", "152953.593000", "152953.593000", "152953.593000", "152953.593000", "152953.609000", "152953.609000", "152953.609000", "152953.609000", "152953.609000", "152953.609000", "152953.609000", "152953.625000", "152953.625000", "152953.625000", "152953.625000", "152953.625000", "152953.625000", "152953.625000", "152953.640000", "152953.640000", "153013.578000", "153013.578000", "153013.593000", "153013.593000", "153013.593000", "153013.593000", "153013.593000", "153013.593000", "153013.593000", "153013.609000", "153013.609000", "153013.609000", "153013.609000", "153013.609000", "153013.609000", "153013.609000", "153013.609000", "153013.625000", "153013.625000", "153013.625000", "153013.625000", "153013.625000", "153013.625000", "153013.640000", "153013.640000", "153033.578000", "153033.578000", "153033.593000", "153033.593000", "153033.593000", "153033.593000", "153033.593000", "153033.593000", "153033.593000", "153033.609000", "153033.609000", "153033.609000", "153033.609000", "153033.609000", "153033.609000", "153033.609000", "153033.625000", "153033.625000", "153033.625000", "153033.625000", "153033.625000", "153033.625000", "153033.625000", "153033.625000", "153033.640000", "153033.640000", "153053.578000", "153053.578000", "153053.593000", "153053.593000", "153053.593000", "153053.593000", "153053.593000", "153053.609000", "153053.609000", "153053.609000", "153053.609000", "153053.609000", "153053.609000", "153053.609000", "153053.625000", "153053.625000", "153053.625000", "153053.625000", "153053.625000", "153053.625000", "153053.625000", "153053.625000", "153053.640000", "153053.640000", "153053.640000", "153053.640000", "153113.578000", "153113.578000", "153113.593000", "153113.593000", "153113.593000", "153113.593000", "153113.593000", "153113.593000", "153113.593000", "153113.609000", "153113.609000", "153113.609000", "153113.609000", "153113.609000", "153113.609000", "153113.609000", "153113.609000", "153113.625000", "153113.625000", "153113.625000", "153113.625000", "153113.625000", "153113.625000", "153113.625000", "153113.640000", "153133.578000", "153133.578000", "153133.593000", "153133.593000", "153133.593000", "153133.609000", "153133.609000", "153133.609000", "153133.609000", "153133.609000", "153133.609000", "153133.609000", "153133.609000", "153133.625000", "153133.625000", "153133.625000", "153133.625000", "153133.625000", "153133.625000", "153133.625000", "153133.625000", "153133.640000", "153133.640000", "153133.640000", "153133.640000", "153153.578000", "153153.578000", "153153.593000", "153153.593000", "153153.593000", "153153.593000", "153153.593000", "153153.593000", "153153.593000", "153153.609000", "153153.609000", "153153.609000", "153153.609000", "153153.609000", "153153.625000", "153153.625000", "153153.625000", "153153.625000", "153153.625000", "153153.625000", "153153.640000", "153153.640000", "153153.640000", "153153.640000", "153153.640000", "153153.640000", "153213.578000", "153213.578000", "153213.593000", "153213.593000", "153213.593000", "153213.593000", "153213.593000", "153213.593000", "153213.593000", "153213.609000", "153213.609000", "153213.609000", "153213.609000", "153213.609000", "153213.609000", "153213.625000", "153213.625000", "153213.625000", "153213.625000", "153213.625000", "153213.625000", "153213.625000", "153213.640000", "153213.640000", "153213.640000", "153233.578000", "153233.578000", "153233.593000", "153233.593000", "153233.593000", "153233.593000", "153233.593000", "153233.593000", "153233.593000", "153233.609000", "153233.609000", "153233.609000", "153233.609000", "153233.609000", "153233.609000", "153233.625000", "153233.625000", "153233.625000", "153233.625000", "153233.625000", "153233.640000", "153233.640000", "153233.640000", "153233.640000", "153233.640000", "153233.656000", "153253.578000", "153253.578000", "153253.593000", "153253.593000", "153253.593000", "153253.593000", "153253.593000", "153253.593000", "153253.593000", "153253.609000", "153253.609000", "153253.609000", "153253.609000", "153253.609000", "153253.609000", "153253.609000", "153253.609000", "153253.625000", "153253.625000", "153253.625000", "153253.625000", "153253.625000", "153253.640000", "153253.640000", "153253.640000", "153313.578000", "153313.578000", "153313.593000", "153313.593000", "153313.593000", "153313.593000", "153313.593000", "153313.593000", "153313.593000", "153313.609000", "153313.609000", "153313.609000", "153313.609000", "153313.609000", "153313.609000", "153313.609000", "153313.625000", "153313.625000", "153313.625000", "153313.625000", "153313.625000", "153313.625000", "153313.625000", "153313.625000", "153313.640000", "153313.640000", "153314.125000"],
