{
  "AcquisitionMatrixPE": 104,
  "AcquisitionNumber": 1,
  "AcquisitionTime": "15:42:6.675000",
  "BandwidthPerPixelPhaseEncode": 13.935,
  "BaseResolution": 104,
  "CoilString": "C:HEA;HEP",
  "ConversionSoftware": "dcm2niix",
  "ConversionSoftwareVersion": "v1.0.20210317",
  "DerivedVendorReportedEchoSpacing": 0.000690017,
  "DeviceSerialNumber": "35450",
  "DwellTime": 2.5e-06,
  "EchoTime": 0.0348,
  "EffectiveEchoSpacing": 0.000690017,
  "FlipAngle": 55,
  "ImageComments": "Unaliased MB8/PE3 (remote)",
  "ImageOrientationPatientDICOM": [1, 0, 0, 0, 0.997441, -0.0714974],
  "ImageType": [
    "ORIGINAL",
    "PRIMARY",
    "M",
    "MB",
    "ND",
    "MOSAIC"
],
  "ImagingFrequency": 123.235,
  "InPlanePhaseEncodingDirectionDICOM": "COL",
  "InstitutionAddress": "Univeristy Ave. 197,Newark,North East,US,07102-1814",
  "InstitutionName": "RUBIC",
  "InstitutionalDepartmentName": "Department",
  "MRAcquisitionType": "2D",
  "MagneticFieldStrength": 3,
  "Manufacturer": "Siemens",
  "ManufacturersModelName": "TrioTim",
  "Modality": "MR",
  "MultibandAccelerationFactor": 8,
  "PartialFourier": 0.875,
  "PatientPosition": "HFS",
  "PercentPhaseFOV": 100,
  "PercentSampling": 100,
  "PhaseEncodingDirection": "j-",
  "PhaseEncodingSteps": 91,
  "PhaseResolution": 1,
  "PixelBandwidth": 1923,
  "ProcedureStepDescription": "Cole^Michael",
  "ProtocolName": "cmrr_mbep2d_bold_2mm_MB8_Task_8x",
  "PulseSequenceDetails": "%CustomerSeq%\\cmrr_mbep2d_bold",
  "ReceiveCoilName": "32Ch_Head",
  "ReconMatrixPE": 104,
  "RepetitionTime": 0.785,
  "SAR": 0.133088,
  "ScanOptions": "PFP\\FS",
  "ScanningSequence": "EP",
  "SequenceName": "epfid2d1_104",
  "SequenceVariant": "SK\\SS",
  "SeriesDescription": "cmrr_mbep2d_bold_2mm_MB8_Task_8x",
  "SeriesNumber": 25,
  "ShimSetting": [2055, -414, -7357, 689, -125, -105, 110, 58],
  "SliceThickness": 2,
  "SliceTiming": [0, 0.4375, 0.0875, 0.525, 0.175, 0.6125, 0.2625, 0.7, 0.35, 0, 0.4375, 0.0875, 0.525, 0.175, 0.6125, 0.2625, 0.7, 0.35, 0, 0.4375, 0.0875, 0.525, 0.175, 0.6125, 0.2625, 0.7, 0.35, 0, 0.4375, 0.0875, 0.525, 0.175, 0.6125, 0.2625, 0.7, 0.35, 0, 0.4375, 0.0875, 0.525, 0.175, 0.6125, 0.2625, 0.7, 0.35, 0, 0.4375, 0.0875, 0.525, 0.175, 0.6125, 0.2625, 0.7, 0.35, 0, 0.4375, 0.0875, 0.525, 0.175, 0.6125, 0.2625, 0.7, 0.35, 0, 0.4375, 0.0875, 0.525, 0.175, 0.6125, 0.2625, 0.7, 0.35],
  "SoftwareVersions": "syngo MR B19",
  "SpacingBetweenSlices": 2,
  "StationName": "MRC35450",
  "TaskName": "cpro",
  "TotalReadoutTime": 0.0710717,
  "TxRefAmp": 336.027,
  "dcmmeta_affine": [
    [-2.0, 0.0, 0.0, 105.3559341430664],
    [0.0, 1.994881510734558, -0.14299488067626953, -84.51736450195312],
    [0.0, 0.14299488067626953, 1.994881510734558, -99.18609619140625],
    [0.0, 0.0, 0.0, 1.0]
],
  "dcmmeta_reorient_transform": [
    [0.0, -1.0, 0.0, 103.0],
    [1.0, 0.0, 0.0, 0.0],
    [0.0, 0.0, 1.0, 0.0],
    [0.0, 0.0, 0.0, 1.0]
],
  "dcmmeta_shape": [104, 104, 72, 581],
  "dcmmeta_slice_dim": 2,
  "dcmmeta_version": 0.6,
  "global": {
    "const": {
      "AcquisitionMatrix": [104, 0, 0, 104],
      "AngioFlag": "N",
      "BitsAllocated": 16,
      "BitsStored": 12,
      "Columns": 936,
      "EchoNumbers": 1,
      "EchoTime": 34.8,
      "EchoTrainLength": 1,
      "FlipAngle": 55.0,
      "HighBit": 11,
      "ImageOrientationPatient": [1.0, 0.0, 0.0, 0.0, 0.99744078313723, -0.0714974414548],
      "ImagePositionPatient": [-937.35593223572, -950.82617068796, -24.971751121524],
      "ImageType": [
        "ORIGINAL",
        "PRIMARY",
        "M",
        "MB",
        "ND",
        "MOSAIC"
],
      "ImagedNucleus": "1H",
      "ImagingFrequency": 123.234508,
      "InPlanePhaseEncodingDirection": "COL",
      "MRAcquisitionType": "2D",
      "MagneticFieldStrength": 3.0,
      "Manufacturer": "SIEMENS",
      "ManufacturerModelName": "TrioTim",
      "Modality": "MR",
      "NumberOfAverages": 1.0,
      "NumberOfPhaseEncodingSteps": 91,
      "PercentPhaseFieldOfView": 100.0,
      "PercentSampling": 100.0,
      "PerformedProcedureStepStartTime": "134158.921000",
      "PhotometricInterpretation": "MONOCHROME2",
      "PixelBandwidth": 1923.0,
      "PixelRepresentation": 0,
      "PixelSpacing": [2.0, 2.0],
      "ProtocolName": "cmrr_mbep2d_bold_2mm_MB8_Task_8x",
      "RepetitionTime": 785.0,
      "Rows": 936,
      "SAR": 0.13308794595066,
      "SamplesPerPixel": 1,
      "ScanOptions": [
        "PFP",
        "FS"
],
      "ScanningSequence": "EP",
      "SequenceName": "epfid2d1_104",
      "SequenceVariant": [
        "SK",
        "SS"
],
      "SeriesDescription": "cmrr_mbep2d_bold_2mm_MB8_Task_8x",
      "SeriesNumber": 25,
      "SeriesTime": "154241.406000",
      "SliceLocation": -92.889481467441,
      "SliceThickness": 2.0,
      "SmallestImagePixelValue": 0,
      "SoftwareVersions": "syngo MR B19",
      "SpacingBetweenSlices": 1.9999999705235,
      "SpecificCharacterSet": "ISO_IR 100",
      "StudyID": "1",
      "StudyTime": "134158.875000",
      "TransmitCoilName": "Body",
      "VariableFlipAngleFlag": "N",
      "WindowCenterWidthExplanation": "Algo1",
      "dBdt": 0.0},
    "slices": {}
  },
  "time": {
    "samples": {
      "AcquisitionNumber": [1, 2, 3, 4, 5, 6, 7, 8, 9, 10, 11, 12, 13, 14, 15, 16, 17, 18, 19, 20, 21, 22, 23, 24, 25, 26, 27, 28, 29, 30, 31, 32, 33, 34, 35, 36, 37, 38, 39, 40, 41, 42, 43, 44, 45, 46, 47, 48, 49, 50, 51, 52, 53, 54, 55, 56, 57, 58, 59, 60, 61, 62, 63, 64, 65, 66, 67, 68, 69, 70, 71, 72, 73, 74, 75, 76, 77, 78, 79, 80, 81, 82, 83, 84, 85, 86, 87, 88, 89, 90, 91, 92, 93, 94, 95, 96, 97, 98, 99, 100, 101, 102, 103, 104, 105, 106, 107, 108, 109, 110, 111, 112, 113, 114, 115, 116, 117, 118, 119, 120, 121, 122, 123, 124, 125, 126, 127, 128, 129, 130, 131, 132, 133, 134, 135, 136, 137, 138, 139, 140, 141, 142, 143, 144, 145, 146, 147, 148, 149, 150, 151, 152, 153, 154, 155, 156, 157, 158, 159, 160, 161, 162, 163, 164, 165, 166, 167, 168, 169, 170, 171, 172, 173, 174, 175, 176, 177, 178, 179, 180, 181, 182, 183, 184, 185, 186, 187, 188, 189, 190, 191, 192, 193, 194, 195, 196, 197, 198, 199, 200, 201, 202, 203, 204, 205, 206, 207, 208, 209, 210, 211, 212, 213, 214, 215, 216, 217, 218, 219, 220, 221, 222, 223, 224, 225, 226, 227, 228, 229, 230, 231, 232, 233, 234, 235, 236, 237, 238, 239, 240, 241, 242, 243, 244, 245, 246, 247, 248, 249, 250, 251, 252, 253, 254, 255, 256, 257, 258, 259, 260, 261, 262, 263, 264, 265, 266, 267, 268, 269, 270, 271, 272, 273, 274, 275, 276, 277, 278, 279, 280, 281, 282, 283, 284, 285, 286, 287, 288, 289, 290, 291, 292, 293, 294, 295, 296, 297, 298, 299, 300, 301, 302, 303, 304, 305, 306, 307, 308, 309, 310, 311, 312, 313, 314, 315, 316, 317, 318, 319, 320, 321, 322, 323, 324, 325, 326, 327, 328, 329, 330, 331, 332, 333, 334, 335, 336, 337, 338, 339, 340, 341, 342, 343, 344, 345, 346, 347, 348, 349, 350, 351, 352, 353, 354, 355, 356, 357, 358, 359, 360, 361, 362, 363, 364, 365, 366, 367, 368, 369, 370, 371, 372, 373, 374, 375, 376, 377, 378, 379, 380, 381, 382, 383, 384, 385, 386, 387, 388, 389, 390, 391, 392, 393, 394, 395, 396, 397, 398, 399, 400, 401, 402, 403, 404, 405, 406, 407, 408, 409, 410, 411, 412, 413, 414, 415, 416, 417, 418, 419, 420, 421, 422, 423, 424, 425, 426, 427, 428, 429, 430, 431, 432, 433, 434, 435, 436, 437, 438, 439, 440, 441, 442, 443, 444, 445, 446, 447, 448, 449, 450, 451, 452, 453, 454, 455, 456, 457, 458, 459, 460, 461, 462, 463, 464, 465, 466, 467, 468, 469, 470, 471, 472, 473, 474, 475, 476, 477, 478, 479, 480, 481, 482, 483, 484, 485, 486, 487, 488, 489, 490, 491, 492, 493, 494, 495, 496, 497, 498, 499, 500, 501, 502, 503, 504, 505, 506, 507, 508, 509, 510, 511, 512, 513, 514, 515, 516, 517, 518, 519, 520, 521, 522, 523, 524, 525, 526, 527, 528, 529, 530, 531, 532, 533, 534, 535, 536, 537, 538, 539, 540, 541, 542, 543, 544, 545, 546, 547, 548, 549, 550, 551, 552, 553, 554, 555, 556, 557, 558, 559, 560, 561, 562, 563, 564, 565, 566, 567, 568, 569, 570, 571, 572, 573, 574, 575, 576, 577, 578, 579, 580, 581],
      "AcquisitionTime": ["154206.675000", "154207.462500", "154208.250000", "154209.040000", "154209.827500", "154210.615000", "154211.402500", "154212.192500", "154212.980000", "154213.767500", "154214.555000", "154215.345000", "154216.132500", "154216.920000", "154217.707500", "154218.497500", "154219.285000", "154220.072500", "154220.860000", "154221.650000", "154222.437500", "154223.225000", "154224.012500", "154224.802500", "154225.590000", "154226.377500", "154227.167500", "154227.955000", "154228.742500", "154229.530000", "154230.320000", "154231.107500", "154231.895000", "154232.682500", "154233.472500", "154234.260000", "154235.047500", "154235.835000", "154236.625000", "154237.412500", "154238.200000", "154238.987500", "154239.777500", "154240.565000", "154241.352500", "154242.140000", "154242.930000", "154243.717500", "154244.505000", "154245.295000", "154246.082500", "154246.870000", "154247.657500", "154248.447500", "154249.235000", "154250.022500", "154250.810000", "154251.600000", "154252.387500", "154253.175000", "154253.962500", "154254.752500", "154255.540000", "154256.327500", "154257.115000", "154257.905000", "154258.692500", "154259.480000", "154300.267500", "154301.057500", "154301.845000", "154302.632500", "154303.422500", "154304.210000", "154304.997500", "154305.785000", "154306.575000", "154307.362500", "154308.150000", "154308.937500", "154309.727500", "154310.515000", "154311.302500", "154312.090000", "154312.880000", "154313.667500", "154314.455000", "154315.242500", "154316.032500", "154316.820000", "154317.607500", "154318.395000", "154319.185000", "154319.972500", "154320.760000", "154321.550000", "154322.337500", "154323.125000", "154323.912500", "154324.702500", "154325.490000", "154326.277500", "154327.065000", "154327.855000", "154328.642500", "154329.430000", "154330.217500", "154331.007500", "154331.795000", "154332.582500", "154333.370000", "154334.160000", "154334.947500", "154335.735000", "154336.522500", "154337.312500", "154338.100000", "154338.887500", "154339.677500", "154340.465000", "154341.252500", "154342.040000", "154342.830000", "154343.617500", "154344.405000", "154345.192500", "154345.982500", "154346.770000", "154347.557500", "154348.345000", "154349.135000", "154349.922500", "154350.710000", "154351.497500", "154352.287500", "154353.075000", "154353.862500", "154354.650000", "154355.440000", "154356.227500", "154357.015000", "154357.805000", "154358.592500", "154359.380000", "154400.167500", "154400.957500", "154401.745000", "154402.532500", "154403.320000", "154404.110000", "154404.897500", "154405.685000", "154406.472500", "154407.262500", "154408.050000", "154408.837500", "154409.625000", "154410.415000", "154411.202500", "154411.990000", "154412.777500", "154413.567500", "154414.355000", "154415.142500", "154415.932500", "154416.720000", "154417.507500", "154418.295000", "154419.085000", "154419.872500", "154420.660000", "154421.447500", "154422.237500", "154423.025000", "154423.812500", "154424.600000", "154425.390000", "154426.177500", "154426.965000", "154427.752500", "154428.542500", "154429.330000", "154430.117500", "154430.905000", "154431.695000", "154432.482500", "154433.270000", "154434.060000", "154434.847500", "154435.635000", "154436.422500", "154437.212500", "154438.000000", "154438.787500", "154439.575000", "154440.365000", "154441.152500", "154441.940000", "154442.727500", "154443.517500", "154444.305000", "154445.092500", "154445.880000", "154446.670000", "154447.457500", "154448.245000", "154449.035000", "154449.822500", "154450.610000", "154451.397500", "154452.187500", "154452.975000", "154453.762500", "154454.550000", "154455.340000", "154456.127500", "154456.915000", "154457.702500", "154458.492500", "154459.280000", "154500.067500", "154500.855000", "154501.645000", "154502.432500", "154503.220000", "154504.007500", "154504.797500", "154505.585000", "154506.372500", "154507.162500", "154507.950000", "154508.737500", "154509.525000", "154510.315000", "154511.102500", "154511.890000", "154512.677500", "154513.467500", "154514.255000", "154515.042500", "154515.830000", "154516.620000", "154517.407500", "154518.195000", "154518.982500", "154519.772500", "154520.560000", "154521.347500", "154522.135000", "154522.925000", "154523.712500", "154524.500000", "154525.290000", "154526.077500", "154526.865000", "154527.652500", "154528.442500", "154529.230000", "154530.017500", "154530.805000", "154531.595000", "154532.382500", "154533.170000", "154533.957500", "154534.747500", "154535.535000", "154536.322500", "154537.110000", "154537.900000", "154538.687500", "154539.475000", "154540.262500", "154541.052500", "154541.840000", "154542.627500", "154543.417500", "154544.205000", "154544.992500", "154545.780000", "154546.570000", "154547.357500", "154548.145000", "154548.932500", "154549.722500", "154550.510000", "154551.297500", "154552.085000", "154552.875000", "154553.662500", "154554.450000", "154555.237500", "154556.027500", "154556.815000", "154557.602500", "154558.390000", "154559.180000", "154559.967500", "154600.755000", "154601.545000", "154602.332500", "154603.120000", "154603.907500", "154604.697500", "154605.485000", "154606.272500", "154607.060000", "154607.850000", "154608.637500", "154609.425000", "154610.212500", "154611.002500", "154611.790000", "154612.577500", "154613.365000", "154614.155000", "154614.942500", "154615.730000", "154616.517500", "154617.307500", "154618.095000", "154618.882500", "154619.672500", "154620.460000", "154621.247500", "154622.035000", "154622.825000", "154623.612500", "154624.400000", "154625.187500", "154625.977500", "154626.765000", "154627.552500", "154628.340000", "154629.130000", "154629.917500", "154630.705000", "154631.492500", "154632.282500", "154633.070000", "154633.857500", "154634.645000", "154635.435000", "154636.222500", "154637.010000", "154637.800000", "154638.587500", "154639.375000", "154640.162500", "154640.952500", "154641.740000", "154642.527500", "154643.315000", "154644.105000", "154644.892500", "154645.680000", "154646.467500", "154647.257500", "154648.045000", "154648.832500", "154649.620000", "154650.410000", "154651.197500", "154651.985000", "154652.772500", "154653.562500", "154654.350000", "154655.137500", "154655.927500", "154656.715000", "154657.502500", "154658.290000", "154659.080000", "154659.867500", "154700.655000", "154701.442500", "154702.232500", "154703.020000", "154703.807500", "154704.595000", "154705.385000", "154706.172500", "154706.960000", "154707.747500", "154708.537500", "154709.325000", "154710.112500", "154710.900000", "154711.690000", "154712.477500", "154713.265000", "154714.055000", "154714.842500", "154715.630000", "154716.417500", "154717.207500", "154717.995000", "154718.782500", "154719.570000", "154720.360000", "154721.147500", "154721.935000", "154722.722500", "154723.512500", "154724.300000", "154725.087500", "154725.875000", "154726.665000", "154727.452500", "154728.240000", "154729.027500", "154729.817500", "154730.605000", "154731.392500", "154732.182500", "154732.970000", "154733.757500", "154734.545000", "154735.335000", "154736.122500", "154736.910000", "154737.697500", "154738.487500", "154739.275000", "154740.062500", "154740.850000", "154741.640000", "154742.427500", "154743.215000", "154744.002500", "154744.792500", "154745.580000", "154746.367500", "154747.155000", "154747.945000", "154748.732500", "154749.520000", "154750.310000", "154751.097500", "154751.885000", "154752.672500", "154753.462500", "154754.250000", "154755.037500", "154755.825000", "154756.615000", "154757.402500", "154758.190000", "154758.977500", "154759.767500", "154800.555000", "154801.342500", "154802.130000", "154802.920000", "154803.707500", "154804.495000", "154805.285000", "154806.072500", "154806.860000", "154807.647500", "154808.437500", "154809.225000", "154810.012500", "154810.800000", "154811.590000", "154812.377500", "154813.165000", "154813.952500", "154814.742500", "154815.530000", "154816.317500", "154817.105000", "154817.895000", "154818.682500", "154819.470000", "154820.257500", "154821.047500", "154821.835000", "154822.622500", "154823.412500", "154824.200000", "154824.987500", "154825.775000", "154826.565000", "154827.352500", "154828.140000", "154828.927500", "154829.717500", "154830.505000", "154831.292500", "154832.080000", "154832.870000", "154833.657500", "154834.445000", "154835.232500", "154836.022500", "154836.810000", "154837.597500", "154838.385000", "154839.175000", "154839.962500", "154840.750000", "154841.540000", "154842.327500", "154843.115000", "154843.902500", "154844.692500", "154845.480000", "154846.267500", "154847.055000", "154847.845000", "154848.632500", "154849.420000", "154850.207500", "154850.997500", "154851.785000", "154852.572500", "154853.360000", "154854.150000", "154854.937500", "154855.725000", "154856.512500", "154857.302500", "154858.090000", "154858.877500", "154859.667500", "154900.455000", "154901.242500", "154902.030000", "154902.820000", "154903.607500", "154904.395000", "154905.182500", "154905.972500", "154906.760000", "154907.547500", "154908.335000", "154909.125000", "154909.912500", "154910.700000", "154911.487500", "154912.277500", "154913.065000", "154913.852500", "154914.640000", "154915.430000", "154916.217500", "154917.005000", "154917.795000", "154918.582500", "154919.370000", "154920.157500", "154920.947500", "154921.735000", "154922.522500", "154923.310000", "154924.100000", "154924.887500", "154925.675000", "154926.462500", "154927.252500", "154928.040000", "154928.827500", "154929.615000", "154930.405000", "154931.192500", "154931.980000", "154932.767500", "154933.557500", "154934.345000", "154935.132500", "154935.922500", "154936.710000", "154937.497500", "154938.285000", "154939.075000", "154939.862500", "154940.650000", "154941.437500", "154942.227500", "154943.015000", "154943.802500"],
      "ContentTime": ["154241.406000", "154241.406000", "154241.406000", "154241.406000", "154241.406000", "154241.421000", "154241.421000", "154241.421000", "154241.421000", "154241.421000", "154241.421000", "154241.421000", "154241.437000", "154241.437000", "154241.437000", "154241.437000", "154241.437000", "154241.437000", "154241.437000", "154241.437000", "154241.453000", "154241.453000", "154241.453000", "154241.453000", "154241.453000", "154241.468000", "154241.468000", "154241.468000", "154241.468000", "154241.468000", "154241.468000", "154241.484000", "154241.484000", "154241.484000", "154241.484000", "154241.484000", "154241.484000", "154241.484000", "154241.500000", "154241.500000", "154301.375000", "154301.375000", "154301.390000", "154301.390000", "154301.390000", "154301.390000", "154301.390000", "154301.390000", "154301.390000", "154301.406000", "154301.406000", "154301.406000", "154301.406000", "154301.406000", "154301.406000", "154301.421000", "154301.421000", "154301.421000", "154301.421000", "154301.421000", "154301.421000", "154301.421000", "154301.437000", "154301.437000", "154301.437000", "154321.375000", "154321.375000", "154321.390000", "154321.390000", "154321.390000", "154321.390000", "154321.390000", "154321.390000", "154321.390000", "154321.406000", "154321.406000", "154321.406000", "154321.406000", "154321.406000", "154321.406000", "154321.406000", "154321.406000", "154321.421000", "154321.421000", "154321.421000", "154321.421000", "154321.421000", "154321.421000", "154321.421000", "154321.437000", "154321.437000", "154341.375000", "154341.375000", "154341.390000", "154341.390000", "154341.390000", "154341.390000", "154341.390000", "154341.390000", "154341.390000", "154341.406000", "154341.406000", "154341.406000", "154341.406000", "154341.406000", "154341.406000", "154341.406000", "154341.406000", "154341.421000", "154341.421000", "154341.421000", "154341.421000", "154341.437000", "154341.437000", "154341.437000", "154341.437000", "154401.375000", "154401.375000", "154401.390000", "154401.390000", "154401.390000", "154401.390000", "154401.390000", "154401.390000", "154401.390000", "154401.406000", "154401.406000", "154401.406000", "154401.406000", "154401.406000", "154401.406000", "154401.406000", "154401.421000", "154401.421000", "154401.421000", "154401.421000", "154401.421000", "154401.421000", "154401.421000", "154401.421000", "154401.437000", "154401.437000", "154421.375000", "154421.375000", "154421.390000", "154421.390000", "154421.390000", "154421.390000", "154421.390000", "154421.390000", "154421.390000", "154421.406000", "154421.406000", "154421.406000", "154421.406000", "154421.406000", "154421.406000", "154421.406000", "154421.406000", "154421.421000", "154421.421000", "154421.421000", "154421.421000", "154421.421000", "154421.421000", "154421.421000", "154421.437000", "154441.375000", "154441.375000", "154441.390000", "154441.390000", "154441.390000", "154441.390000", "154441.390000", "154441.390000", "154441.390000", "154441.406000", "154441.406000", "154441.406000", "154441.406000", "154441.406000", "154441.406000", "154441.406000", "154441.406000", "154441.421000", "154441.421000", "154441.421000", "154441.421000", "154441.421000", "154441.437000", "154441.437000", "154441.437000", "154441.437000", "154501.375000", "154501.375000", "154501.390000", "154501.390000", "154501.390000", "154501.390000", "154501.390000", "154501.390000", "154501.390000", "154501.406000", "154501.406000", "154501.406000", "154501.406000", "154501.406000", "154501.406000", "154501.406000", "154501.406000", "154501.421000", "154501.421000", "154501.421000", "154501.421000", "154501.421000", "154501.421000", "154501.421000", "154501.437000", "154521.375000", "154521.390000", "154521.390000", "154521.390000", "154521.390000", "154521.390000", "154521.390000", "154521.390000", "154521.406000", "154521.406000", "154521.406000", "154521.406000", "154521.406000", "154521.406000", "154521.421000", "154521.421000", "154521.421000", "154521.421000", "154521.421000", "154521.421000", "154521.421000", "154521.437000", "154521.437000", "154521.437000", "154521.437000", "154521.437000", "154541.375000", "154541.375000", "154541.390000", "154541.390000", "154541.390000", "154541.390000", "154541.390000", "154541.390000", "154541.390000", "154541.406000", "154541.406000", "154541.406000", "154541.406000", "154541.406000", "154541.421000", "154541.421000", "154541.421000", "154541.421000", "154541.421000", "154541.421000", "154541.421000", "154541.421000", "154541.437000", "154541.437000", "154541.437000", "154601.375000", "154601.375000", "154601.390000", "154601.390000", "154601.390000", "154601.390000", "154601.390000", "154601.390000", "154601.390000", "154601.406000", "154601.406000", "154601.406000", "154601.406000", "154601.421000", "154601.421000", "154601.421000", "154601.421000", "154601.421000", "154601.421000", "154601.421000", "154601.421000", "154601.437000", "154601.437000", "154601.437000", "154601.437000", "154601.437000", "154621.375000", "154621.375000", "154621.390000", "154621.390000", "154621.390000", "154621.390000", "154621.390000", "154621.390000", "154621.390000", "154621.406000", "154621.406000", "154621.406000", "154621.406000", "154621.406000", "154621.406000", "154621.406000", "154621.421000", "154621.421000", "154621.421000", "154621.421000", "154621.421000", "154621.421000", "154621.421000", "154621.421000", "154621.437000", "154641.375000", "154641.375000", "154641.390000", "154641.390000", "154641.390000", "154641.390000", "154641.390000", "154641.390000", "154641.390000", "154641.406000", "154641.406000", "154641.406000", "154641.406000", "154641.406000", "154641.406000", "154641.406000", "154641.406000", "154641.421000", "154641.421000", "154641.421000", "154641.421000", "154641.421000", "154641.421000", "154641.421000", "154641.437000", "154701.375000", "154701.375000", "154701.390000", "154701.390000", "154701.390000", "154701.390000", "154701.390000", "154701.390000", "154701.390000", "154701.406000", "154701.406000", "154701.406000", "154701.406000", "154701.406000", "154701.406000", "154701.406000", "154701.406000", "154701.421000", "154701.421000", "154701.421000", "154701.421000", "154701.421000", "154701.421000", "154701.421000", "154701.437000", "154701.437000", "154721.375000", "154721.390000", "154721.390000", "154721.390000", "154721.390000", "154721.406000", "154721.406000", "154721.406000", "154721.406000", "154721.421000", "154721.421000", "154721.421000", "154721.421000", "154721.421000", "154721.421000", "154721.421000", "154721.437000", "154721.437000", "154721.437000", "154721.437000", "154721.437000", "154721.437000", "154721.437000", "154721.437000", "154721.453000", "154741.375000", "154741.375000", "154741.390000", "154741.390000", "154741.390000", "154741.390000", "154741.390000", "154741.390000", "154741.406000", "154741.406000", "154741.406000", "154741.406000", "154741.421000", "154741.421000", "154741.421000", "154741.421000", "154741.421000", "154741.421000", "154741.421000", "154741.437000", "154741.437000", "154741.437000", "154741.437000", "154741.437000", "154741.437000", "154741.437000", "154801.375000", "154801.375000", "154801.390000", "154801.390000", "154801.390000", "154801.390000", "154801.390000", "154801.390000", "154801.390000", "154801.406000", "154801.406000", "154801.406000", "154801.406000", "154801.421000", "154801.421000", "154801.421000", "154801.421000", "154801.421000", "154801.421000", "154801.421000", "154801.421000", "154801.437000", "154801.437000", "154801.437000", "154801.437000", "154821.375000", "154821.375000", "154821.390000", "154821.390000", "154821.390000", "154821.390000", "154821.390000", "154821.390000", "154821.390000", "154821.406000", "154821.406000", "154821.406000", "154821.406000", "154821.406000", "154821.406000", "154821.406000", "154821.406000", "154821.421000", "154821.421000", "154821.421000", "154821.421000", "154821.421000", "154821.421000", "154821.437000", "154821.437000", "154821.437000", "154841.375000", "154841.375000", "154841.390000", "154841.390000", "154841.390000", "154841.390000", "154841.390000", "154841.390000", "154841.390000", "154841.406000", "154841.406000", "154841.406000", "154841.406000", "154841.406000", "154841.406000", "154841.406000", "154841.421000", "154841.421000", "154841.421000", "154841.421000", "154841.421000", "154841.421000", "154841.421000", "154841.437000", "154841.437000", "154901.375000", "154901.390000", "154901.390000", "154901.390000", "154901.390000", "154901.390000", "154901.390000", "154901.390000", "154901.390000", "154901.406000", "154901.406000", "154901.406000", "154901.406000", "154901.406000", "154901.406000", "154901.406000", "154901.421000", "154901.421000", "154901.421000", "154901.421000", "154901.421000", "154901.421000", "154901.421000", "154901.437000", "154901.437000", "154901.437000", "154921.375000", "154921.390000", "154921.390000", "154921.390000", "154921.390000", "154921.390000", "154921.390000", "154921.390000", "154921.390000", "154921.406000", "154921.406000", "154921.406000", "154921.406000", "154921.406000", "154921.406000", "154921.406000", "154921.421000", "154921.421000", "154921.421000", "154921.421000", "154921.421000", "154921.421000", "154921.421000", "154921.437000", "154921.437000", "154941.375000", "154941.375000", "154941.390000", "154941.390000", "154941.390000", "154941.390000", "154941.390000", "154941.390000", "154941.390000", "154941.406000", "154941.406000", "154941.406000", "154941.406000", "154941.406000", "154941.406000", "154941.406000", "154941.421000", "154941.421000", "154941.421000", "154941.421000", "154941.421000", "154941.421000", "154941.421000", "154941.437000", "154941.437000", "154941.437000", "154945.890000", "154945.890000", "154945.890000", "154945.890000", "154945.890000", "154945.906000"],
