{
  "AcquisitionMatrixPE": 104,
  "AcquisitionNumber": 1,
  "AcquisitionTime": "15:25:37.740000",
  "BandwidthPerPixelPhaseEncode": 13.935,
  "BaseResolution": 104,
  "CoilString": "C:HEA;HEP",
  "ConversionSoftware": "dcm2niix",
  "ConversionSoftwareVersion": "v1.0.20210317",
  "DerivedVendorReportedEchoSpacing": 0.000690017,
  "DeviceSerialNumber": "35450",
  "DwellTime": 2.5e-06,
  "EchoTime": 0.0348,
  "EffectiveEchoSpacing": 0.000690017,
  "FlipAngle": 55,
  "ImageComments": "Unaliased MB8/PE3 (remote)",
  "ImageOrientationPatientDICOM": [0.999783, 0.002393, 0.0206772, -4.1966e-08, 0.99337, -0.114962],
  "ImageType": [
    "ORIGINAL",
    "PRIMARY",
    "M",
    "MB",
    "ND",
    "MOSAIC"
],
  "ImagingFrequency": 123.235,
  "InPlanePhaseEncodingDirectionDICOM": "COL",
  "InstitutionAddress": "Univeristy Ave. 197,Newark,North East,US,07102-1814",
  "InstitutionName": "RUBIC",
  "InstitutionalDepartmentName": "Department",
  "MRAcquisitionType": "2D",
  "MagneticFieldStrength": 3,
  "Manufacturer": "Siemens",
  "ManufacturersModelName": "TrioTim",
  "Modality": "MR",
  "MultibandAccelerationFactor": 8,
  "PartialFourier": 0.875,
  "PatientPosition": "HFS",
  "PercentPhaseFOV": 100,
  "PercentSampling": 100,
  "PhaseEncodingDirection": "j-",
  "PhaseEncodingSteps": 91,
  "PhaseResolution": 1,
  "PixelBandwidth": 1923,
  "ProcedureStepDescription": "Cole^Michael",
  "ProtocolName": "cmrr_mbep2d_bold_2mm_MB8_Task_8x",
  "PulseSequenceDetails": "%CustomerSeq%\\cmrr_mbep2d_bold",
  "ReceiveCoilName": "32Ch_Head",
  "ReconMatrixPE": 104,
  "RepetitionTime": 0.785,
  "SAR": 0.146493,
  "ScanOptions": "PFP\\FS",
  "ScanningSequence": "EP",
  "SequenceName": "epfid2d1_104",
  "SequenceVariant": "SK\\SS",
  "SeriesDescription": "cmrr_mbep2d_bold_2mm_MB8_Task_8x",
  "SeriesNumber": 21,
  "ShimSetting": [2127, -474, -7292, 383, -170, 197, 273, 118],
  "SliceThickness": 2,
  "SliceTiming": [0, 0.4375, 0.0875, 0.525, 0.175, 0.6125, 0.2625, 0.7, 0.35, 0, 0.4375, 0.0875, 0.525, 0.175, 0.6125, 0.2625, 0.7, 0.35, 0, 0.4375, 0.0875, 0.525, 0.175, 0.6125, 0.2625, 0.7, 0.35, 0, 0.4375, 0.0875, 0.525, 0.175, 0.6125, 0.2625, 0.7, 0.35, 0, 0.4375, 0.0875, 0.525, 0.175, 0.6125, 0.2625, 0.7, 0.35, 0, 0.4375, 0.0875, 0.525, 0.175, 0.6125, 0.2625, 0.7, 0.35, 0, 0.4375, 0.0875, 0.525, 0.175, 0.6125, 0.2625, 0.7, 0.35, 0, 0.4375, 0.0875, 0.525, 0.175, 0.6125, 0.2625, 0.7, 0.35],
  "SoftwareVersions": "syngo MR B19",
  "SpacingBetweenSlices": 2,
  "StationName": "MRC35450",
  "TaskName": "cpro",
  "TotalReadoutTime": 0.0710717,
  "TxRefAmp": 375.095,
  "dcmmeta_affine": [
    [-1.999566674232483, -8.393190142896856e-08, 0.04163039103150368, 103.91261291503906],
    [-0.0047859917394816875, 1.9867397546768188, -0.22987395524978638, -79.6429443359375],
    [0.04135436937212944, 0.2299237698316574, 1.986309289932251, -111.92595672607422],
    [0.0, 0.0, 0.0, 1.0]
],
  "dcmmeta_reorient_transform": [
    [0.0, -1.0, 0.0, 103.0],
    [1.0, 0.0, 0.0, 0.0],
    [0.0, 0.0, 1.0, 0.0],
    [0.0, 0.0, 0.0, 1.0]
],
  "dcmmeta_shape": [104, 104, 72, 581],
  "dcmmeta_slice_dim": 2,
  "dcmmeta_version": 0.6,
  "global": {
    "const": {
      "AcquisitionMatrix": [104, 0, 0, 104],
      "AngioFlag": "N",
      "BitsAllocated": 16,
      "BitsStored": 12,
      "Columns": 936,
      "EchoNumbers": 1,
      "EchoTime": 34.8,
      "EchoTrainLength": 1,
      "FlipAngle": 55.0,
      "HighBit": 11,
      "ImageOrientationPatient": [0.99978334032622, 0.00239299597315, 0.02067718492516, -4.1965952e-08, 0.99336990304176, -0.1149618881665],
      "ImagePositionPatient": [-935.7323059229, -953.46598876116, -9.7989333544987],
      "ImageType": [
        "ORIGINAL",
        "PRIMARY",
        "M",
        "MB",
        "ND",
        "MOSAIC"
],
      "ImagedNucleus": "1H",
      "ImagingFrequency": 123.234585,
      "InPlanePhaseEncodingDirection": "COL",
      "MRAcquisitionType": "2D",
      "MagneticFieldStrength": 3.0,
      "Manufacturer": "SIEMENS",
      "ManufacturerModelName": "TrioTim",
      "Modality": "MR",
      "NumberOfAverages": 1.0,
      "NumberOfPhaseEncodingSteps": 91,
      "PercentPhaseFieldOfView": 100.0,
      "PercentSampling": 100.0,
      "PerformedProcedureStepStartTime": "135809.109000",
      "PhotometricInterpretation": "MONOCHROME2",
      "PixelBandwidth": 1923.0,
      "PixelRepresentation": 0,
      "PixelSpacing": [2.0, 2.0],
      "ProtocolName": "cmrr_mbep2d_bold_2mm_MB8_Task_8x",
      "RepetitionTime": 785.0,
      "Rows": 936,
      "SAR": 0.14649333055632,
      "SamplesPerPixel": 1,
      "ScanOptions": [
        "PFP",
        "FS"
],
      "ScanningSequence": "EP",
      "SequenceName": "epfid2d1_104",
      "SequenceVariant": [
        "SK",
        "SS"
],
      "SeriesDescription": "cmrr_mbep2d_bold_2mm_MB8_Task_8x",
      "SeriesNumber": 21,
      "SeriesTime": "152559.312000",
      "SliceLocation": -99.842905670565,
      "SliceThickness": 2.0,
      "SmallestImagePixelValue": 0,
      "SoftwareVersions": "syngo MR B19",
      "SpacingBetweenSlices": 1.9999999581601,
      "SpecificCharacterSet": "ISO_IR 100",
      "StudyID": "1",
      "StudyTime": "135809.062000",
      "TransmitCoilName": "Body",
      "VariableFlipAngleFlag": "N",
      "WindowCenterWidthExplanation": "Algo1",
      "dBdt": 0.0},
    "slices": {}
  },
  "time": {
    "samples": {
      "AcquisitionNumber": [1, 2, 3, 4, 5, 6, 7, 8, 9, 10, 11, 12, 13, 14, 15, 16, 17, 18, 19, 20, 21, 22, 23, 24, 25, 26, 27, 28, 29, 30, 31, 32, 33, 34, 35, 36, 37, 38, 39, 40, 41, 42, 43, 44, 45, 46, 47, 48, 49, 50, 51, 52, 53, 54, 55, 56, 57, 58, 59, 60, 61, 62, 63, 64, 65, 66, 67, 68, 69, 70, 71, 72, 73, 74, 75, 76, 77, 78, 79, 80, 81, 82, 83, 84, 85, 86, 87, 88, 89, 90, 91, 92, 93, 94, 95, 96, 97, 98, 99, 100, 101, 102, 103, 104, 105, 106, 107, 108, 109, 110, 111, 112, 113, 114, 115, 116, 117, 118, 119, 120, 121, 122, 123, 124, 125, 126, 127, 128, 129, 130, 131, 132, 133, 134, 135, 136, 137, 138, 139, 140, 141, 142, 143, 144, 145, 146, 147, 148, 149, 150, 151, 152, 153, 154, 155, 156, 157, 158, 159, 160, 161, 162, 163, 164, 165, 166, 167, 168, 169, 170, 171, 172, 173, 174, 175, 176, 177, 178, 179, 180, 181, 182, 183, 184, 185, 186, 187, 188, 189, 190, 191, 192, 193, 194, 195, 196, 197, 198, 199, 200, 201, 202, 203, 204, 205, 206, 207, 208, 209, 210, 211, 212, 213, 214, 215, 216, 217, 218, 219, 220, 221, 222, 223, 224, 225, 226, 227, 228, 229, 230, 231, 232, 233, 234, 235, 236, 237, 238, 239, 240, 241, 242, 243, 244, 245, 246, 247, 248, 249, 250, 251, 252, 253, 254, 255, 256, 257, 258, 259, 260, 261, 262, 263, 264, 265, 266, 267, 268, 269, 270, 271, 272, 273, 274, 275, 276, 277, 278, 279, 280, 281, 282, 283, 284, 285, 286, 287, 288, 289, 290, 291, 292, 293, 294, 295, 296, 297, 298, 299, 300, 301, 302, 303, 304, 305, 306, 307, 308, 309, 310, 311, 312, 313, 314, 315, 316, 317, 318, 319, 320, 321, 322, 323, 324, 325, 326, 327, 328, 329, 330, 331, 332, 333, 334, 335, 336, 337, 338, 339, 340, 341, 342, 343, 344, 345, 346, 347, 348, 349, 350, 351, 352, 353, 354, 355, 356, 357, 358, 359, 360, 361, 362, 363, 364, 365, 366, 367, 368, 369, 370, 371, 372, 373, 374, 375, 376, 377, 378, 379, 380, 381, 382, 383, 384, 385, 386, 387, 388, 389, 390, 391, 392, 393, 394, 395, 396, 397, 398, 399, 400, 401, 402, 403, 404, 405, 406, 407, 408, 409, 410, 411, 412, 413, 414, 415, 416, 417, 418, 419, 420, 421, 422, 423, 424, 425, 426, 427, 428, 429, 430, 431, 432, 433, 434, 435, 436, 437, 438, 439, 440, 441, 442, 443, 444, 445, 446, 447, 448, 449, 450, 451, 452, 453, 454, 455, 456, 457, 458, 459, 460, 461, 462, 463, 464, 465, 466, 467, 468, 469, 470, 471, 472, 473, 474, 475, 476, 477, 478, 479, 480, 481, 482, 483, 484, 485, 486, 487, 488, 489, 490, 491, 492, 493, 494, 495, 496, 497, 498, 499, 500, 501, 502, 503, 504, 505, 506, 507, 508, 509, 510, 511, 512, 513, 514, 515, 516, 517, 518, 519, 520, 521, 522, 523, 524, 525, 526, 527, 528, 529, 530, 531, 532, 533, 534, 535, 536, 537, 538, 539, 540, 541, 542, 543, 544, 545, 546, 547, 548, 549, 550, 551, 552, 553, 554, 555, 556, 557, 558, 559, 560, 561, 562, 563, 564, 565, 566, 567, 568, 569, 570, 571, 572, 573, 574, 575, 576, 577, 578, 579, 580, 581],
      "AcquisitionTime": ["152537.740000", "152538.527500", "152539.317500", "152540.105000", "152540.892500", "152541.682500", "152542.470000", "152543.257500", "152544.045000", "152544.835000", "152545.622500", "152546.410000", "152547.197500", "152547.987500", "152548.775000", "152549.562500", "152550.350000", "152551.140000", "152551.927500", "152552.715000", "152553.502500", "152554.292500", "152555.080000", "152555.867500", "152556.655000", "152557.445000", "152558.232500", "152559.020000", "152559.810000", "152600.597500", "152601.385000", "152602.172500", "152602.962500", "152603.750000", "152604.537500", "152605.325000", "152606.115000", "152606.902500", "152607.690000", "152608.477500", "152609.267500", "152610.055000", "152610.842500", "152611.630000", "152612.420000", "152613.207500", "152613.995000", "152614.782500", "152615.572500", "152616.360000", "152617.147500", "152617.937500", "152618.725000", "152619.512500", "152620.300000", "152621.090000", "152621.877500", "152622.665000", "152623.452500", "152624.242500", "152625.030000", "152625.817500", "152626.605000", "152627.395000", "152628.182500", "152628.970000", "152629.757500", "152630.547500", "152631.335000", "152632.122500", "152632.910000", "152633.700000", "152634.487500", "152635.275000", "152636.065000", "152636.852500", "152637.640000", "152638.427500", "152639.217500", "152640.005000", "152640.792500", "152641.580000", "152642.370000", "152643.157500", "152643.945000", "152644.732500", "152645.522500", "152646.310000", "152647.097500", "152647.885000", "152648.675000", "152649.462500", "152650.250000", "152651.037500", "152651.827500", "152652.615000", "152653.402500", "152654.192500", "152654.980000", "152655.767500", "152656.555000", "152657.345000", "152658.132500", "152658.920000", "152659.707500", "152700.497500", "152701.285000", "152702.072500", "152702.860000", "152703.650000", "152704.437500", "152705.225000", "152706.012500", "152706.802500", "152707.590000", "152708.377500", "152709.165000", "152709.955000", "152710.742500", "152711.530000", "152712.320000", "152713.107500", "152713.895000", "152714.682500", "152715.472500", "152716.260000", "152717.047500", "152717.835000", "152718.625000", "152719.412500", "152720.200000", "152720.987500", "152721.777500", "152722.565000", "152723.352500", "152724.140000", "152724.930000", "152725.717500", "152726.505000", "152727.292500", "152728.082500", "152728.870000", "152729.657500", "152730.447500", "152731.235000", "152732.022500", "152732.810000", "152733.600000", "152734.387500", "152735.175000", "152735.962500", "152736.752500", "152737.540000", "152738.327500", "152739.115000", "152739.905000", "152740.692500", "152741.480000", "152742.267500", "152743.057500", "152743.845000", "152744.632500", "152745.422500", "152746.210000", "152746.997500", "152747.785000", "152748.575000", "152749.362500", "152750.150000", "152750.937500", "152751.727500", "152752.515000", "152753.302500", "152754.090000", "152754.880000", "152755.667500", "152756.455000", "152757.242500", "152758.032500", "152758.820000", "152759.607500", "152800.395000", "152801.185000", "152801.972500", "152802.760000", "152803.550000", "152804.337500", "152805.125000", "152805.912500", "152806.702500", "152807.490000", "152808.277500", "152809.065000", "152809.855000", "152810.642500", "152811.430000", "152812.217500", "152813.007500", "152813.795000", "152814.582500", "152815.370000", "152816.160000", "152816.947500", "152817.735000", "152818.522500", "152819.312500", "152820.100000", "152820.887500", "152821.677500", "152822.465000", "152823.252500", "152824.040000", "152824.830000", "152825.617500", "152826.405000", "152827.192500", "152827.982500", "152828.770000", "152829.557500", "152830.345000", "152831.135000", "152831.922500", "152832.710000", "152833.497500", "152834.287500", "152835.075000", "152835.862500", "152836.650000", "152837.440000", "152838.227500", "152839.015000", "152839.805000", "152840.592500", "152841.380000", "152842.167500", "152842.957500", "152843.745000", "152844.532500", "152845.320000", "152846.110000", "152846.897500", "152847.685000", "152848.472500", "152849.262500", "152850.050000", "152850.837500", "152851.625000", "152852.415000", "152853.202500", "152853.990000", "152854.777500", "152855.567500", "152856.355000", "152857.142500", "152857.932500", "152858.720000", "152859.507500", "152900.295000", "152901.085000", "152901.872500", "152902.660000", "152903.447500", "152904.237500", "152905.025000", "152905.812500", "152906.600000", "152907.390000", "152908.177500", "152908.965000", "152909.752500", "152910.542500", "152911.330000", "152912.117500", "152912.905000", "152913.695000", "152914.482500", "152915.270000", "152916.060000", "152916.847500", "152917.635000", "152918.422500", "152919.212500", "152920.000000", "152920.787500", "152921.575000", "152922.365000", "152923.152500", "152923.940000", "152924.727500", "152925.517500", "152926.305000", "152927.092500", "152927.880000", "152928.670000", "152929.457500", "152930.245000", "152931.032500", "152931.822500", "152932.610000", "152933.397500", "152934.187500", "152934.975000", "152935.762500", "152936.550000", "152937.340000", "152938.127500", "152938.915000", "152939.702500", "152940.492500", "152941.280000", "152942.067500", "152942.855000", "152943.645000", "152944.432500", "152945.220000", "152946.007500", "152946.797500", "152947.585000", "152948.372500", "152949.160000", "152949.950000", "152950.737500", "152951.525000", "152952.315000", "152953.102500", "152953.890000", "152954.677500", "152955.467500", "152956.255000", "152957.042500", "152957.830000", "152958.620000", "152959.407500", "153000.195000", "153000.982500", "153001.772500", "153002.560000", "153003.347500", "153004.135000", "153004.925000", "153005.712500", "153006.500000", "153007.287500", "153008.077500", "153008.865000", "153009.652500", "153010.442500", "153011.230000", "153012.017500", "153012.805000", "153013.595000", "153014.382500", "153015.170000", "153015.957500", "153016.747500", "153017.535000", "153018.322500", "153019.110000", "153019.900000", "153020.687500", "153021.475000", "153022.262500", "153023.052500", "153023.840000", "153024.627500", "153025.415000", "153026.205000", "153026.992500", "153027.780000", "153028.570000", "153029.357500", "153030.145000", "153030.932500", "153031.722500", "153032.510000", "153033.297500", "153034.085000", "153034.875000", "153035.662500", "153036.450000", "153037.237500", "153038.027500", "153038.815000", "153039.602500", "153040.390000", "153041.180000", "153041.967500", "153042.755000", "153043.542500", "153044.332500", "153045.120000", "153045.907500", "153046.697500", "153047.485000", "153048.272500", "153049.060000", "153049.850000", "153050.637500", "153051.425000", "153052.212500", "153053.002500", "153053.790000", "153054.577500", "153055.365000", "153056.155000", "153056.942500", "153057.730000", "153058.517500", "153059.307500", "153100.095000", "153100.882500", "153101.672500", "153102.460000", "153103.247500", "153104.035000", "153104.825000", "153105.612500", "153106.400000", "153107.187500", "153107.977500", "153108.765000", "153109.552500", "153110.340000", "153111.130000", "153111.917500", "153112.705000", "153113.492500", "153114.282500", "153115.070000", "153115.857500", "153116.645000", "153117.435000", "153118.222500", "153119.010000", "153119.800000", "153120.587500", "153121.375000", "153122.162500", "153122.952500", "153123.740000", "153124.527500", "153125.315000", "153126.105000", "153126.892500", "153127.680000", "153128.467500", "153129.257500", "153130.045000", "153130.832500", "153131.620000", "153132.410000", "153133.197500", "153133.985000", "153134.772500", "153135.562500", "153136.350000", "153137.137500", "153137.927500", "153138.715000", "153139.502500", "153140.290000", "153141.080000", "153141.867500", "153142.655000", "153143.442500", "153144.232500", "153145.020000", "153145.807500", "153146.595000", "153147.385000", "153148.172500", "153148.960000", "153149.747500", "153150.537500", "153151.325000", "153152.112500", "153152.900000", "153153.690000", "153154.477500", "153155.265000", "153156.055000", "153156.842500", "153157.630000", "153158.417500", "153159.207500", "153159.995000", "153200.782500", "153201.570000", "153202.360000", "153203.147500", "153203.935000", "153204.722500", "153205.512500", "153206.300000", "153207.087500", "153207.875000", "153208.665000", "153209.452500", "153210.240000", "153211.027500", "153211.817500", "153212.605000", "153213.392500", "153214.182500", "153214.970000", "153215.757500", "153216.545000", "153217.335000", "153218.122500", "153218.910000", "153219.697500", "153220.487500", "153221.275000", "153222.062500", "153222.850000", "153223.640000", "153224.427500", "153225.215000", "153226.002500", "153226.792500", "153227.580000", "153228.367500", "153229.155000", "153229.945000", "153230.732500", "153231.520000", "153232.310000", "153233.097500", "153233.885000", "153234.672500", "153235.462500", "153236.250000", "153237.037500", "153237.825000", "153238.615000", "153239.402500", "153240.190000", "153240.977500", "153241.767500", "153242.555000", "153243.342500", "153244.130000", "153244.920000", "153245.707500", "153246.495000", "153247.282500", "153248.072500", "153248.860000", "153249.647500", "153250.437500", "153251.225000", "153252.012500", "153252.800000", "153253.590000", "153254.377500", "153255.165000", "153255.952500", "153256.742500", "153257.530000", "153258.317500", "153259.105000", "153259.895000", "153300.682500", "153301.470000", "153302.257500", "153303.047500", "153303.835000", "153304.622500", "153305.410000", "153306.200000", "153306.987500", "153307.775000", "153308.565000", "153309.352500", "153310.140000", "153310.927500", "153311.717500", "153312.505000", "153313.292500", "153314.080000", "153314.870000"],
      "ContentTime": ["152559.312000", "152559.312000", "152559.328000", "152559.328000", "152559.328000", "152559.328000", "152559.328000", "152559.328000", "152559.343000", "152559.343000", "152559.343000", "152559.359000", "152559.359000", "152559.359000", "152559.359000", "152559.375000", "152559.375000", "152559.375000", "152559.375000", "152559.375000", "152559.375000", "152559.375000", "152559.390000", "152559.390000", "152559.390000", "152619.296000", "152619.296000", "152619.296000", "152619.296000", "152619.312000", "152619.312000", "152619.312000", "152619.312000", "152619.312000", "152619.312000", "152619.312000", "152619.328000", "152619.328000", "152619.328000", "152619.328000", "152619.328000", "152619.328000", "152619.328000", "152619.328000", "152619.343000", "152619.343000", "152619.343000", "152619.343000", "152619.359000", "152619.359000", "152619.359000", "152639.296000", "152639.296000", "152639.296000", "152639.296000", "152639.312000", "152639.312000", "152639.312000", "152639.312000", "152639.312000", "152639.312000", "152639.312000", "152639.328000", "152639.328000", "152639.328000", "152639.328000", "152639.328000", "152639.328000", "152639.328000", "152639.343000", "152639.343000", "152639.343000", "152639.343000", "152639.343000", "152639.343000", "152639.343000", "152659.296000", "152659.296000", "152659.296000", "152659.296000", "152659.296000", "152659.312000", "152659.312000", "152659.312000", "152659.312000", "152659.312000", "152659.312000", "152659.312000", "152659.328000", "152659.328000", "152659.328000", "152659.328000", "152659.328000", "152659.328000", "152659.328000", "152659.343000", "152659.343000", "152659.343000", "152659.343000", "152659.343000", "152659.343000", "152659.343000", "152719.296000", "152719.296000", "152719.296000", "152719.296000", "152719.312000", "152719.312000", "152719.312000", "152719.312000", "152719.312000", "152719.312000", "152719.312000", "152719.312000", "152719.328000", "152719.328000", "152719.328000", "152719.328000", "152719.328000", "152719.328000", "152719.328000", "152719.343000", "152719.343000", "152719.343000", "152719.343000", "152719.343000", "152719.343000", "152739.296000", "152739.296000", "152739.296000", "152739.296000", "152739.312000", "152739.312000", "152739.312000", "152739.312000", "152739.312000", "152739.312000", "152739.312000", "152739.328000", "152739.328000", "152739.328000", "152739.328000", "152739.328000", "152739.328000", "152739.343000", "152739.343000", "152739.343000", "152739.343000", "152739.343000", "152739.343000", "152739.359000", "152739.359000", "152759.296000", "152759.296000", "152759.296000", "152759.296000", "152759.296000", "152759.312000", "152759.312000", "152759.312000", "152759.312000", "152759.312000", "152759.312000", "152759.312000", "152759.328000", "152759.328000", "152759.328000", "152759.328000", "152759.328000", "152759.328000", "152759.328000", "152759.328000", "152759.343000", "152759.343000", "152759.343000", "152759.343000", "152759.343000", "152759.343000", "152819.296000", "152819.296000", "152819.296000", "152819.296000", "152819.312000", "152819.312000", "152819.312000", "152819.312000", "152819.312000", "152819.312000", "152819.312000", "152819.328000", "152819.328000", "152819.328000", "152819.328000", "152819.328000", "152819.328000", "152819.343000", "152819.343000", "152819.343000", "152819.343000", "152819.343000", "152819.343000", "152819.343000", "152819.359000", "152839.296000", "152839.296000", "152839.296000", "152839.296000", "152839.296000", "152839.312000", "152839.312000", "152839.312000", "152839.312000", "152839.312000", "152839.312000", "152839.312000", "152839.328000", "152839.328000", "152839.328000", "152839.328000", "152839.328000", "152839.328000", "152839.343000", "152839.343000", "152839.343000", "152839.375000", "152839.375000", "152839.375000", "152839.375000", "152839.375000", "152859.296000", "152859.296000", "152859.296000", "152859.296000", "152859.312000", "152859.312000", "152859.312000", "152859.312000", "152859.312000", "152859.312000", "152859.312000", "152859.328000", "152859.328000", "152859.328000", "152859.328000", "152859.328000", "152859.328000", "152859.328000", "152859.328000", "152859.343000", "152859.343000", "152859.343000", "152859.343000", "152859.359000", "152859.359000", "152919.296000", "152919.296000", "152919.296000", "152919.296000", "152919.312000", "152919.312000", "152919.312000", "152919.312000", "152919.312000", "152919.312000", "152919.312000", "152919.312000", "152919.328000", "152919.328000", "152919.328000", "152919.328000", "152919.328000", "152919.328000", "152919.328000", "152919.343000", "152919.343000", "152919.343000", "152919.343000", "152919.343000", "152919.359000", "152919.359000", "152939.296000", "152939.296000", "152939.296000", "152939.296000", "152939.312000", "152939.312000", "152939.312000", "152939.312000", "152939.312000", "152939.312000", "152939.312000", "152939.312000", "152939.328000", "152939.328000", "152939.328000", "152939.328000", "152939.328000", "152939.328000", "152939.343000", "152939.343000", "152939.343000", "152939.343000", "152939.343000", "152939.343000", "152939.359000", "152959.296000", "152959.296000", "152959.296000", "152959.296000", "152959.312000", "152959.312000", "152959.312000", "152959.312000", "152959.312000", "152959.312000", "152959.312000", "152959.312000", "152959.328000", "152959.328000", "152959.328000", "152959.328000", "152959.328000", "152959.328000", "152959.343000", "152959.343000", "152959.343000", "152959.343000", "152959.343000", "152959.359000", "152959.359000", "152959.359000", "153019.296000", "153019.296000", "153019.296000", "153019.296000", "153019.312000", "153019.312000", "153019.312000", "153019.312000", "153019.312000", "153019.312000", "153019.312000", "153019.312000", "153019.328000", "153019.328000", "153019.328000", "153019.328000", "153019.328000", "153019.328000", "153019.328000", "153019.343000", "153019.343000", "153019.343000", "153019.343000", "153019.343000", "153019.343000", "153039.296000", "153039.296000", "153039.296000", "153039.296000", "153039.312000", "153039.312000", "153039.312000", "153039.312000", "153039.312000", "153039.312000", "153039.312000", "153039.328000", "153039.328000", "153039.328000", "153039.328000", "153039.328000", "153039.328000", "153039.328000", "153039.343000", "153039.343000", "153039.343000", "153039.343000", "153039.359000", "153039.359000", "153039.359000", "153039.359000", "153059.296000", "153059.296000", "153059.296000", "153059.296000", "153059.312000", "153059.312000", "153059.312000", "153059.312000", "153059.312000", "153059.312000", "153059.312000", "153059.312000", "153059.328000", "153059.328000", "153059.328000", "153059.328000", "153059.328000", "153059.328000", "153059.343000", "153059.343000", "153059.343000", "153059.343000", "153059.359000", "153059.359000", "153059.359000", "153119.296000", "153119.296000", "153119.296000", "153119.296000", "153119.312000", "153119.312000", "153119.312000", "153119.312000", "153119.312000", "153119.312000", "153119.312000", "153119.312000", "153119.328000", "153119.328000", "153119.328000", "153119.328000", "153119.328000", "153119.328000", "153119.343000", "153119.343000", "153119.343000", "153119.359000", "153119.359000", "153119.359000", "153119.359000", "153119.359000", "153139.296000", "153139.296000", "153139.296000", "153139.296000", "153139.312000", "153139.312000", "153139.312000", "153139.312000", "153139.312000", "153139.312000", "153139.312000", "153139.312000", "153139.328000", "153139.328000", "153139.328000", "153139.328000", "153139.328000", "153139.328000", "153139.328000", "153139.343000", "153139.343000", "153139.343000", "153139.343000", "153139.343000", "153139.343000", "153159.296000", "153159.296000", "153159.296000", "153159.296000", "153159.312000", "153159.312000", "153159.312000", "153159.312000", "153159.312000", "153159.312000", "153159.312000", "153159.312000", "153159.328000", "153159.328000", "153159.328000", "153159.328000", "153159.328000", "153159.328000", "153159.328000", "153159.328000", "153159.343000", "153159.343000", "153159.343000", "153159.343000", "153159.359000", "153159.359000", "153219.296000", "153219.296000", "153219.296000", "153219.296000", "153219.312000", "153219.312000", "153219.312000", "153219.312000", "153219.312000", "153219.312000", "153219.312000", "153219.312000", "153219.328000", "153219.328000", "153219.328000", "153219.328000", "153219.328000", "153219.328000", "153219.328000", "153219.343000", "153219.343000", "153219.343000", "153219.343000", "153219.343000", "153219.359000", "153239.296000", "153239.296000", "153239.296000", "153239.296000", "153239.312000", "153239.312000", "153239.312000", "153239.312000", "153239.312000", "153239.312000", "153239.312000", "153239.312000", "153239.328000", "153239.328000", "153239.328000", "153239.328000", "153239.328000", "153239.328000", "153239.328000", "153239.343000", "153239.343000", "153239.343000", "153239.343000", "153239.343000", "153239.343000", "153239.359000", "153259.296000", "153259.296000", "153259.296000", "153259.296000", "153259.312000", "153259.312000", "153259.312000", "153259.312000", "153259.312000", "153259.312000", "153259.312000", "153259.328000", "153259.328000", "153259.328000", "153259.328000", "153259.328000", "153259.328000", "153259.328000", "153259.343000", "153259.343000", "153259.343000", "153259.343000", "153259.343000", "153259.343000", "153259.343000", "153315.328000", "153315.328000", "153315.328000", "153315.328000", "153315.328000", "153315.328000", "153315.328000", "153315.343000", "153315.343000", "153315.343000", "153315.343000", "153315.343000", "153315.343000", "153315.343000", "153315.359000", "153315.359000", "153315.359000", "153315.359000", "153315.359000", "153315.359000", "153315.359000"],
