{
  "AcquisitionMatrixPE": 104,
  "AcquisitionNumber": 1,
  "AcquisitionTime": "15:01:44.690000",
  "BandwidthPerPixelPhaseEncode": 13.935,
  "BaseResolution": 104,
  "CoilString": "C:HEA;HEP",
  "ConversionSoftware": "dcm2niix",
  "ConversionSoftwareVersion": "v1.0.20210317",
  "DerivedVendorReportedEchoSpacing": 0.000690017,
  "DeviceSerialNumber": "35450",
  "DwellTime": 2.5e-06,
  "EchoTime": 0.0348,
  "EffectiveEchoSpacing": 0.000690017,
  "FlipAngle": 55,
  "ImageComments": "Unaliased MB8/PE3 (remote)",
  "ImageOrientationPatientDICOM": [0.999783, 0.002393, 0.0206772, -4.1966e-08, 0.99337, -0.114962],
  "ImageType": [
    "ORIGINAL",
    "PRIMARY",
    "M",
    "MB",
    "ND",
    "MOSAIC"
],
  "ImagingFrequency": 123.235,
  "InPlanePhaseEncodingDirectionDICOM": "COL",
  "InstitutionAddress": "Univeristy Ave. 197,Newark,North East,US,07102-1814",
  "InstitutionName": "RUBIC",
  "InstitutionalDepartmentName": "Department",
  "MRAcquisitionType": "2D",
  "MagneticFieldStrength": 3,
  "Manufacturer": "Siemens",
  "ManufacturersModelName": "TrioTim",
  "Modality": "MR",
  "MultibandAccelerationFactor": 8,
  "PartialFourier": 0.875,
  "PatientPosition": "HFS",
  "PercentPhaseFOV": 100,
  "PercentSampling": 100,
  "PhaseEncodingDirection": "j-",
  "PhaseEncodingSteps": 91,
  "PhaseResolution": 1,
  "PixelBandwidth": 1923,
  "ProcedureStepDescription": "Cole^Michael",
  "ProtocolName": "cmrr_mbep2d_bold_2mm_MB8_Task_8x",
  "PulseSequenceDetails": "%CustomerSeq%\\cmrr_mbep2d_bold",
  "ReceiveCoilName": "32Ch_Head",
  "ReconMatrixPE": 104,
  "RepetitionTime": 0.785,
  "SAR": 0.146493,
  "ScanOptions": "PFP\\FS",
  "ScanningSequence": "EP",
  "SequenceName": "epfid2d1_104",
  "SequenceVariant": "SK\\SS",
  "SeriesDescription": "cmrr_mbep2d_bold_2mm_MB8_Task_8x",
  "SeriesNumber": 15,
  "ShimSetting": [2127, -474, -7292, 383, -170, 197, 273, 118],
  "SliceThickness": 2,
  "SliceTiming": [0, 0.4375, 0.0875, 0.525, 0.175, 0.6125, 0.2625, 0.7, 0.35, 0, 0.4375, 0.0875, 0.525, 0.175, 0.6125, 0.2625, 0.7, 0.35, 0, 0.4375, 0.0875, 0.525, 0.175, 0.6125, 0.2625, 0.7, 0.35, 0, 0.4375, 0.0875, 0.525, 0.175, 0.6125, 0.2625, 0.7, 0.35, 0, 0.4375, 0.0875, 0.525, 0.175, 0.6125, 0.2625, 0.7, 0.35, 0, 0.4375, 0.0875, 0.525, 0.175, 0.6125, 0.2625, 0.7, 0.35, 0, 0.4375, 0.0875, 0.525, 0.175, 0.6125, 0.2625, 0.7, 0.35, 0, 0.4375, 0.0875, 0.525, 0.175, 0.6125, 0.2625, 0.7, 0.35],
  "SoftwareVersions": "syngo MR B19",
  "SpacingBetweenSlices": 2,
  "StationName": "MRC35450",
  "TaskName": "cpro",
  "TotalReadoutTime": 0.0710717,
  "TxRefAmp": 375.095,
  "dcmmeta_affine": [
    [-1.999566674232483, -8.393190142896856e-08, 0.04163039103150368, 103.91261291503906],
    [-0.0047859917394816875, 1.9867397546768188, -0.22987395524978638, -79.6429443359375],
    [0.04135436937212944, 0.2299237698316574, 1.986309289932251, -111.92595672607422],
    [0.0, 0.0, 0.0, 1.0]
],
  "dcmmeta_reorient_transform": [
    [0.0, -1.0, 0.0, 103.0],
    [1.0, 0.0, 0.0, 0.0],
    [0.0, 0.0, 1.0, 0.0],
    [0.0, 0.0, 0.0, 1.0]
],
  "dcmmeta_shape": [104, 104, 72, 581],
  "dcmmeta_slice_dim": 2,
  "dcmmeta_version": 0.6,
  "global": {
    "const": {
      "AcquisitionMatrix": [104, 0, 0, 104],
      "AngioFlag": "N",
      "BitsAllocated": 16,
      "BitsStored": 12,
      "Columns": 936,
      "EchoNumbers": 1,
      "EchoTime": 34.8,
      "EchoTrainLength": 1,
      "FlipAngle": 55.0,
      "HighBit": 11,
      "ImageOrientationPatient": [0.99978334032622, 0.00239299597315, 0.02067718492516, -4.1965952e-08, 0.99336990304176, -0.1149618881665],
      "ImagePositionPatient": [-935.7323059229, -953.46598876116, -9.7989333544987],
      "ImageType": [
        "ORIGINAL",
        "PRIMARY",
        "M",
        "MB",
        "ND",
        "MOSAIC"
],
      "ImagedNucleus": "1H",
      "ImagingFrequency": 123.234585,
      "InPlanePhaseEncodingDirection": "COL",
      "MRAcquisitionType": "2D",
      "MagneticFieldStrength": 3.0,
      "Manufacturer": "SIEMENS",
      "ManufacturerModelName": "TrioTim",
      "Modality": "MR",
      "NumberOfAverages": 1.0,
      "NumberOfPhaseEncodingSteps": 91,
      "PercentPhaseFieldOfView": 100.0,
      "PercentSampling": 100.0,
      "PerformedProcedureStepStartTime": "135809.109000",
      "PhotometricInterpretation": "MONOCHROME2",
      "PixelBandwidth": 1923.0,
      "PixelRepresentation": 0,
      "PixelSpacing": [2.0, 2.0],
      "ProtocolName": "cmrr_mbep2d_bold_2mm_MB8_Task_8x",
      "RepetitionTime": 785.0,
      "Rows": 936,
      "SAR": 0.14649333055632,
      "SamplesPerPixel": 1,
      "ScanOptions": [
        "PFP",
        "FS"
],
      "ScanningSequence": "EP",
      "SequenceName": "epfid2d1_104",
      "SequenceVariant": [
        "SK",
        "SS"
],
      "SeriesDescription": "cmrr_mbep2d_bold_2mm_MB8_Task_8x",
      "SeriesNumber": 15,
      "SeriesTime": "150219.328000",
      "SliceLocation": -99.842905670565,
      "SliceThickness": 2.0,
      "SmallestImagePixelValue": 0,
      "SoftwareVersions": "syngo MR B19",
      "SpacingBetweenSlices": 1.9999999581601,
      "SpecificCharacterSet": "ISO_IR 100",
      "StudyID": "1",
      "StudyTime": "135809.062000",
      "TransmitCoilName": "Body",
      "VariableFlipAngleFlag": "N",
      "WindowCenterWidthExplanation": "Algo1",
      "dBdt": 0.0},
    "slices": {}
  },
  "time": {
    "samples": {
      "AcquisitionNumber": [1, 2, 3, 4, 5, 6, 7, 8, 9, 10, 11, 12, 13, 14, 15, 16, 17, 18, 19, 20, 21, 22, 23, 24, 25, 26, 27, 28, 29, 30, 31, 32, 33, 34, 35, 36, 37, 38, 39, 40, 41, 42, 43, 44, 45, 46, 47, 48, 49, 50, 51, 52, 53, 54, 55, 56, 57, 58, 59, 60, 61, 62, 63, 64, 65, 66, 67, 68, 69, 70, 71, 72, 73, 74, 75, 76, 77, 78, 79, 80, 81, 82, 83, 84, 85, 86, 87, 88, 89, 90, 91, 92, 93, 94, 95, 96, 97, 98, 99, 100, 101, 102, 103, 104, 105, 106, 107, 108, 109, 110, 111, 112, 113, 114, 115, 116, 117, 118, 119, 120, 121, 122, 123, 124, 125, 126, 127, 128, 129, 130, 131, 132, 133, 134, 135, 136, 137, 138, 139, 140, 141, 142, 143, 144, 145, 146, 147, 148, 149, 150, 151, 152, 153, 154, 155, 156, 157, 158, 159, 160, 161, 162, 163, 164, 165, 166, 167, 168, 169, 170, 171, 172, 173, 174, 175, 176, 177, 178, 179, 180, 181, 182, 183, 184, 185, 186, 187, 188, 189, 190, 191, 192, 193, 194, 195, 196, 197, 198, 199, 200, 201, 202, 203, 204, 205, 206, 207, 208, 209, 210, 211, 212, 213, 214, 215, 216, 217, 218, 219, 220, 221, 222, 223, 224, 225, 226, 227, 228, 229, 230, 231, 232, 233, 234, 235, 236, 237, 238, 239, 240, 241, 242, 243, 244, 245, 246, 247, 248, 249, 250, 251, 252, 253, 254, 255, 256, 257, 258, 259, 260, 261, 262, 263, 264, 265, 266, 267, 268, 269, 270, 271, 272, 273, 274, 275, 276, 277, 278, 279, 280, 281, 282, 283, 284, 285, 286, 287, 288, 289, 290, 291, 292, 293, 294, 295, 296, 297, 298, 299, 300, 301, 302, 303, 304, 305, 306, 307, 308, 309, 310, 311, 312, 313, 314, 315, 316, 317, 318, 319, 320, 321, 322, 323, 324, 325, 326, 327, 328, 329, 330, 331, 332, 333, 334, 335, 336, 337, 338, 339, 340, 341, 342, 343, 344, 345, 346, 347, 348, 349, 350, 351, 352, 353, 354, 355, 356, 357, 358, 359, 360, 361, 362, 363, 364, 365, 366, 367, 368, 369, 370, 371, 372, 373, 374, 375, 376, 377, 378, 379, 380, 381, 382, 383, 384, 385, 386, 387, 388, 389, 390, 391, 392, 393, 394, 395, 396, 397, 398, 399, 400, 401, 402, 403, 404, 405, 406, 407, 408, 409, 410, 411, 412, 413, 414, 415, 416, 417, 418, 419, 420, 421, 422, 423, 424, 425, 426, 427, 428, 429, 430, 431, 432, 433, 434, 435, 436, 437, 438, 439, 440, 441, 442, 443, 444, 445, 446, 447, 448, 449, 450, 451, 452, 453, 454, 455, 456, 457, 458, 459, 460, 461, 462, 463, 464, 465, 466, 467, 468, 469, 470, 471, 472, 473, 474, 475, 476, 477, 478, 479, 480, 481, 482, 483, 484, 485, 486, 487, 488, 489, 490, 491, 492, 493, 494, 495, 496, 497, 498, 499, 500, 501, 502, 503, 504, 505, 506, 507, 508, 509, 510, 511, 512, 513, 514, 515, 516, 517, 518, 519, 520, 521, 522, 523, 524, 525, 526, 527, 528, 529, 530, 531, 532, 533, 534, 535, 536, 537, 538, 539, 540, 541, 542, 543, 544, 545, 546, 547, 548, 549, 550, 551, 552, 553, 554, 555, 556, 557, 558, 559, 560, 561, 562, 563, 564, 565, 566, 567, 568, 569, 570, 571, 572, 573, 574, 575, 576, 577, 578, 579, 580, 581],
      "AcquisitionTime": ["150144.690000", "150145.477500", "150146.265000", "150147.052500", "150147.842500", "150148.630000", "150149.417500", "150150.205000", "150150.995000", "150151.782500", "150152.570000", "150153.360000", "150154.147500", "150154.935000", "150155.722500", "150156.512500", "150157.300000", "150158.087500", "150158.875000", "150159.665000", "150200.452500", "150201.240000", "150202.027500", "150202.817500", "150203.605000", "150204.392500", "150205.180000", "150205.970000", "150206.757500", "150207.545000", "150208.332500", "150209.122500", "150209.910000", "150210.697500", "150211.487500", "150212.275000", "150213.062500", "150213.850000", "150214.640000", "150215.427500", "150216.215000", "150217.002500", "150217.792500", "150218.580000", "150219.367500", "150220.155000", "150220.945000", "150221.732500", "150222.520000", "150223.307500", "150224.097500", "150224.885000", "150225.672500", "150226.460000", "150227.250000", "150228.037500", "150228.825000", "150229.615000", "150230.402500", "150231.190000", "150231.977500", "150232.767500", "150233.555000", "150234.342500", "150235.130000", "150235.920000", "150236.707500", "150237.495000", "150238.282500", "150239.072500", "150239.860000", "150240.647500", "150241.435000", "150242.225000", "150243.012500", "150243.800000", "150244.587500", "150245.377500", "150246.165000", "150246.952500", "150247.742500", "150248.530000", "150249.317500", "150250.105000", "150250.895000", "150251.682500", "150252.470000", "150253.257500", "150254.047500", "150254.835000", "150255.622500", "150256.410000", "150257.200000", "150257.987500", "150258.775000", "150259.562500", "150300.352500", "150301.140000", "150301.927500", "150302.715000", "150303.505000", "150304.292500", "150305.080000", "150305.870000", "150306.657500", "150307.445000", "150308.232500", "150309.022500", "150309.810000", "150310.597500", "150311.385000", "150312.175000", "150312.962500", "150313.750000", "150314.537500", "150315.327500", "150316.115000", "150316.902500", "150317.690000", "150318.480000", "150319.267500", "150320.055000", "150320.842500", "150321.632500", "150322.420000", "150323.207500", "150323.997500", "150324.785000", "150325.572500", "150326.360000", "150327.150000", "150327.937500", "150328.725000", "150329.512500", "150330.302500", "150331.090000", "150331.877500", "150332.665000", "150333.455000", "150334.242500", "150335.030000", "150335.817500", "150336.607500", "150337.395000", "150338.182500", "150338.970000", "150339.760000", "150340.547500", "150341.335000", "150342.125000", "150342.912500", "150343.700000", "150344.487500", "150345.277500", "150346.065000", "150346.852500", "150347.640000", "150348.430000", "150349.217500", "150350.005000", "150350.792500", "150351.582500", "150352.370000", "150353.157500", "150353.945000", "150354.735000", "150355.522500", "150356.310000", "150357.097500", "150357.887500", "150358.675000", "150359.462500", "150400.252500", "150401.040000", "150401.827500", "150402.615000", "150403.405000", "150404.192500", "150404.980000", "150405.767500", "150406.557500", "150407.345000", "150408.132500", "150408.920000", "150409.710000", "150410.497500", "150411.285000", "150412.072500", "150412.862500", "150413.650000", "150414.437500", "150415.225000", "150416.015000", "150416.802500", "150417.590000", "150418.380000", "150419.167500", "150419.955000", "150420.742500", "150421.532500", "150422.320000", "150423.107500", "150423.895000", "150424.685000", "150425.472500", "150426.260000", "150427.047500", "150427.837500", "150428.625000", "150429.412500", "150430.200000", "150430.990000", "150431.777500", "150432.565000", "150433.352500", "150434.142500", "150434.930000", "150435.717500", "150436.507500", "150437.295000", "150438.082500", "150438.870000", "150439.660000", "150440.447500", "150441.235000", "150442.022500", "150442.812500", "150443.600000", "150444.387500", "150445.175000", "150445.965000", "150446.752500", "150447.540000", "150448.327500", "150449.117500", "150449.905000", "150450.692500", "150451.482500", "150452.270000", "150453.057500", "150453.845000", "150454.635000", "150455.422500", "150456.210000", "150456.997500", "150457.787500", "150458.575000", "150459.362500", "150500.150000", "150500.940000", "150501.727500", "150502.515000", "150503.302500", "150504.092500", "150504.880000", "150505.667500", "150506.455000", "150507.245000", "150508.032500", "150508.820000", "150509.610000", "150510.397500", "150511.185000", "150511.972500", "150512.762500", "150513.550000", "150514.337500", "150515.125000", "150515.915000", "150516.702500", "150517.490000", "150518.277500", "150519.067500", "150519.855000", "150520.642500", "150521.430000", "150522.220000", "150523.007500", "150523.795000", "150524.582500", "150525.372500", "150526.160000", "150526.947500", "150527.737500", "150528.525000", "150529.312500", "150530.100000", "150530.890000", "150531.677500", "150532.465000", "150533.252500", "150534.042500", "150534.830000", "150535.617500", "150536.405000", "150537.195000", "150537.982500", "150538.770000", "150539.557500", "150540.347500", "150541.135000", "150541.922500", "150542.710000", "150543.500000", "150544.287500", "150545.075000", "150545.865000", "150546.652500", "150547.440000", "150548.227500", "150549.017500", "150549.805000", "150550.592500", "150551.380000", "150552.170000", "150552.957500", "150553.745000", "150554.532500", "150555.322500", "150556.110000", "150556.897500", "150557.685000", "150558.475000", "150559.262500", "150600.050000", "150600.837500", "150601.627500", "150602.415000", "150603.202500", "150603.992500", "150604.780000", "150605.567500", "150606.355000", "150607.145000", "150607.932500", "150608.720000", "150609.507500", "150610.297500", "150611.085000", "150611.872500", "150612.660000", "150613.450000", "150614.237500", "150615.025000", "150615.812500", "150616.602500", "150617.390000", "150618.177500", "150618.965000", "150619.755000", "150620.542500", "150621.330000", "150622.120000", "150622.907500", "150623.695000", "150624.482500", "150625.272500", "150626.060000", "150626.847500", "150627.635000", "150628.425000", "150629.212500", "150630.000000", "150630.787500", "150631.577500", "150632.365000", "150633.152500", "150633.940000", "150634.730000", "150635.517500", "150636.305000", "150637.092500", "150637.882500", "150638.670000", "150639.457500", "150640.247500", "150641.035000", "150641.822500", "150642.610000", "150643.400000", "150644.187500", "150644.975000", "150645.762500", "150646.552500", "150647.340000", "150648.127500", "150648.915000", "150649.705000", "150650.492500", "150651.280000", "150652.067500", "150652.857500", "150653.645000", "150654.432500", "150655.220000", "150656.010000", "150656.797500", "150657.585000", "150658.375000", "150659.162500", "150659.950000", "150700.737500", "150701.527500", "150702.315000", "150703.102500", "150703.890000", "150704.680000", "150705.467500", "150706.255000", "150707.042500", "150707.832500", "150708.620000", "150709.407500", "150710.195000", "150710.985000", "150711.772500", "150712.560000", "150713.347500", "150714.137500", "150714.925000", "150715.712500", "150716.502500", "150717.290000", "150718.077500", "150718.865000", "150719.655000", "150720.442500", "150721.230000", "150722.017500", "150722.807500", "150723.595000", "150724.382500", "150725.170000", "150725.960000", "150726.747500", "150727.535000", "150728.322500", "150729.112500", "150729.900000", "150730.687500", "150731.475000", "150732.265000", "150733.052500", "150733.840000", "150734.630000", "150735.417500", "150736.205000", "150736.992500", "150737.782500", "150738.570000", "150739.357500", "150740.145000", "150740.935000", "150741.722500", "150742.510000", "150743.297500", "150744.087500", "150744.875000", "150745.662500", "150746.450000", "150747.240000", "150748.027500", "150748.815000", "150749.602500", "150750.392500", "150751.180000", "150751.967500", "150752.757500", "150753.545000", "150754.332500", "150755.120000", "150755.910000", "150756.697500", "150757.485000", "150758.272500", "150759.062500", "150759.850000", "150800.637500", "150801.425000", "150802.215000", "150803.002500", "150803.790000", "150804.577500", "150805.367500", "150806.155000", "150806.942500", "150807.732500", "150808.520000", "150809.307500", "150810.095000", "150810.885000", "150811.672500", "150812.460000", "150813.247500", "150814.037500", "150814.825000", "150815.612500", "150816.400000", "150817.190000", "150817.977500", "150818.765000", "150819.552500", "150820.342500", "150821.130000", "150821.917500", "150822.705000", "150823.495000", "150824.282500", "150825.070000", "150825.860000", "150826.647500", "150827.435000", "150828.222500", "150829.012500", "150829.800000", "150830.587500", "150831.375000", "150832.165000", "150832.952500", "150833.740000", "150834.527500", "150835.317500", "150836.105000", "150836.892500", "150837.680000", "150838.470000", "150839.257500", "150840.045000", "150840.832500", "150841.622500", "150842.410000", "150843.197500", "150843.987500", "150844.775000", "150845.562500", "150846.350000", "150847.140000", "150847.927500", "150848.715000", "150849.502500", "150850.292500", "150851.080000", "150851.867500", "150852.655000", "150853.445000", "150854.232500", "150855.020000", "150855.807500", "150856.597500", "150857.385000", "150858.172500", "150858.960000", "150859.750000", "150900.537500", "150901.325000", "150902.115000", "150902.902500", "150903.690000", "150904.477500", "150905.267500", "150906.055000", "150906.842500", "150907.630000", "150908.420000", "150909.207500", "150909.995000", "150910.782500", "150911.572500", "150912.360000", "150913.147500", "150913.935000", "150914.725000", "150915.512500", "150916.300000", "150917.087500", "150917.877500", "150918.665000", "150919.452500", "150920.242500", "150921.030000", "150921.817500"],
      "ContentTime": ["150219.328000", "150219.328000", "150219.328000", "150219.328000", "150219.328000", "150219.328000", "150219.328000", "150219.343000", "150219.343000", "150219.343000", "150219.343000", "150219.343000", "150219.343000", "150219.343000", "150219.359000", "150219.359000", "150219.359000", "150219.359000", "150219.359000", "150219.359000", "150219.359000", "150219.359000", "150219.375000", "150219.375000", "150219.375000", "150219.375000", "150219.375000", "150219.375000", "150219.375000", "150219.390000", "150219.390000", "150219.390000", "150219.390000", "150219.390000", "150219.406000", "150219.406000", "150219.406000", "150219.406000", "150219.406000", "150219.406000", "150219.421000", "150219.421000", "150239.296000", "150239.296000", "150239.296000", "150239.296000", "150239.296000", "150239.312000", "150239.312000", "150239.312000", "150239.312000", "150239.312000", "150239.312000", "150239.312000", "150239.328000", "150239.328000", "150239.328000", "150239.328000", "150239.328000", "150239.328000", "150239.328000", "150239.343000", "150239.343000", "150239.343000", "150239.343000", "150239.343000", "150239.343000", "150259.296000", "150259.296000", "150259.296000", "150259.296000", "150259.296000", "150259.312000", "150259.312000", "150259.312000", "150259.312000", "150259.312000", "150259.312000", "150259.328000", "150259.328000", "150259.328000", "150259.328000", "150259.328000", "150259.328000", "150259.328000", "150259.343000", "150259.343000", "150259.343000", "150259.343000", "150259.343000", "150259.343000", "150259.343000", "150259.343000", "150319.296000", "150319.296000", "150319.296000", "150319.296000", "150319.312000", "150319.312000", "150319.312000", "150319.312000", "150319.312000", "150319.312000", "150319.312000", "150319.328000", "150319.328000", "150319.328000", "150319.328000", "150319.328000", "150319.328000", "150319.343000", "150319.343000", "150319.343000", "150319.343000", "150319.343000", "150319.343000", "150319.343000", "150319.359000", "150339.296000", "150339.296000", "150339.296000", "150339.296000", "150339.312000", "150339.312000", "150339.312000", "150339.312000", "150339.312000", "150339.312000", "150339.312000", "150339.312000", "150339.328000", "150339.328000", "150339.328000", "150339.328000", "150339.328000", "150339.328000", "150339.328000", "150339.328000", "150339.343000", "150339.343000", "150339.343000", "150339.343000", "150339.343000", "150339.343000", "150359.296000", "150359.296000", "150359.296000", "150359.296000", "150359.296000", "150359.312000", "150359.312000", "150359.312000", "150359.312000", "150359.312000", "150359.312000", "150359.312000", "150359.328000", "150359.328000", "150359.328000", "150359.328000", "150359.328000", "150359.328000", "150359.328000", "150359.328000", "150359.343000", "150359.343000", "150359.343000", "150359.343000", "150359.343000", "150419.296000", "150419.296000", "150419.296000", "150419.296000", "150419.296000", "150419.312000", "150419.312000", "150419.312000", "150419.312000", "150419.312000", "150419.312000", "150419.312000", "150419.328000", "150419.328000", "150419.328000", "150419.328000", "150419.328000", "150419.328000", "150419.328000", "150419.328000", "150419.343000", "150419.343000", "150419.343000", "150419.343000", "150419.343000", "150419.343000", "150439.296000", "150439.296000", "150439.296000", "150439.296000", "150439.312000", "150439.312000", "150439.312000", "150439.328000", "150439.328000", "150439.328000", "150439.328000", "150439.328000", "150439.328000", "150439.328000", "150439.343000", "150439.343000", "150439.343000", "150439.343000", "150439.343000", "150439.343000", "150439.343000", "150439.343000", "150439.359000", "150439.359000", "150439.359000", "150459.296000", "150459.296000", "150459.296000", "150459.296000", "150459.296000", "150459.312000", "150459.312000", "150459.312000", "150459.312000", "150459.312000", "150459.312000", "150459.312000", "150459.328000", "150459.328000", "150459.328000", "150459.328000", "150459.328000", "150459.328000", "150459.328000", "150459.328000", "150459.343000", "150459.343000", "150459.343000", "150459.343000", "150459.343000", "150459.343000", "150519.296000", "150519.296000", "150519.296000", "150519.296000", "150519.296000", "150519.312000", "150519.312000", "150519.312000", "150519.312000", "150519.312000", "150519.312000", "150519.312000", "150519.328000", "150519.328000", "150519.328000", "150519.328000", "150519.328000", "150519.328000", "150519.328000", "150519.343000", "150519.343000", "150519.343000", "150519.343000", "150519.343000", "150519.359000", "150539.296000", "150539.296000", "150539.296000", "150539.296000", "150539.296000", "150539.312000", "150539.312000", "150539.312000", "150539.312000", "150539.328000", "150539.328000", "150539.328000", "150539.328000", "150539.343000", "150539.343000", "150539.343000", "150539.343000", "150539.343000", "150539.343000", "150539.343000", "150539.343000", "150539.359000", "150539.359000", "150539.359000", "150539.359000", "150539.359000", "150559.296000", "150559.296000", "150559.296000", "150559.296000", "150559.312000", "150559.312000", "150559.312000", "150559.312000", "150559.312000", "150559.328000", "150559.328000", "150559.328000", "150559.328000", "150559.328000", "150559.343000", "150559.343000", "150559.343000", "150559.343000", "150559.343000", "150559.343000", "150559.343000", "150559.359000", "150559.359000", "150559.359000", "150559.359000", "150619.296000", "150619.296000", "150619.296000", "150619.296000", "150619.312000", "150619.312000", "150619.312000", "150619.312000", "150619.328000", "150619.328000", "150619.328000", "150619.328000", "150619.328000", "150619.328000", "150619.328000", "150619.343000", "150619.343000", "150619.343000", "150619.343000", "150619.343000", "150619.343000", "150619.359000", "150619.359000", "150619.359000", "150619.359000", "150639.296000", "150639.296000", "150639.296000", "150639.296000", "150639.296000", "150639.312000", "150639.312000", "150639.312000", "150639.312000", "150639.312000", "150639.328000", "150639.328000", "150639.328000", "150639.343000", "150639.343000", "150639.343000", "150639.343000", "150639.343000", "150639.343000", "150639.359000", "150639.359000", "150639.359000", "150639.359000", "150639.359000", "150639.359000", "150639.359000", "150659.296000", "150659.296000", "150659.296000", "150659.296000", "150659.312000", "150659.312000", "150659.312000", "150659.312000", "150659.312000", "150659.312000", "150659.312000", "150659.328000", "150659.328000", "150659.328000", "150659.328000", "150659.328000", "150659.328000", "150659.343000", "150659.343000", "150659.343000", "150659.343000", "150659.343000", "150659.343000", "150659.359000", "150659.359000", "150719.296000", "150719.296000", "150719.296000", "150719.296000", "150719.312000", "150719.312000", "150719.312000", "150719.312000", "150719.312000", "150719.312000", "150719.312000", "150719.312000", "150719.328000", "150719.328000", "150719.328000", "150719.328000", "150719.328000", "150719.328000", "150719.328000", "150719.343000", "150719.343000", "150719.343000", "150719.343000", "150719.343000", "150719.359000", "150719.359000", "150739.296000", "150739.296000", "150739.296000", "150739.296000", "150739.312000", "150739.312000", "150739.312000", "150739.312000", "150739.312000", "150739.312000", "150739.312000", "150739.312000", "150739.328000", "150739.328000", "150739.328000", "150739.328000", "150739.328000", "150739.328000", "150739.343000", "150739.343000", "150739.343000", "150739.343000", "150739.343000", "150739.359000", "150739.359000", "150759.296000", "150759.296000", "150759.296000", "150759.296000", "150759.312000", "150759.312000", "150759.312000", "150759.312000", "150759.312000", "150759.312000", "150759.312000", "150759.328000", "150759.328000", "150759.328000", "150759.328000", "150759.328000", "150759.328000", "150759.343000", "150759.343000", "150759.343000", "150759.343000", "150759.343000", "150759.343000", "150759.343000", "150759.359000", "150759.359000", "150819.296000", "150819.296000", "150819.296000", "150819.296000", "150819.312000", "150819.312000", "150819.312000", "150819.312000", "150819.312000", "150819.312000", "150819.312000", "150819.312000", "150819.328000", "150819.328000", "150819.328000", "150819.328000", "150819.328000", "150819.343000", "150819.343000", "150819.343000", "150819.343000", "150819.343000", "150819.343000", "150819.343000", "150819.359000", "150839.296000", "150839.296000", "150839.296000", "150839.296000", "150839.296000", "150839.312000", "150839.312000", "150839.312000", "150839.312000", "150839.312000", "150839.312000", "150839.312000", "150839.328000", "150839.328000", "150839.328000", "150839.328000", "150839.328000", "150839.328000", "150839.343000", "150839.343000", "150839.343000", "150839.343000", "150839.343000", "150839.359000", "150839.359000", "150839.359000", "150859.296000", "150859.296000", "150859.296000", "150859.296000", "150859.296000", "150859.312000", "150859.312000", "150859.312000", "150859.312000", "150859.312000", "150859.312000", "150859.312000", "150859.328000", "150859.328000", "150859.328000", "150859.328000", "150859.328000", "150859.328000", "150859.343000", "150859.343000", "150859.343000", "150859.343000", "150859.343000", "150859.343000", "150859.359000", "150919.296000", "150919.296000", "150919.296000", "150919.296000", "150919.312000", "150919.312000", "150919.312000", "150919.312000", "150919.312000", "150919.312000", "150919.312000", "150919.312000", "150919.328000", "150919.328000", "150919.328000", "150919.328000", "150919.328000", "150919.343000", "150919.343000", "150919.343000", "150919.343000", "150919.343000", "150919.343000", "150919.359000", "150919.359000", "150919.359000", "150922.281000", "150922.281000", "150922.281000", "150922.281000"],
