{
  "AcquisitionMatrixPE": 104,
  "AcquisitionNumber": 1,
  "AcquisitionTime": "15:17:38.707500",
  "BandwidthPerPixelPhaseEncode": 13.935,
  "BaseResolution": 104,
  "CoilString": "C:HEA;HEP",
  "ConversionSoftware": "dcm2niix",
  "ConversionSoftwareVersion": "v1.0.20210317",
  "DerivedVendorReportedEchoSpacing": 0.000690017,
  "DeviceSerialNumber": "35450",
  "DwellTime": 2.5e-06,
  "EchoTime": 0.0348,
  "EffectiveEchoSpacing": 0.000690017,
  "FlipAngle": 55,
  "ImageComments": "Unaliased MB8/PE3 (remote)",
  "ImageOrientationPatientDICOM": [0.999783, 0.002393, 0.0206772, -4.1966e-08, 0.99337, -0.114962],
  "ImageType": [
    "ORIGINAL",
    "PRIMARY",
    "M",
    "MB",
    "ND",
    "MOSAIC"
],
  "ImagingFrequency": 123.235,
  "InPlanePhaseEncodingDirectionDICOM": "COL",
  "InstitutionAddress": "Univeristy Ave. 197,Newark,North East,US,07102-1814",
  "InstitutionName": "RUBIC",
  "InstitutionalDepartmentName": "Department",
  "MRAcquisitionType": "2D",
  "MagneticFieldStrength": 3,
  "Manufacturer": "Siemens",
  "ManufacturersModelName": "TrioTim",
  "Modality": "MR",
  "MultibandAccelerationFactor": 8,
  "PartialFourier": 0.875,
  "PatientPosition": "HFS",
  "PercentPhaseFOV": 100,
  "PercentSampling": 100,
  "PhaseEncodingDirection": "j-",
  "PhaseEncodingSteps": 91,
  "PhaseResolution": 1,
  "PixelBandwidth": 1923,
  "ProcedureStepDescription": "Cole^Michael",
  "ProtocolName": "cmrr_mbep2d_bold_2mm_MB8_Task_8x",
  "PulseSequenceDetails": "%CustomerSeq%\\cmrr_mbep2d_bold",
  "ReceiveCoilName": "32Ch_Head",
  "ReconMatrixPE": 104,
  "RepetitionTime": 0.785,
  "SAR": 0.146493,
  "ScanOptions": "PFP\\FS",
  "ScanningSequence": "EP",
  "SequenceName": "epfid2d1_104",
  "SequenceVariant": "SK\\SS",
  "SeriesDescription": "cmrr_mbep2d_bold_2mm_MB8_Task_8x",
  "SeriesNumber": 19,
  "ShimSetting": [2127, -474, -7292, 383, -170, 197, 273, 118],
  "SliceThickness": 2,
  "SliceTiming": [0, 0.4375, 0.0875, 0.525, 0.175, 0.6125, 0.2625, 0.7, 0.35, 0, 0.4375, 0.0875, 0.525, 0.175, 0.6125, 0.2625, 0.7, 0.35, 0, 0.4375, 0.0875, 0.525, 0.175, 0.6125, 0.2625, 0.7, 0.35, 0, 0.4375, 0.0875, 0.525, 0.175, 0.6125, 0.2625, 0.7, 0.35, 0, 0.4375, 0.0875, 0.525, 0.175, 0.6125, 0.2625, 0.7, 0.35, 0, 0.4375, 0.0875, 0.525, 0.175, 0.6125, 0.2625, 0.7, 0.35, 0, 0.4375, 0.0875, 0.525, 0.175, 0.6125, 0.2625, 0.7, 0.35, 0, 0.4375, 0.0875, 0.525, 0.175, 0.6125, 0.2625, 0.7, 0.35],
  "SoftwareVersions": "syngo MR B19",
  "SpacingBetweenSlices": 2,
  "StationName": "MRC35450",
  "TaskName": "cpro",
  "TotalReadoutTime": 0.0710717,
  "TxRefAmp": 375.095,
  "dcmmeta_affine": [
    [-1.999566674232483, -8.393190142896856e-08, 0.04163039103150368, 103.91261291503906],
    [-0.0047859917394816875, 1.9867397546768188, -0.22987395524978638, -79.6429443359375],
    [0.04135436937212944, 0.2299237698316574, 1.986309289932251, -111.92595672607422],
    [0.0, 0.0, 0.0, 1.0]
],
  "dcmmeta_reorient_transform": [
    [0.0, -1.0, 0.0, 103.0],
    [1.0, 0.0, 0.0, 0.0],
    [0.0, 0.0, 1.0, 0.0],
    [0.0, 0.0, 0.0, 1.0]
],
  "dcmmeta_shape": [104, 104, 72, 581],
  "dcmmeta_slice_dim": 2,
  "dcmmeta_version": 0.6,
  "global": {
    "const": {
      "AcquisitionMatrix": [104, 0, 0, 104],
      "AngioFlag": "N",
      "BitsAllocated": 16,
      "BitsStored": 12,
      "Columns": 936,
      "EchoNumbers": 1,
      "EchoTime": 34.8,
      "EchoTrainLength": 1,
      "FlipAngle": 55.0,
      "HighBit": 11,
      "ImageOrientationPatient": [0.99978334032622, 0.00239299597315, 0.02067718492516, -4.1965952e-08, 0.99336990304176, -0.1149618881665],
      "ImagePositionPatient": [-935.7323059229, -953.46598876116, -9.7989333544987],
      "ImageType": [
        "ORIGINAL",
        "PRIMARY",
        "M",
        "MB",
        "ND",
        "MOSAIC"
],
      "ImagedNucleus": "1H",
      "ImagingFrequency": 123.234585,
      "InPlanePhaseEncodingDirection": "COL",
      "MRAcquisitionType": "2D",
      "MagneticFieldStrength": 3.0,
      "Manufacturer": "SIEMENS",
      "ManufacturerModelName": "TrioTim",
      "Modality": "MR",
      "NumberOfAverages": 1.0,
      "NumberOfPhaseEncodingSteps": 91,
      "PercentPhaseFieldOfView": 100.0,
      "PercentSampling": 100.0,
      "PerformedProcedureStepStartTime": "135809.109000",
      "PhotometricInterpretation": "MONOCHROME2",
      "PixelBandwidth": 1923.0,
      "PixelRepresentation": 0,
      "PixelSpacing": [2.0, 2.0],
      "ProtocolName": "cmrr_mbep2d_bold_2mm_MB8_Task_8x",
      "RepetitionTime": 785.0,
      "Rows": 936,
      "SAR": 0.14649333055632,
      "SamplesPerPixel": 1,
      "ScanOptions": [
        "PFP",
        "FS"
],
      "ScanningSequence": "EP",
      "SequenceName": "epfid2d1_104",
      "SequenceVariant": [
        "SK",
        "SS"
],
      "SeriesDescription": "cmrr_mbep2d_bold_2mm_MB8_Task_8x",
      "SeriesNumber": 19,
      "SeriesTime": "151755.906000",
      "SliceLocation": -99.842905670565,
      "SliceThickness": 2.0,
      "SmallestImagePixelValue": 0,
      "SoftwareVersions": "syngo MR B19",
      "SpacingBetweenSlices": 1.9999999581601,
      "SpecificCharacterSet": "ISO_IR 100",
      "StudyID": "1",
      "StudyTime": "135809.062000",
      "TransmitCoilName": "Body",
      "VariableFlipAngleFlag": "N",
      "WindowCenterWidthExplanation": "Algo1",
      "dBdt": 0.0},
    "slices": {}
  },
  "time": {
    "samples": {
      "AcquisitionNumber": [1, 2, 3, 4, 5, 6, 7, 8, 9, 10, 11, 12, 13, 14, 15, 16, 17, 18, 19, 20, 21, 22, 23, 24, 25, 26, 27, 28, 29, 30, 31, 32, 33, 34, 35, 36, 37, 38, 39, 40, 41, 42, 43, 44, 45, 46, 47, 48, 49, 50, 51, 52, 53, 54, 55, 56, 57, 58, 59, 60, 61, 62, 63, 64, 65, 66, 67, 68, 69, 70, 71, 72, 73, 74, 75, 76, 77, 78, 79, 80, 81, 82, 83, 84, 85, 86, 87, 88, 89, 90, 91, 92, 93, 94, 95, 96, 97, 98, 99, 100, 101, 102, 103, 104, 105, 106, 107, 108, 109, 110, 111, 112, 113, 114, 115, 116, 117, 118, 119, 120, 121, 122, 123, 124, 125, 126, 127, 128, 129, 130, 131, 132, 133, 134, 135, 136, 137, 138, 139, 140, 141, 142, 143, 144, 145, 146, 147, 148, 149, 150, 151, 152, 153, 154, 155, 156, 157, 158, 159, 160, 161, 162, 163, 164, 165, 166, 167, 168, 169, 170, 171, 172, 173, 174, 175, 176, 177, 178, 179, 180, 181, 182, 183, 184, 185, 186, 187, 188, 189, 190, 191, 192, 193, 194, 195, 196, 197, 198, 199, 200, 201, 202, 203, 204, 205, 206, 207, 208, 209, 210, 211, 212, 213, 214, 215, 216, 217, 218, 219, 220, 221, 222, 223, 224, 225, 226, 227, 228, 229, 230, 231, 232, 233, 234, 235, 236, 237, 238, 239, 240, 241, 242, 243, 244, 245, 246, 247, 248, 249, 250, 251, 252, 253, 254, 255, 256, 257, 258, 259, 260, 261, 262, 263, 264, 265, 266, 267, 268, 269, 270, 271, 272, 273, 274, 275, 276, 277, 278, 279, 280, 281, 282, 283, 284, 285, 286, 287, 288, 289, 290, 291, 292, 293, 294, 295, 296, 297, 298, 299, 300, 301, 302, 303, 304, 305, 306, 307, 308, 309, 310, 311, 312, 313, 314, 315, 316, 317, 318, 319, 320, 321, 322, 323, 324, 325, 326, 327, 328, 329, 330, 331, 332, 333, 334, 335, 336, 337, 338, 339, 340, 341, 342, 343, 344, 345, 346, 347, 348, 349, 350, 351, 352, 353, 354, 355, 356, 357, 358, 359, 360, 361, 362, 363, 364, 365, 366, 367, 368, 369, 370, 371, 372, 373, 374, 375, 376, 377, 378, 379, 380, 381, 382, 383, 384, 385, 386, 387, 388, 389, 390, 391, 392, 393, 394, 395, 396, 397, 398, 399, 400, 401, 402, 403, 404, 405, 406, 407, 408, 409, 410, 411, 412, 413, 414, 415, 416, 417, 418, 419, 420, 421, 422, 423, 424, 425, 426, 427, 428, 429, 430, 431, 432, 433, 434, 435, 436, 437, 438, 439, 440, 441, 442, 443, 444, 445, 446, 447, 448, 449, 450, 451, 452, 453, 454, 455, 456, 457, 458, 459, 460, 461, 462, 463, 464, 465, 466, 467, 468, 469, 470, 471, 472, 473, 474, 475, 476, 477, 478, 479, 480, 481, 482, 483, 484, 485, 486, 487, 488, 489, 490, 491, 492, 493, 494, 495, 496, 497, 498, 499, 500, 501, 502, 503, 504, 505, 506, 507, 508, 509, 510, 511, 512, 513, 514, 515, 516, 517, 518, 519, 520, 521, 522, 523, 524, 525, 526, 527, 528, 529, 530, 531, 532, 533, 534, 535, 536, 537, 538, 539, 540, 541, 542, 543, 544, 545, 546, 547, 548, 549, 550, 551, 552, 553, 554, 555, 556, 557, 558, 559, 560, 561, 562, 563, 564, 565, 566, 567, 568, 569, 570, 571, 572, 573, 574, 575, 576, 577, 578, 579, 580, 581],
      "AcquisitionTime": ["151738.707500", "151739.495000", "151740.282500", "151741.072500", "151741.860000", "151742.647500", "151743.435000", "151744.225000", "151745.012500", "151745.800000", "151746.587500", "151747.377500", "151748.165000", "151748.952500", "151749.742500", "151750.530000", "151751.317500", "151752.105000", "151752.895000", "151753.682500", "151754.470000", "151755.257500", "151756.047500", "151756.835000", "151757.622500", "151758.410000", "151759.200000", "151759.987500", "151800.775000", "151801.562500", "151802.352500", "151803.140000", "151803.927500", "151804.715000", "151805.505000", "151806.292500", "151807.080000", "151807.870000", "151808.657500", "151809.445000", "151810.232500", "151811.022500", "151811.810000", "151812.597500", "151813.385000", "151814.175000", "151814.962500", "151815.750000", "151816.537500", "151817.327500", "151818.115000", "151818.902500", "151819.690000", "151820.480000", "151821.267500", "151822.055000", "151822.842500", "151823.632500", "151824.420000", "151825.207500", "151825.997500", "151826.785000", "151827.572500", "151828.360000", "151829.150000", "151829.937500", "151830.725000", "151831.512500", "151832.302500", "151833.090000", "151833.877500", "151834.665000", "151835.455000", "151836.242500", "151837.030000", "151837.817500", "151838.607500", "151839.395000", "151840.182500", "151840.970000", "151841.760000", "151842.547500", "151843.335000", "151844.125000", "151844.912500", "151845.700000", "151846.487500", "151847.277500", "151848.065000", "151848.852500", "151849.640000", "151850.430000", "151851.217500", "151852.005000", "151852.792500", "151853.582500", "151854.370000", "151855.157500", "151855.945000", "151856.735000", "151857.522500", "151858.310000", "151859.097500", "151859.887500", "151900.675000", "151901.462500", "151902.252500", "151903.040000", "151903.827500", "151904.615000", "151905.405000", "151906.192500", "151906.980000", "151907.767500", "151908.557500", "151909.345000", "151910.132500", "151910.920000", "151911.710000", "151912.497500", "151913.285000", "151914.072500", "151914.862500", "151915.650000", "151916.437500", "151917.225000", "151918.015000", "151918.802500", "151919.590000", "151920.380000", "151921.167500", "151921.955000", "151922.742500", "151923.532500", "151924.320000", "151925.107500", "151925.895000", "151926.685000", "151927.472500", "151928.260000", "151929.047500", "151929.837500", "151930.625000", "151931.412500", "151932.200000", "151932.990000", "151933.777500", "151934.565000", "151935.352500", "151936.142500", "151936.930000", "151937.717500", "151938.507500", "151939.295000", "151940.082500", "151940.870000", "151941.660000", "151942.447500", "151943.235000", "151944.022500", "151944.812500", "151945.600000", "151946.387500", "151947.175000", "151947.965000", "151948.752500", "151949.540000", "151950.327500", "151951.117500", "151951.905000", "151952.692500", "151953.480000", "151954.270000", "151955.057500", "151955.845000", "151956.635000", "151957.422500", "151958.210000", "151958.997500", "151959.787500", "152000.575000", "152001.362500", "152002.150000", "152002.940000", "152003.727500", "152004.515000", "152005.302500", "152006.092500", "152006.880000", "152007.667500", "152008.455000", "152009.245000", "152010.032500", "152010.820000", "152011.607500", "152012.397500", "152013.185000", "152013.972500", "152014.762500", "152015.550000", "152016.337500", "152017.125000", "152017.915000", "152018.702500", "152019.490000", "152020.277500", "152021.067500", "152021.855000", "152022.642500", "152023.430000", "152024.220000", "152025.007500", "152025.795000", "152026.582500", "152027.372500", "152028.160000", "152028.947500", "152029.735000", "152030.525000", "152031.312500", "152032.100000", "152032.890000", "152033.677500", "152034.465000", "152035.252500", "152036.042500", "152036.830000", "152037.617500", "152038.405000", "152039.195000", "152039.982500", "152040.770000", "152041.557500", "152042.347500", "152043.135000", "152043.922500", "152044.710000", "152045.500000", "152046.287500", "152047.075000", "152047.865000", "152048.652500", "152049.440000", "152050.227500", "152051.017500", "152051.805000", "152052.592500", "152053.380000", "152054.170000", "152054.957500", "152055.745000", "152056.532500", "152057.322500", "152058.110000", "152058.897500", "152059.685000", "152100.475000", "152101.262500", "152102.050000", "152102.837500", "152103.627500", "152104.415000", "152105.202500", "152105.992500", "152106.780000", "152107.567500", "152108.355000", "152109.145000", "152109.932500", "152110.720000", "152111.507500", "152112.297500", "152113.085000", "152113.872500", "152114.660000", "152115.450000", "152116.237500", "152117.025000", "152117.812500", "152118.602500", "152119.390000", "152120.177500", "152120.965000", "152121.755000", "152122.542500", "152123.330000", "152124.120000", "152124.907500", "152125.695000", "152126.482500", "152127.272500", "152128.060000", "152128.847500", "152129.635000", "152130.425000", "152131.212500", "152132.000000", "152132.787500", "152133.577500", "152134.365000", "152135.152500", "152135.940000", "152136.730000", "152137.517500", "152138.305000", "152139.092500", "152139.882500", "152140.670000", "152141.457500", "152142.247500", "152143.035000", "152143.822500", "152144.610000", "152145.400000", "152146.187500", "152146.975000", "152147.762500", "152148.552500", "152149.340000", "152150.127500", "152150.915000", "152151.705000", "152152.492500", "152153.280000", "152154.067500", "152154.857500", "152155.645000", "152156.432500", "152157.220000", "152158.010000", "152158.797500", "152159.585000", "152200.375000", "152201.162500", "152201.950000", "152202.737500", "152203.527500", "152204.315000", "152205.102500", "152205.890000", "152206.680000", "152207.467500", "152208.255000", "152209.042500", "152209.832500", "152210.620000", "152211.407500", "152212.195000", "152212.985000", "152213.772500", "152214.560000", "152215.347500", "152216.137500", "152216.925000", "152217.712500", "152218.502500", "152219.290000", "152220.077500", "152220.865000", "152221.655000", "152222.442500", "152223.230000", "152224.017500", "152224.807500", "152225.595000", "152226.382500", "152227.170000", "152227.960000", "152228.747500", "152229.535000", "152230.322500", "152231.112500", "152231.900000", "152232.687500", "152233.475000", "152234.265000", "152235.052500", "152235.840000", "152236.630000", "152237.417500", "152238.205000", "152238.992500", "152239.782500", "152240.570000", "152241.357500", "152242.145000", "152242.935000", "152243.722500", "152244.510000", "152245.297500", "152246.087500", "152246.875000", "152247.662500", "152248.450000", "152249.240000", "152250.027500", "152250.815000", "152251.602500", "152252.392500", "152253.180000", "152253.967500", "152254.757500", "152255.545000", "152256.332500", "152257.120000", "152257.910000", "152258.697500", "152259.485000", "152300.272500", "152301.062500", "152301.850000", "152302.637500", "152303.425000", "152304.215000", "152305.002500", "152305.790000", "152306.577500", "152307.367500", "152308.155000", "152308.942500", "152309.730000", "152310.520000", "152311.307500", "152312.095000", "152312.885000", "152313.672500", "152314.460000", "152315.247500", "152316.037500", "152316.825000", "152317.612500", "152318.400000", "152319.190000", "152319.977500", "152320.765000", "152321.552500", "152322.342500", "152323.130000", "152323.917500", "152324.705000", "152325.495000", "152326.282500", "152327.070000", "152327.857500", "152328.647500", "152329.435000", "152330.222500", "152331.012500", "152331.800000", "152332.587500", "152333.375000", "152334.165000", "152334.952500", "152335.740000", "152336.527500", "152337.317500", "152338.105000", "152338.892500", "152339.680000", "152340.470000", "152341.257500", "152342.045000", "152342.832500", "152343.622500", "152344.410000", "152345.197500", "152345.985000", "152346.775000", "152347.562500", "152348.350000", "152349.140000", "152349.927500", "152350.715000", "152351.502500", "152352.292500", "152353.080000", "152353.867500", "152354.655000", "152355.445000", "152356.232500", "152357.020000", "152357.807500", "152358.597500", "152359.385000", "152400.172500", "152400.960000", "152401.750000", "152402.537500", "152403.325000", "152404.115000", "152404.902500", "152405.690000", "152406.477500", "152407.267500", "152408.055000", "152408.842500", "152409.630000", "152410.420000", "152411.207500", "152411.995000", "152412.782500", "152413.572500", "152414.360000", "152415.147500", "152415.935000", "152416.725000", "152417.512500", "152418.300000", "152419.087500", "152419.877500", "152420.665000", "152421.452500", "152422.242500", "152423.030000", "152423.817500", "152424.605000", "152425.395000", "152426.182500", "152426.970000", "152427.757500", "152428.547500", "152429.335000", "152430.122500", "152430.910000", "152431.700000", "152432.487500", "152433.275000", "152434.062500", "152434.852500", "152435.640000", "152436.427500", "152437.215000", "152438.005000", "152438.792500", "152439.580000", "152440.370000", "152441.157500", "152441.945000", "152442.732500", "152443.522500", "152444.310000", "152445.097500", "152445.885000", "152446.675000", "152447.462500", "152448.250000", "152449.037500", "152449.827500", "152450.615000", "152451.402500", "152452.190000", "152452.980000", "152453.767500", "152454.555000", "152455.342500", "152456.132500", "152456.920000", "152457.707500", "152458.497500", "152459.285000", "152500.072500", "152500.860000", "152501.650000", "152502.437500", "152503.225000", "152504.012500", "152504.802500", "152505.590000", "152506.377500", "152507.165000", "152507.955000", "152508.742500", "152509.530000", "152510.317500", "152511.107500", "152511.895000", "152512.682500", "152513.470000", "152514.260000", "152515.047500", "152515.835000"],
      "ContentTime": ["151755.921000", "151755.921000", "151755.921000", "151755.921000", "151755.921000", "151755.921000", "151755.921000", "151755.937000", "151755.937000", "151755.937000", "151755.937000", "151755.937000", "151755.937000", "151755.937000", "151755.937000", "151755.953000", "151755.953000", "151755.953000", "151755.953000", "151755.953000", "151815.890000", "151815.890000", "151815.890000", "151815.890000", "151815.906000", "151815.906000", "151815.906000", "151815.906000", "151815.906000", "151815.906000", "151815.906000", "151815.906000", "151815.921000", "151815.921000", "151815.921000", "151815.921000", "151815.921000", "151815.921000", "151815.921000", "151815.937000", "151815.937000", "151815.937000", "151815.937000", "151815.937000", "151815.937000", "151835.890000", "151835.890000", "151835.890000", "151835.890000", "151835.890000", "151835.906000", "151835.906000", "151835.906000", "151835.906000", "151835.906000", "151835.906000", "151835.906000", "151835.921000", "151835.921000", "151835.921000", "151835.921000", "151835.921000", "151835.921000", "151835.921000", "151835.921000", "151835.937000", "151835.937000", "151835.937000", "151835.937000", "151835.937000", "151835.937000", "151855.890000", "151855.890000", "151855.890000", "151855.890000", "151855.890000", "151855.906000", "151855.906000", "151855.906000", "151855.906000", "151855.906000", "151855.906000", "151855.906000", "151855.921000", "151855.921000", "151855.921000", "151855.921000", "151855.921000", "151855.921000", "151855.921000", "151855.921000", "151855.937000", "151855.937000", "151855.937000", "151855.937000", "151855.937000", "151915.890000", "151915.890000", "151915.890000", "151915.890000", "151915.890000", "151915.906000", "151915.906000", "151915.906000", "151915.906000", "151915.906000", "151915.906000", "151915.906000", "151915.921000", "151915.921000", "151915.921000", "151915.921000", "151915.921000", "151915.921000", "151915.921000", "151915.921000", "151915.937000", "151915.937000", "151915.937000", "151915.937000", "151915.937000", "151935.890000", "151935.890000", "151935.890000", "151935.890000", "151935.906000", "151935.906000", "151935.906000", "151935.906000", "151935.906000", "151935.906000", "151935.906000", "151935.906000", "151935.921000", "151935.921000", "151935.921000", "151935.921000", "151935.921000", "151935.921000", "151935.921000", "151935.921000", "151935.937000", "151935.937000", "151935.937000", "151935.937000", "151935.937000", "151935.937000", "151955.890000", "151955.890000", "151955.890000", "151955.890000", "151955.906000", "151955.906000", "151955.906000", "151955.906000", "151955.906000", "151955.921000", "151955.921000", "151955.921000", "151955.921000", "151955.921000", "151955.937000", "151955.937000", "151955.937000", "151955.937000", "151955.937000", "151955.937000", "151955.953000", "151955.953000", "151955.953000", "151955.953000", "151955.953000", "152015.890000", "152015.890000", "152015.890000", "152015.890000", "152015.906000", "152015.906000", "152015.906000", "152015.906000", "152015.906000", "152015.906000", "152015.906000", "152015.906000", "152015.921000", "152015.921000", "152015.921000", "152015.921000", "152015.921000", "152015.921000", "152015.921000", "152015.921000", "152015.937000", "152015.937000", "152015.937000", "152015.937000", "152015.937000", "152015.937000", "152035.890000", "152035.890000", "152035.890000", "152035.890000", "152035.906000", "152035.906000", "152035.906000", "152035.906000", "152035.906000", "152035.906000", "152035.906000", "152035.906000", "152035.921000", "152035.921000", "152035.921000", "152035.921000", "152035.921000", "152035.921000", "152035.921000", "152035.937000", "152035.937000", "152035.937000", "152035.937000", "152035.937000", "152035.937000", "152055.890000", "152055.890000", "152055.890000", "152055.890000", "152055.890000", "152055.906000", "152055.906000", "152055.906000", "152055.906000", "152055.906000", "152055.906000", "152055.906000", "152055.921000", "152055.921000", "152055.921000", "152055.921000", "152055.921000", "152055.921000", "152055.921000", "152055.921000", "152055.937000", "152055.937000", "152055.937000", "152055.937000", "152055.937000", "152055.937000", "152115.890000", "152115.890000", "152115.890000", "152115.890000", "152115.890000", "152115.906000", "152115.906000", "152115.906000", "152115.906000", "152115.906000", "152115.906000", "152115.906000", "152115.921000", "152115.921000", "152115.921000", "152115.921000", "152115.921000", "152115.921000", "152115.921000", "152115.937000", "152115.937000", "152115.937000", "152115.937000", "152115.937000", "152115.937000", "152135.890000", "152135.890000", "152135.890000", "152135.890000", "152135.906000", "152135.906000", "152135.906000", "152135.906000", "152135.906000", "152135.906000", "152135.906000", "152135.906000", "152135.921000", "152135.921000", "152135.921000", "152135.921000", "152135.921000", "152135.937000", "152135.937000", "152135.937000", "152135.937000", "152135.937000", "152135.937000", "152135.937000", "152135.953000", "152135.953000", "152155.890000", "152155.890000", "152155.890000", "152155.890000", "152155.906000", "152155.906000", "152155.906000", "152155.906000", "152155.906000", "152155.906000", "152155.906000", "152155.921000", "152155.921000", "152155.921000", "152155.921000", "152155.921000", "152155.921000", "152155.921000", "152155.937000", "152155.937000", "152155.937000", "152155.937000", "152155.937000", "152155.937000", "152155.937000", "152215.890000", "152215.890000", "152215.890000", "152215.890000", "152215.906000", "152215.906000", "152215.906000", "152215.906000", "152215.906000", "152215.906000", "152215.906000", "152215.906000", "152215.921000", "152215.921000", "152215.921000", "152215.921000", "152215.921000", "152215.921000", "152215.921000", "152215.921000", "152215.937000", "152215.937000", "152215.937000", "152215.937000", "152215.937000", "152215.937000", "152235.890000", "152235.890000", "152235.890000", "152235.890000", "152235.906000", "152235.906000", "152235.906000", "152235.906000", "152235.906000", "152235.906000", "152235.906000", "152235.906000", "152235.921000", "152235.921000", "152235.921000", "152235.921000", "152235.921000", "152235.921000", "152235.921000", "152235.921000", "152235.937000", "152235.937000", "152235.937000", "152235.937000", "152235.937000", "152255.890000", "152255.890000", "152255.890000", "152255.890000", "152255.906000", "152255.906000", "152255.906000", "152255.906000", "152255.906000", "152255.921000", "152255.921000", "152255.921000", "152255.921000", "152255.921000", "152255.921000", "152255.937000", "152255.937000", "152255.937000", "152255.937000", "152255.953000", "152255.953000", "152255.953000", "152255.953000", "152255.953000", "152255.953000", "152255.968000", "152315.890000", "152315.890000", "152315.890000", "152315.890000", "152315.906000", "152315.906000", "152315.906000", "152315.906000", "152315.906000", "152315.906000", "152315.906000", "152315.921000", "152315.921000", "152315.921000", "152315.921000", "152315.921000", "152315.921000", "152315.921000", "152315.921000", "152315.937000", "152315.937000", "152315.937000", "152315.937000", "152315.953000", "152315.953000", "152335.890000", "152335.890000", "152335.890000", "152335.890000", "152335.906000", "152335.906000", "152335.906000", "152335.906000", "152335.906000", "152335.906000", "152335.906000", "152335.906000", "152335.921000", "152335.921000", "152335.921000", "152335.921000", "152335.921000", "152335.921000", "152335.921000", "152335.937000", "152335.937000", "152335.937000", "152335.937000", "152335.937000", "152335.937000", "152335.937000", "152355.890000", "152355.890000", "152355.890000", "152355.890000", "152355.906000", "152355.906000", "152355.906000", "152355.906000", "152355.906000", "152355.906000", "152355.906000", "152355.906000", "152355.921000", "152355.921000", "152355.921000", "152355.921000", "152355.921000", "152355.921000", "152355.921000", "152355.937000", "152355.937000", "152355.937000", "152355.937000", "152355.937000", "152355.937000", "152415.890000", "152415.890000", "152415.890000", "152415.890000", "152415.906000", "152415.906000", "152415.906000", "152415.906000", "152415.906000", "152415.906000", "152415.906000", "152415.906000", "152415.921000", "152415.921000", "152415.921000", "152415.921000", "152415.921000", "152415.921000", "152415.937000", "152415.937000", "152415.937000", "152415.937000", "152415.937000", "152415.937000", "152415.937000", "152415.953000", "152435.890000", "152435.890000", "152435.890000", "152435.890000", "152435.906000", "152435.906000", "152435.906000", "152435.906000", "152435.906000", "152435.906000", "152435.906000", "152435.921000", "152435.921000", "152435.921000", "152435.921000", "152435.921000", "152435.921000", "152435.937000", "152435.937000", "152435.937000", "152435.937000", "152435.937000", "152435.937000", "152435.937000", "152435.937000", "152455.890000", "152455.890000", "152455.890000", "152455.890000", "152455.906000", "152455.906000", "152455.906000", "152455.906000", "152455.906000", "152455.906000", "152455.906000", "152455.921000", "152455.921000", "152455.921000", "152455.921000", "152455.921000", "152455.921000", "152455.937000", "152455.937000", "152455.937000", "152455.937000", "152455.937000", "152455.937000", "152455.937000", "152455.953000", "152455.953000", "152515.890000", "152515.890000", "152515.890000", "152515.890000", "152515.890000", "152515.906000", "152515.906000", "152515.906000", "152515.906000", "152515.906000", "152515.906000", "152515.906000", "152515.921000", "152515.921000", "152515.921000", "152515.921000", "152515.921000", "152515.921000", "152515.921000", "152515.937000", "152515.937000", "152515.937000", "152515.937000", "152515.937000", "152515.937000", "152516.296000"],
