{
  "AcquisitionMatrixPE": 104,
  "AcquisitionNumber": 1,
  "AcquisitionTime": "15:33:49.722500",
  "BandwidthPerPixelPhaseEncode": 13.935,
  "BaseResolution": 104,
  "CoilString": "C:HEA;HEP",
  "ConversionSoftware": "dcm2niix",
  "ConversionSoftwareVersion": "v1.0.20210317",
  "DerivedVendorReportedEchoSpacing": 0.000690017,
  "DeviceSerialNumber": "35450",
  "DwellTime": 2.5e-06,
  "EchoTime": 0.0348,
  "EffectiveEchoSpacing": 0.000690017,
  "FlipAngle": 55,
  "ImageComments": "Unaliased MB8/PE3 (remote)",
  "ImageOrientationPatientDICOM": [0.999783, 0.002393, 0.0206772, -4.1966e-08, 0.99337, -0.114962],
  "ImageType": [
    "ORIGINAL",
    "PRIMARY",
    "M",
    "MB",
    "ND",
    "MOSAIC"
],
  "ImagingFrequency": 123.235,
  "InPlanePhaseEncodingDirectionDICOM": "COL",
  "InstitutionAddress": "Univeristy Ave. 197,Newark,North East,US,07102-1814",
  "InstitutionName": "RUBIC",
  "InstitutionalDepartmentName": "Department",
  "MRAcquisitionType": "2D",
  "MagneticFieldStrength": 3,
  "Manufacturer": "Siemens",
  "ManufacturersModelName": "TrioTim",
  "Modality": "MR",
  "MultibandAccelerationFactor": 8,
  "PartialFourier": 0.875,
  "PatientPosition": "HFS",
  "PercentPhaseFOV": 100,
  "PercentSampling": 100,
  "PhaseEncodingDirection": "j-",
  "PhaseEncodingSteps": 91,
  "PhaseResolution": 1,
  "PixelBandwidth": 1923,
  "ProcedureStepDescription": "Cole^Michael",
  "ProtocolName": "cmrr_mbep2d_bold_2mm_MB8_Task_8x",
  "PulseSequenceDetails": "%CustomerSeq%\\cmrr_mbep2d_bold",
  "ReceiveCoilName": "32Ch_Head",
  "ReconMatrixPE": 104,
  "RepetitionTime": 0.785,
  "SAR": 0.146493,
  "ScanOptions": "PFP\\FS",
  "ScanningSequence": "EP",
  "SequenceName": "epfid2d1_104",
  "SequenceVariant": "SK\\SS",
  "SeriesDescription": "cmrr_mbep2d_bold_2mm_MB8_Task_8x",
  "SeriesNumber": 23,
  "ShimSetting": [2127, -474, -7292, 383, -170, 197, 273, 118],
  "SliceThickness": 2,
  "SliceTiming": [0, 0.4375, 0.0875, 0.525, 0.175, 0.6125, 0.2625, 0.7, 0.35, 0, 0.4375, 0.0875, 0.525, 0.175, 0.6125, 0.2625, 0.7, 0.35, 0, 0.4375, 0.0875, 0.525, 0.175, 0.6125, 0.2625, 0.7, 0.35, 0, 0.4375, 0.0875, 0.525, 0.175, 0.6125, 0.2625, 0.7, 0.35, 0, 0.4375, 0.0875, 0.525, 0.175, 0.6125, 0.2625, 0.7, 0.35, 0, 0.4375, 0.0875, 0.525, 0.175, 0.6125, 0.2625, 0.7, 0.35, 0, 0.4375, 0.0875, 0.525, 0.175, 0.6125, 0.2625, 0.7, 0.35, 0, 0.4375, 0.0875, 0.525, 0.175, 0.6125, 0.2625, 0.7, 0.35],
  "SoftwareVersions": "syngo MR B19",
  "SpacingBetweenSlices": 2,
  "StationName": "MRC35450",
  "TaskName": "cpro",
  "TotalReadoutTime": 0.0710717,
  "TxRefAmp": 375.095,
  "dcmmeta_affine": [
    [-1.999566674232483, -8.393190142896856e-08, 0.04163039103150368, 103.91261291503906],
    [-0.0047859917394816875, 1.9867397546768188, -0.22987395524978638, -79.6429443359375],
    [0.04135436937212944, 0.2299237698316574, 1.986309289932251, -111.92595672607422],
    [0.0, 0.0, 0.0, 1.0]
],
  "dcmmeta_reorient_transform": [
    [0.0, -1.0, 0.0, 103.0],
    [1.0, 0.0, 0.0, 0.0],
    [0.0, 0.0, 1.0, 0.0],
    [0.0, 0.0, 0.0, 1.0]
],
  "dcmmeta_shape": [104, 104, 72, 581],
  "dcmmeta_slice_dim": 2,
  "dcmmeta_version": 0.6,
  "global": {
    "const": {
      "AcquisitionMatrix": [104, 0, 0, 104],
      "AngioFlag": "N",
      "BitsAllocated": 16,
      "BitsStored": 12,
      "Columns": 936,
      "EchoNumbers": 1,
      "EchoTime": 34.8,
      "EchoTrainLength": 1,
      "FlipAngle": 55.0,
      "HighBit": 11,
      "ImageOrientationPatient": [0.99978334032622, 0.00239299597315, 0.02067718492516, -4.1965952e-08, 0.99336990304176, -0.1149618881665],
      "ImagePositionPatient": [-935.7323059229, -953.46598876116, -9.7989333544987],
      "ImageType": [
        "ORIGINAL",
        "PRIMARY",
        "M",
        "MB",
        "ND",
        "MOSAIC"
],
      "ImagedNucleus": "1H",
      "ImagingFrequency": 123.234585,
      "InPlanePhaseEncodingDirection": "COL",
      "MRAcquisitionType": "2D",
      "MagneticFieldStrength": 3.0,
      "Manufacturer": "SIEMENS",
      "ManufacturerModelName": "TrioTim",
      "Modality": "MR",
      "NumberOfAverages": 1.0,
      "NumberOfPhaseEncodingSteps": 91,
      "PercentPhaseFieldOfView": 100.0,
      "PercentSampling": 100.0,
      "PerformedProcedureStepStartTime": "135809.109000",
      "PhotometricInterpretation": "MONOCHROME2",
      "PixelBandwidth": 1923.0,
      "PixelRepresentation": 0,
      "PixelSpacing": [2.0, 2.0],
      "ProtocolName": "cmrr_mbep2d_bold_2mm_MB8_Task_8x",
      "RepetitionTime": 785.0,
      "Rows": 936,
      "SAR": 0.14649333055632,
      "SamplesPerPixel": 1,
      "ScanOptions": [
        "PFP",
        "FS"
],
      "ScanningSequence": "EP",
      "SequenceName": "epfid2d1_104",
      "SequenceVariant": [
        "SK",
        "SS"
],
      "SeriesDescription": "cmrr_mbep2d_bold_2mm_MB8_Task_8x",
      "SeriesNumber": 23,
      "SeriesTime": "153409.875000",
      "SliceLocation": -99.842905670565,
      "SliceThickness": 2.0,
      "SmallestImagePixelValue": 0,
      "SoftwareVersions": "syngo MR B19",
      "SpacingBetweenSlices": 1.9999999581601,
      "SpecificCharacterSet": "ISO_IR 100",
      "StudyID": "1",
      "StudyTime": "135809.062000",
      "TransmitCoilName": "Body",
      "VariableFlipAngleFlag": "N",
      "WindowCenterWidthExplanation": "Algo1",
      "dBdt": 0.0},
    "slices": {}
  },
  "time": {
    "samples": {
      "AcquisitionNumber": [1, 2, 3, 4, 5, 6, 7, 8, 9, 10, 11, 12, 13, 14, 15, 16, 17, 18, 19, 20, 21, 22, 23, 24, 25, 26, 27, 28, 29, 30, 31, 32, 33, 34, 35, 36, 37, 38, 39, 40, 41, 42, 43, 44, 45, 46, 47, 48, 49, 50, 51, 52, 53, 54, 55, 56, 57, 58, 59, 60, 61, 62, 63, 64, 65, 66, 67, 68, 69, 70, 71, 72, 73, 74, 75, 76, 77, 78, 79, 80, 81, 82, 83, 84, 85, 86, 87, 88, 89, 90, 91, 92, 93, 94, 95, 96, 97, 98, 99, 100, 101, 102, 103, 104, 105, 106, 107, 108, 109, 110, 111, 112, 113, 114, 115, 116, 117, 118, 119, 120, 121, 122, 123, 124, 125, 126, 127, 128, 129, 130, 131, 132, 133, 134, 135, 136, 137, 138, 139, 140, 141, 142, 143, 144, 145, 146, 147, 148, 149, 150, 151, 152, 153, 154, 155, 156, 157, 158, 159, 160, 161, 162, 163, 164, 165, 166, 167, 168, 169, 170, 171, 172, 173, 174, 175, 176, 177, 178, 179, 180, 181, 182, 183, 184, 185, 186, 187, 188, 189, 190, 191, 192, 193, 194, 195, 196, 197, 198, 199, 200, 201, 202, 203, 204, 205, 206, 207, 208, 209, 210, 211, 212, 213, 214, 215, 216, 217, 218, 219, 220, 221, 222, 223, 224, 225, 226, 227, 228, 229, 230, 231, 232, 233, 234, 235, 236, 237, 238, 239, 240, 241, 242, 243, 244, 245, 246, 247, 248, 249, 250, 251, 252, 253, 254, 255, 256, 257, 258, 259, 260, 261, 262, 263, 264, 265, 266, 267, 268, 269, 270, 271, 272, 273, 274, 275, 276, 277, 278, 279, 280, 281, 282, 283, 284, 285, 286, 287, 288, 289, 290, 291, 292, 293, 294, 295, 296, 297, 298, 299, 300, 301, 302, 303, 304, 305, 306, 307, 308, 309, 310, 311, 312, 313, 314, 315, 316, 317, 318, 319, 320, 321, 322, 323, 324, 325, 326, 327, 328, 329, 330, 331, 332, 333, 334, 335, 336, 337, 338, 339, 340, 341, 342, 343, 344, 345, 346, 347, 348, 349, 350, 351, 352, 353, 354, 355, 356, 357, 358, 359, 360, 361, 362, 363, 364, 365, 366, 367, 368, 369, 370, 371, 372, 373, 374, 375, 376, 377, 378, 379, 380, 381, 382, 383, 384, 385, 386, 387, 388, 389, 390, 391, 392, 393, 394, 395, 396, 397, 398, 399, 400, 401, 402, 403, 404, 405, 406, 407, 408, 409, 410, 411, 412, 413, 414, 415, 416, 417, 418, 419, 420, 421, 422, 423, 424, 425, 426, 427, 428, 429, 430, 431, 432, 433, 434, 435, 436, 437, 438, 439, 440, 441, 442, 443, 444, 445, 446, 447, 448, 449, 450, 451, 452, 453, 454, 455, 456, 457, 458, 459, 460, 461, 462, 463, 464, 465, 466, 467, 468, 469, 470, 471, 472, 473, 474, 475, 476, 477, 478, 479, 480, 481, 482, 483, 484, 485, 486, 487, 488, 489, 490, 491, 492, 493, 494, 495, 496, 497, 498, 499, 500, 501, 502, 503, 504, 505, 506, 507, 508, 509, 510, 511, 512, 513, 514, 515, 516, 517, 518, 519, 520, 521, 522, 523, 524, 525, 526, 527, 528, 529, 530, 531, 532, 533, 534, 535, 536, 537, 538, 539, 540, 541, 542, 543, 544, 545, 546, 547, 548, 549, 550, 551, 552, 553, 554, 555, 556, 557, 558, 559, 560, 561, 562, 563, 564, 565, 566, 567, 568, 569, 570, 571, 572, 573, 574, 575, 576, 577, 578, 579, 580, 581],
      "AcquisitionTime": ["153349.722500", "153350.510000", "153351.300000", "153352.087500", "153352.875000", "153353.662500", "153354.452500", "153355.240000", "153356.027500", "153356.815000", "153357.605000", "153358.392500", "153359.180000", "153359.970000", "153400.757500", "153401.545000", "153402.332500", "153403.122500", "153403.910000", "153404.697500", "153405.485000", "153406.275000", "153407.062500", "153407.850000", "153408.637500", "153409.427500", "153410.215000", "153411.002500", "153411.790000", "153412.580000", "153413.367500", "153414.155000", "153414.942500", "153415.732500", "153416.520000", "153417.307500", "153418.097500", "153418.885000", "153419.672500", "153420.460000", "153421.250000", "153422.037500", "153422.825000", "153423.612500", "153424.402500", "153425.190000", "153425.977500", "153426.765000", "153427.555000", "153428.342500", "153429.130000", "153429.917500", "153430.707500", "153431.495000", "153432.282500", "153433.070000", "153433.860000", "153434.647500", "153435.435000", "153436.225000", "153437.012500", "153437.800000", "153438.587500", "153439.377500", "153440.165000", "153440.952500", "153441.740000", "153442.530000", "153443.317500", "153444.105000", "153444.892500", "153445.682500", "153446.470000", "153447.257500", "153448.045000", "153448.835000", "153449.622500", "153450.410000", "153451.200000", "153451.987500", "153452.775000", "153453.562500", "153454.352500", "153455.140000", "153455.927500", "153456.715000", "153457.505000", "153458.292500", "153459.080000", "153459.867500", "153500.657500", "153501.445000", "153502.232500", "153503.020000", "153503.810000", "153504.597500", "153505.385000", "153506.172500", "153506.962500", "153507.750000", "153508.537500", "153509.327500", "153510.115000", "153510.902500", "153511.690000", "153512.480000", "153513.267500", "153514.055000", "153514.842500", "153515.632500", "153516.420000", "153517.207500", "153517.995000", "153518.785000", "153519.572500", "153520.360000", "153521.147500", "153521.937500", "153522.725000", "153523.512500", "153524.300000", "153525.090000", "153525.877500", "153526.665000", "153527.455000", "153528.242500", "153529.030000", "153529.817500", "153530.607500", "153531.395000", "153532.182500", "153532.970000", "153533.760000", "153534.547500", "153535.335000", "153536.122500", "153536.912500", "153537.700000", "153538.487500", "153539.275000", "153540.065000", "153540.852500", "153541.640000", "153542.427500", "153543.217500", "153544.005000", "153544.792500", "153545.582500", "153546.370000", "153547.157500", "153547.945000", "153548.735000", "153549.522500", "153550.310000", "153551.097500", "153551.887500", "153552.675000", "153553.462500", "153554.250000", "153555.040000", "153555.827500", "153556.615000", "153557.402500", "153558.192500", "153558.980000", "153559.767500", "153600.555000", "153601.345000", "153602.132500", "153602.920000", "153603.710000", "153604.497500", "153605.285000", "153606.072500", "153606.862500", "153607.650000", "153608.437500", "153609.225000", "153610.015000", "153610.802500", "153611.590000", "153612.377500", "153613.167500", "153613.955000", "153614.742500", "153615.530000", "153616.320000", "153617.107500", "153617.895000", "153618.682500", "153619.472500", "153620.260000", "153621.047500", "153621.837500", "153622.625000", "153623.412500", "153624.200000", "153624.990000", "153625.777500", "153626.565000", "153627.352500", "153628.142500", "153628.930000", "153629.717500", "153630.505000", "153631.295000", "153632.082500", "153632.870000", "153633.657500", "153634.447500", "153635.235000", "153636.022500", "153636.810000", "153637.600000", "153638.387500", "153639.175000", "153639.965000", "153640.752500", "153641.540000", "153642.327500", "153643.117500", "153643.905000", "153644.692500", "153645.480000", "153646.270000", "153647.057500", "153647.845000", "153648.632500", "153649.422500", "153650.210000", "153650.997500", "153651.785000", "153652.575000", "153653.362500", "153654.150000", "153654.937500", "153655.727500", "153656.515000", "153657.302500", "153658.092500", "153658.880000", "153659.667500", "153700.455000", "153701.245000", "153702.032500", "153702.820000", "153703.607500", "153704.397500", "153705.185000", "153705.972500", "153706.760000", "153707.550000", "153708.337500", "153709.125000", "153709.912500", "153710.702500", "153711.490000", "153712.277500", "153713.065000", "153713.855000", "153714.642500", "153715.430000", "153716.220000", "153717.007500", "153717.795000", "153718.582500", "153719.372500", "153720.160000", "153720.947500", "153721.735000", "153722.525000", "153723.312500", "153724.100000", "153724.887500", "153725.677500", "153726.465000", "153727.252500", "153728.040000", "153728.830000", "153729.617500", "153730.405000", "153731.192500", "153731.982500", "153732.770000", "153733.557500", "153734.347500", "153735.135000", "153735.922500", "153736.710000", "153737.500000", "153738.287500", "153739.075000", "153739.862500", "153740.652500", "153741.440000", "153742.227500", "153743.015000", "153743.805000", "153744.592500", "153745.380000", "153746.167500", "153746.957500", "153747.745000", "153748.532500", "153749.320000", "153750.110000", "153750.897500", "153751.685000", "153752.475000", "153753.262500", "153754.050000", "153754.837500", "153755.627500", "153756.415000", "153757.202500", "153757.990000", "153758.780000", "153759.567500", "153800.355000", "153801.142500", "153801.932500", "153802.720000", "153803.507500", "153804.295000", "153805.085000", "153805.872500", "153806.660000", "153807.450000", "153808.237500", "153809.025000", "153809.812500", "153810.602500", "153811.390000", "153812.177500", "153812.965000", "153813.755000", "153814.542500", "153815.330000", "153816.117500", "153816.907500", "153817.695000", "153818.482500", "153819.270000", "153820.060000", "153820.847500", "153821.635000", "153822.422500", "153823.212500", "153824.000000", "153824.787500", "153825.577500", "153826.365000", "153827.152500", "153827.940000", "153828.730000", "153829.517500", "153830.305000", "153831.092500", "153831.882500", "153832.670000", "153833.457500", "153834.245000", "153835.035000", "153835.822500", "153836.610000", "153837.397500", "153838.187500", "153838.975000", "153839.762500", "153840.550000", "153841.340000", "153842.127500", "153842.915000", "153843.705000", "153844.492500", "153845.280000", "153846.067500", "153846.857500", "153847.645000", "153848.432500", "153849.220000", "153850.010000", "153850.797500", "153851.585000", "153852.372500", "153853.162500", "153853.950000", "153854.737500", "153855.525000", "153856.315000", "153857.102500", "153857.890000", "153858.677500", "153859.467500", "153900.255000", "153901.042500", "153901.832500", "153902.620000", "153903.407500", "153904.195000", "153904.985000", "153905.772500", "153906.560000", "153907.347500", "153908.137500", "153908.925000", "153909.712500", "153910.500000", "153911.290000", "153912.077500", "153912.865000", "153913.652500", "153914.442500", "153915.230000", "153916.017500", "153916.805000", "153917.595000", "153918.382500", "153919.170000", "153919.960000", "153920.747500", "153921.535000", "153922.322500", "153923.112500", "153923.900000", "153924.687500", "153925.475000", "153926.265000", "153927.052500", "153927.840000", "153928.627500", "153929.417500", "153930.205000", "153930.992500", "153931.780000", "153932.570000", "153933.357500", "153934.145000", "153934.932500", "153935.722500", "153936.510000", "153937.297500", "153938.087500", "153938.875000", "153939.662500", "153940.450000", "153941.240000", "153942.027500", "153942.815000", "153943.602500", "153944.392500", "153945.180000", "153945.967500", "153946.755000", "153947.545000", "153948.332500", "153949.120000", "153949.907500", "153950.697500", "153951.485000", "153952.272500", "153953.060000", "153953.850000", "153954.637500", "153955.425000", "153956.215000", "153957.002500", "153957.790000", "153958.577500", "153959.367500", "154000.155000", "154000.942500", "154001.730000", "154002.520000", "154003.307500", "154004.095000", "154004.882500", "154005.672500", "154006.460000", "154007.247500", "154008.035000", "154008.825000", "154009.612500", "154010.400000", "154011.187500", "154011.977500", "154012.765000", "154013.552500", "154014.342500", "154015.130000", "154015.917500", "154016.705000", "154017.495000", "154018.282500", "154019.070000", "154019.857500", "154020.647500", "154021.435000", "154022.222500", "154023.010000", "154023.800000", "154024.587500", "154025.375000", "154026.162500", "154026.952500", "154027.740000", "154028.527500", "154029.315000", "154030.105000", "154030.892500", "154031.680000", "154032.470000", "154033.257500", "154034.045000", "154034.832500", "154035.622500", "154036.410000", "154037.197500", "154037.985000", "154038.775000", "154039.562500", "154040.350000", "154041.137500", "154041.927500", "154042.715000", "154043.502500", "154044.290000", "154045.080000", "154045.867500", "154046.655000", "154047.442500", "154048.232500", "154049.020000", "154049.807500", "154050.597500", "154051.385000", "154052.172500", "154052.960000", "154053.750000", "154054.537500", "154055.325000", "154056.112500", "154056.902500", "154057.690000", "154058.477500", "154059.265000", "154100.055000", "154100.842500", "154101.630000", "154102.417500", "154103.207500", "154103.995000", "154104.782500", "154105.570000", "154106.360000", "154107.147500", "154107.935000", "154108.725000", "154109.512500", "154110.300000", "154111.087500", "154111.877500", "154112.665000", "154113.452500", "154114.240000", "154115.030000", "154115.817500", "154116.605000", "154117.392500", "154118.182500", "154118.970000", "154119.757500", "154120.545000", "154121.335000", "154122.122500", "154122.910000", "154123.700000", "154124.487500", "154125.275000", "154126.062500", "154126.852500"],
      "ContentTime": ["153409.890000", "153409.890000", "153409.890000", "153409.890000", "153409.890000", "153409.890000", "153409.890000", "153409.906000", "153409.906000", "153409.906000", "153409.906000", "153409.906000", "153409.906000", "153409.906000", "153409.906000", "153409.921000", "153409.921000", "153409.921000", "153409.921000", "153409.921000", "153409.921000", "153409.937000", "153409.937000", "153429.859000", "153429.859000", "153429.859000", "153429.859000", "153429.875000", "153429.875000", "153429.875000", "153429.875000", "153429.875000", "153429.875000", "153429.875000", "153429.875000", "153429.890000", "153429.890000", "153429.890000", "153429.890000", "153429.890000", "153429.890000", "153429.906000", "153429.906000", "153429.906000", "153429.906000", "153429.906000", "153429.906000", "153429.906000", "153449.859000", "153449.859000", "153449.859000", "153449.859000", "153449.875000", "153449.875000", "153449.875000", "153449.875000", "153449.875000", "153449.875000", "153449.875000", "153449.875000", "153449.890000", "153449.890000", "153449.890000", "153449.890000", "153449.890000", "153449.890000", "153449.890000", "153449.906000", "153449.906000", "153449.906000", "153449.906000", "153449.906000", "153449.906000", "153449.906000", "153509.859000", "153509.859000", "153509.859000", "153509.859000", "153509.875000", "153509.875000", "153509.875000", "153509.875000", "153509.875000", "153509.875000", "153509.875000", "153509.890000", "153509.890000", "153509.890000", "153509.890000", "153509.890000", "153509.890000", "153509.890000", "153509.890000", "153509.906000", "153509.906000", "153509.906000", "153509.906000", "153509.906000", "153509.921000", "153529.859000", "153529.859000", "153529.859000", "153529.859000", "153529.875000", "153529.875000", "153529.875000", "153529.875000", "153529.875000", "153529.875000", "153529.875000", "153529.875000", "153529.890000", "153529.890000", "153529.890000", "153529.890000", "153529.890000", "153529.890000", "153529.890000", "153529.890000", "153529.906000", "153529.906000", "153529.906000", "153529.906000", "153529.906000", "153529.906000", "153549.859000", "153549.859000", "153549.859000", "153549.859000", "153549.875000", "153549.875000", "153549.875000", "153549.875000", "153549.875000", "153549.875000", "153549.875000", "153549.875000", "153549.890000", "153549.890000", "153549.890000", "153549.890000", "153549.890000", "153549.890000", "153549.890000", "153549.906000", "153549.906000", "153549.906000", "153549.906000", "153549.906000", "153549.906000", "153609.859000", "153609.859000", "153609.859000", "153609.875000", "153609.875000", "153609.875000", "153609.875000", "153609.875000", "153609.875000", "153609.875000", "153609.875000", "153609.890000", "153609.890000", "153609.890000", "153609.890000", "153609.890000", "153609.906000", "153609.906000", "153609.906000", "153609.906000", "153609.906000", "153609.906000", "153609.906000", "153609.921000", "153609.921000", "153609.921000", "153629.859000", "153629.859000", "153629.859000", "153629.859000", "153629.875000", "153629.875000", "153629.875000", "153629.875000", "153629.875000", "153629.875000", "153629.875000", "153629.875000", "153629.890000", "153629.890000", "153629.890000", "153629.890000", "153629.890000", "153629.890000", "153629.906000", "153629.906000", "153629.906000", "153629.906000", "153629.906000", "153629.921000", "153629.921000", "153649.859000", "153649.859000", "153649.859000", "153649.859000", "153649.875000", "153649.875000", "153649.875000", "153649.875000", "153649.875000", "153649.875000", "153649.875000", "153649.875000", "153649.890000", "153649.890000", "153649.890000", "153649.890000", "153649.890000", "153649.890000", "153649.890000", "153649.906000", "153649.906000", "153649.906000", "153649.906000", "153649.906000", "153649.906000", "153649.906000", "153709.859000", "153709.859000", "153709.859000", "153709.859000", "153709.875000", "153709.875000", "153709.875000", "153709.875000", "153709.875000", "153709.875000", "153709.890000", "153709.890000", "153709.890000", "153709.890000", "153709.890000", "153709.890000", "153709.890000", "153709.906000", "153709.906000", "153709.906000", "153709.906000", "153709.906000", "153709.906000", "153709.906000", "153709.921000", "153729.859000", "153729.859000", "153729.859000", "153729.859000", "153729.875000", "153729.875000", "153729.875000", "153729.875000", "153729.875000", "153729.875000", "153729.890000", "153729.890000", "153729.890000", "153729.890000", "153729.890000", "153729.890000", "153729.890000", "153729.890000", "153729.906000", "153729.906000", "153729.906000", "153729.906000", "153729.906000", "153729.906000", "153729.906000", "153729.921000", "153749.859000", "153749.859000", "153749.859000", "153749.859000", "153749.875000", "153749.875000", "153749.875000", "153749.875000", "153749.875000", "153749.890000", "153749.890000", "153749.890000", "153749.890000", "153749.890000", "153749.890000", "153749.890000", "153749.890000", "153749.906000", "153749.906000", "153749.906000", "153749.906000", "153749.906000", "153749.906000", "153749.921000", "153749.921000", "153809.859000", "153809.859000", "153809.859000", "153809.859000", "153809.875000", "153809.875000", "153809.875000", "153809.875000", "153809.875000", "153809.875000", "153809.890000", "153809.890000", "153809.890000", "153809.890000", "153809.890000", "153809.890000", "153809.906000", "153809.906000", "153809.906000", "153809.906000", "153809.906000", "153809.906000", "153809.906000", "153809.921000", "153809.921000", "153829.859000", "153829.859000", "153829.859000", "153829.859000", "153829.875000", "153829.875000", "153829.875000", "153829.875000", "153829.875000", "153829.890000", "153829.890000", "153829.890000", "153829.890000", "153829.890000", "153829.890000", "153829.906000", "153829.906000", "153829.906000", "153829.906000", "153829.906000", "153829.906000", "153829.906000", "153829.921000", "153829.921000", "153829.921000", "153829.921000", "153849.859000", "153849.859000", "153849.859000", "153849.859000", "153849.875000", "153849.875000", "153849.875000", "153849.875000", "153849.875000", "153849.875000", "153849.875000", "153849.875000", "153849.890000", "153849.890000", "153849.890000", "153849.890000", "153849.890000", "153849.906000", "153849.906000", "153849.906000", "153849.906000", "153849.906000", "153849.906000", "153849.921000", "153849.921000", "153909.859000", "153909.859000", "153909.859000", "153909.859000", "153909.875000", "153909.875000", "153909.875000", "153909.875000", "153909.875000", "153909.875000", "153909.875000", "153909.875000", "153909.890000", "153909.890000", "153909.890000", "153909.890000", "153909.890000", "153909.890000", "153909.890000", "153909.906000", "153909.906000", "153909.906000", "153909.906000", "153909.906000", "153909.906000", "153909.906000", "153929.859000", "153929.859000", "153929.859000", "153929.859000", "153929.875000", "153929.875000", "153929.875000", "153929.875000", "153929.875000", "153929.875000", "153929.875000", "153929.875000", "153929.890000", "153929.890000", "153929.890000", "153929.890000", "153929.890000", "153929.890000", "153929.890000", "153929.906000", "153929.906000", "153929.906000", "153929.906000", "153929.906000", "153929.906000", "153949.859000", "153949.859000", "153949.859000", "153949.859000", "153949.875000", "153949.875000", "153949.875000", "153949.875000", "153949.875000", "153949.875000", "153949.875000", "153949.875000", "153949.890000", "153949.890000", "153949.890000", "153949.890000", "153949.890000", "153949.890000", "153949.890000", "153949.906000", "153949.906000", "153949.906000", "153949.906000", "153949.906000", "153949.906000", "153949.921000", "154009.859000", "154009.859000", "154009.859000", "154009.859000", "154009.875000", "154009.875000", "154009.875000", "154009.875000", "154009.875000", "154009.875000", "154009.875000", "154009.890000", "154009.890000", "154009.890000", "154009.890000", "154009.890000", "154009.890000", "154009.890000", "154009.890000", "154009.906000", "154009.906000", "154009.906000", "154009.906000", "154009.906000", "154009.906000", "154029.859000", "154029.859000", "154029.859000", "154029.859000", "154029.875000", "154029.875000", "154029.875000", "154029.875000", "154029.875000", "154029.875000", "154029.875000", "154029.875000", "154029.890000", "154029.890000", "154029.890000", "154029.890000", "154029.890000", "154029.890000", "154029.890000", "154029.906000", "154029.906000", "154029.906000", "154029.906000", "154029.906000", "154029.906000", "154029.921000", "154049.859000", "154049.859000", "154049.859000", "154049.859000", "154049.875000", "154049.875000", "154049.875000", "154049.875000", "154049.875000", "154049.875000", "154049.875000", "154049.875000", "154049.890000", "154049.890000", "154049.890000", "154049.890000", "154049.890000", "154049.890000", "154049.890000", "154049.906000", "154049.906000", "154049.906000", "154049.906000", "154049.906000", "154049.906000", "154109.859000", "154109.859000", "154109.859000", "154109.859000", "154109.875000", "154109.875000", "154109.875000", "154109.875000", "154109.875000", "154109.875000", "154109.875000", "154109.875000", "154109.890000", "154109.890000", "154109.890000", "154109.890000", "154109.890000", "154109.890000", "154109.906000", "154109.906000", "154109.906000", "154109.906000", "154109.906000", "154109.921000", "154109.921000", "154109.921000", "154127.750000", "154127.765000", "154127.765000", "154127.765000", "154127.765000", "154127.765000", "154127.765000", "154127.765000", "154127.765000", "154127.781000", "154127.781000", "154127.781000", "154127.781000", "154127.781000", "154127.781000", "154127.781000", "154127.796000", "154127.796000", "154127.796000", "154127.796000", "154127.796000", "154127.796000", "154127.796000"],
