{
  "AcquisitionMatrixPE": 104,
  "AcquisitionNumber": 1,
  "AcquisitionTime": "16:11:11.742500",
  "BandwidthPerPixelPhaseEncode": 13.935,
  "BaseResolution": 104,
  "CoilString": "C:HEA;HEP",
  "ConversionSoftware": "dcm2niix",
  "ConversionSoftwareVersion": "v1.0.20210317",
  "DerivedVendorReportedEchoSpacing": 0.000690017,
  "DeviceSerialNumber": "35450",
  "DwellTime": 2.5e-06,
  "EchoTime": 0.0348,
  "EffectiveEchoSpacing": 0.000690017,
  "FlipAngle": 55,
  "ImageComments": "Unaliased MB8/PE3",
  "ImageOrientationPatientDICOM": [0.999972, 0.00164686, -0.00730785, -4.64302e-09, 0.975536, 0.219842],
  "ImageType": [
    "ORIGINAL",
    "PRIMARY",
    "M",
    "MB",
    "ND",
    "MOSAIC"
],
  "ImagingFrequency": 123.235,
  "InPlanePhaseEncodingDirectionDICOM": "COL",
  "InstitutionAddress": "Univeristy Ave. 197,Newark,North East,US,07102-1814",
  "InstitutionName": "RUBIC",
  "InstitutionalDepartmentName": "Department",
  "MRAcquisitionType": "2D",
  "MagneticFieldStrength": 3,
  "Manufacturer": "Siemens",
  "ManufacturersModelName": "TrioTim",
  "Modality": "MR",
  "MultibandAccelerationFactor": 8,
  "PartialFourier": 0.875,
  "PatientPosition": "HFS",
  "PercentPhaseFOV": 100,
  "PercentSampling": 100,
  "PhaseEncodingDirection": "j-",
  "PhaseEncodingSteps": 91,
  "PhaseResolution": 1,
  "PixelBandwidth": 1923,
  "ProcedureStepDescription": "Cole^Michael",
  "ProtocolName": "cmrr_mbep2d_bold_2mm_MB8_Task_8x",
  "PulseSequenceDetails": "%CustomerSeq%\\cmrr_mbep2d_bold",
  "ReceiveCoilName": "32Ch_Head",
  "ReconMatrixPE": 104,
  "RepetitionTime": 0.785,
  "SAR": 0.123848,
  "ScanOptions": "PFP\\FS",
  "ScanningSequence": "EP",
  "SequenceName": "epfid2d1_104",
  "SequenceVariant": "SK\\SS",
  "SeriesDescription": "cmrr_mbep2d_bold_2mm_MB8_Task_8x",
  "SeriesNumber": 17,
  "ShimSetting": [2086, -507, -7521, 639, -60, -499, -157, 149],
  "SliceThickness": 2,
  "SliceTiming": [0, 0.4375, 0.0875, 0.525, 0.175, 0.6125, 0.2625, 0.7, 0.35, 0, 0.4375, 0.0875, 0.525, 0.175, 0.6125, 0.2625, 0.7, 0.35, 0, 0.4375, 0.0875, 0.525, 0.175, 0.6125, 0.2625, 0.7, 0.35, 0, 0.4375, 0.0875, 0.525, 0.175, 0.6125, 0.2625, 0.7, 0.35, 0, 0.4375, 0.0875, 0.525, 0.175, 0.6125, 0.2625, 0.7, 0.35, 0, 0.4375, 0.0875, 0.525, 0.175, 0.6125, 0.2625, 0.7, 0.35, 0, 0.4375, 0.0875, 0.525, 0.175, 0.6125, 0.2625, 0.7, 0.35, 0, 0.4375, 0.0875, 0.525, 0.175, 0.6125, 0.2625, 0.7, 0.35],
  "SoftwareVersions": "syngo MR B19",
  "SpacingBetweenSlices": 2,
  "StationName": "MRC35450",
  "TaskName": "cpro",
  "TotalReadoutTime": 0.0710717,
  "TxRefAmp": 325.76,
  "dcmmeta_affine": [
    [-1.9999438524246216, -9.286045710155122e-09, -0.01498223003000021, 102.52422332763672],
    [-0.0032937268260866404, 1.9510711431503296, 0.43967095017433167, -82.05259704589844],
    [-0.014615695923566818, -0.4396832585334778, 1.9510164260864258, -70.2973403930664],
    [0.0, 0.0, 0.0, 1.0]
],
  "dcmmeta_reorient_transform": [
    [0.0, -1.0, 0.0, 103.0],
    [1.0, 0.0, 0.0, 0.0],
    [0.0, 0.0, 1.0, 0.0],
    [0.0, 0.0, 0.0, 1.0]
],
  "dcmmeta_shape": [104, 104, 72, 581],
  "dcmmeta_slice_dim": 2,
  "dcmmeta_version": 0.6,
  "global": {
    "const": {
      "AcquisitionMatrix": [104, 0, 0, 104],
      "AngioFlag": "N",
      "BitsAllocated": 16,
      "BitsStored": 12,
      "Columns": 936,
      "EchoNumbers": 1,
      "EchoTime": 34.8,
      "EchoTrainLength": 1,
      "FlipAngle": 55.0,
      "HighBit": 11,
      "ImageOrientationPatient": [0.99997194120687, 0.00164686340081, -0.0073078478302, -4.643023e-09, 0.97553557443798, 0.2198416316487],
      "ImagePositionPatient": [-934.50087479085, -931.92352162851, -292.41282282596],
      "ImageType": [
        "ORIGINAL",
        "PRIMARY",
        "M",
        "MB",
        "ND",
        "MOSAIC"
],
      "ImagedNucleus": "1H",
      "ImagingFrequency": 123.234671,
      "InPlanePhaseEncodingDirection": "COL",
      "MRAcquisitionType": "2D",
      "MagneticFieldStrength": 3.0,
      "Manufacturer": "SIEMENS",
      "ManufacturerModelName": "TrioTim",
      "Modality": "MR",
      "NumberOfAverages": 1.0,
      "NumberOfPhaseEncodingSteps": 91,
      "PercentPhaseFieldOfView": 100.0,
      "PercentSampling": 100.0,
      "PerformedProcedureStepStartTime": "143941.640000",
      "PhotometricInterpretation": "MONOCHROME2",
      "PixelBandwidth": 1923.0,
      "PixelRepresentation": 0,
      "PixelSpacing": [2.0, 2.0],
      "ProtocolName": "cmrr_mbep2d_bold_2mm_MB8_Task_8x",
      "RepetitionTime": 785.0,
      "Rows": 936,
      "SAR": 0.12384850096629,
      "SamplesPerPixel": 1,
      "ScanOptions": [
        "PFP",
        "FS"
],
      "ScanningSequence": "EP",
      "SequenceName": "epfid2d1_104",
      "SequenceVariant": [
        "SK",
        "SS"
],
      "SeriesDescription": "cmrr_mbep2d_bold_2mm_MB8_Task_8x",
      "SeriesNumber": 17,
      "SeriesTime": "165203.000000",
      "SliceLocation": -87.381721301645,
      "SliceThickness": 2.0,
      "SmallestImagePixelValue": 0,
      "SoftwareVersions": "syngo MR B19",
      "SpacingBetweenSlices": 2.0000000431822,
      "SpecificCharacterSet": "ISO_IR 100",
      "StudyID": "1",
      "StudyTime": "143941.593000",
      "TransmitCoilName": "Body",
      "VariableFlipAngleFlag": "N",
      "WindowCenterWidthExplanation": "Algo1",
      "dBdt": 0.0},
    "slices": {}
  },
  "time": {
    "samples": {
      "AcquisitionNumber": [1, 2, 3, 4, 5, 6, 7, 8, 9, 10, 11, 12, 13, 14, 15, 16, 17, 18, 19, 20, 21, 22, 23, 24, 25, 26, 27, 28, 29, 30, 31, 32, 33, 34, 35, 36, 37, 38, 39, 40, 41, 42, 43, 44, 45, 46, 47, 48, 49, 50, 51, 52, 53, 54, 55, 56, 57, 58, 59, 60, 61, 62, 63, 64, 65, 66, 67, 68, 69, 70, 71, 72, 73, 74, 75, 76, 77, 78, 79, 80, 81, 82, 83, 84, 85, 86, 87, 88, 89, 90, 91, 92, 93, 94, 95, 96, 97, 98, 99, 100, 101, 102, 103, 104, 105, 106, 107, 108, 109, 110, 111, 112, 113, 114, 115, 116, 117, 118, 119, 120, 121, 122, 123, 124, 125, 126, 127, 128, 129, 130, 131, 132, 133, 134, 135, 136, 137, 138, 139, 140, 141, 142, 143, 144, 145, 146, 147, 148, 149, 150, 151, 152, 153, 154, 155, 156, 157, 158, 159, 160, 161, 162, 163, 164, 165, 166, 167, 168, 169, 170, 171, 172, 173, 174, 175, 176, 177, 178, 179, 180, 181, 182, 183, 184, 185, 186, 187, 188, 189, 190, 191, 192, 193, 194, 195, 196, 197, 198, 199, 200, 201, 202, 203, 204, 205, 206, 207, 208, 209, 210, 211, 212, 213, 214, 215, 216, 217, 218, 219, 220, 221, 222, 223, 224, 225, 226, 227, 228, 229, 230, 231, 232, 233, 234, 235, 236, 237, 238, 239, 240, 241, 242, 243, 244, 245, 246, 247, 248, 249, 250, 251, 252, 253, 254, 255, 256, 257, 258, 259, 260, 261, 262, 263, 264, 265, 266, 267, 268, 269, 270, 271, 272, 273, 274, 275, 276, 277, 278, 279, 280, 281, 282, 283, 284, 285, 286, 287, 288, 289, 290, 291, 292, 293, 294, 295, 296, 297, 298, 299, 300, 301, 302, 303, 304, 305, 306, 307, 308, 309, 310, 311, 312, 313, 314, 315, 316, 317, 318, 319, 320, 321, 322, 323, 324, 325, 326, 327, 328, 329, 330, 331, 332, 333, 334, 335, 336, 337, 338, 339, 340, 341, 342, 343, 344, 345, 346, 347, 348, 349, 350, 351, 352, 353, 354, 355, 356, 357, 358, 359, 360, 361, 362, 363, 364, 365, 366, 367, 368, 369, 370, 371, 372, 373, 374, 375, 376, 377, 378, 379, 380, 381, 382, 383, 384, 385, 386, 387, 388, 389, 390, 391, 392, 393, 394, 395, 396, 397, 398, 399, 400, 401, 402, 403, 404, 405, 406, 407, 408, 409, 410, 411, 412, 413, 414, 415, 416, 417, 418, 419, 420, 421, 422, 423, 424, 425, 426, 427, 428, 429, 430, 431, 432, 433, 434, 435, 436, 437, 438, 439, 440, 441, 442, 443, 444, 445, 446, 447, 448, 449, 450, 451, 452, 453, 454, 455, 456, 457, 458, 459, 460, 461, 462, 463, 464, 465, 466, 467, 468, 469, 470, 471, 472, 473, 474, 475, 476, 477, 478, 479, 480, 481, 482, 483, 484, 485, 486, 487, 488, 489, 490, 491, 492, 493, 494, 495, 496, 497, 498, 499, 500, 501, 502, 503, 504, 505, 506, 507, 508, 509, 510, 511, 512, 513, 514, 515, 516, 517, 518, 519, 520, 521, 522, 523, 524, 525, 526, 527, 528, 529, 530, 531, 532, 533, 534, 535, 536, 537, 538, 539, 540, 541, 542, 543, 544, 545, 546, 547, 548, 549, 550, 551, 552, 553, 554, 555, 556, 557, 558, 559, 560, 561, 562, 563, 564, 565, 566, 567, 568, 569, 570, 571, 572, 573, 574, 575, 576, 577, 578, 579, 580, 581],
      "AcquisitionTime": ["161111.742500", "161112.530000", "161113.317500", "161114.107500", "161114.895000", "161115.682500", "161116.470000", "161117.260000", "161118.047500", "161118.835000", "161119.622500", "161120.412500", "161121.200000", "161121.987500", "161122.775000", "161123.565000", "161124.352500", "161125.140000", "161125.930000", "161126.717500", "161127.505000", "161128.292500", "161129.082500", "161129.870000", "161130.657500", "161131.445000", "161132.235000", "161133.022500", "161133.810000", "161134.597500", "161135.387500", "161136.175000", "161136.962500", "161137.750000", "161138.540000", "161139.327500", "161140.115000", "161140.902500", "161141.692500", "161142.480000", "161143.267500", "161144.057500", "161144.845000", "161145.632500", "161146.420000", "161147.210000", "161147.997500", "161148.785000", "161149.572500", "161150.362500", "161151.150000", "161151.937500", "161152.725000", "161153.515000", "161154.302500", "161155.090000", "161155.877500", "161156.667500", "161157.455000", "161158.242500", "161159.032500", "161159.820000", "161200.607500", "161201.395000", "161202.185000", "161202.972500", "161203.760000", "161204.547500", "161205.337500", "161206.125000", "161206.912500", "161207.700000", "161208.490000", "161209.277500", "161210.065000", "161210.852500", "161211.642500", "161212.430000", "161213.217500", "161214.005000", "161214.795000", "161215.582500", "161216.370000", "161217.160000", "161217.947500", "161218.735000", "161219.522500", "161220.312500", "161221.100000", "161221.887500", "161222.675000", "161223.465000", "161224.252500", "161225.040000", "161225.827500", "161226.617500", "161227.405000", "161228.192500", "161228.980000", "161229.770000", "161230.557500", "161231.345000", "161232.132500", "161232.922500", "161233.710000", "161234.497500", "161235.287500", "161236.075000", "161236.862500", "161237.650000", "161238.440000", "161239.227500", "161240.015000", "161240.802500", "161241.592500", "161242.380000", "161243.167500", "161243.955000", "161244.745000", "161245.532500", "161246.320000", "161247.107500", "161247.897500", "161248.685000", "161249.472500", "161250.260000", "161251.050000", "161251.837500", "161252.625000", "161253.415000", "161254.202500", "161254.990000", "161255.777500", "161256.567500", "161257.355000", "161258.142500", "161258.930000", "161259.720000", "161300.507500", "161301.295000", "161302.082500", "161302.872500", "161303.660000", "161304.447500", "161305.235000", "161306.025000", "161306.812500", "161307.600000", "161308.387500", "161309.177500", "161309.965000", "161310.752500", "161311.542500", "161312.330000", "161313.117500", "161313.905000", "161314.695000", "161315.482500", "161316.270000", "161317.057500", "161317.847500", "161318.635000", "161319.422500", "161320.210000", "161321.000000", "161321.787500", "161322.575000", "161323.362500", "161324.152500", "161324.940000", "161325.727500", "161326.515000", "161327.305000", "161328.092500", "161328.880000", "161329.670000", "161330.457500", "161331.245000", "161332.032500", "161332.822500", "161333.610000", "161334.397500", "161335.185000", "161335.975000", "161336.762500", "161337.550000", "161338.337500", "161339.127500", "161339.915000", "161340.702500", "161341.490000", "161342.280000", "161343.067500", "161343.855000", "161344.642500", "161345.432500", "161346.220000", "161347.007500", "161347.797500", "161348.585000", "161349.372500", "161350.160000", "161350.950000", "161351.737500", "161352.525000", "161353.312500", "161354.102500", "161354.890000", "161355.677500", "161356.465000", "161357.255000", "161358.042500", "161358.830000", "161359.617500", "161400.407500", "161401.195000", "161401.982500", "161402.770000", "161403.560000", "161404.347500", "161405.135000", "161405.925000", "161406.712500", "161407.500000", "161408.287500", "161409.077500", "161409.865000", "161410.652500", "161411.440000", "161412.230000", "161413.017500", "161413.805000", "161414.592500", "161415.382500", "161416.170000", "161416.957500", "161417.745000", "161418.535000", "161419.322500", "161420.110000", "161420.897500", "161421.687500", "161422.475000", "161423.262500", "161424.052500", "161424.840000", "161425.627500", "161426.415000", "161427.205000", "161427.992500", "161428.780000", "161429.567500", "161430.357500", "161431.145000", "161431.932500", "161432.720000", "161433.510000", "161434.297500", "161435.085000", "161435.872500", "161436.662500", "161437.450000", "161438.237500", "161439.025000", "161439.815000", "161440.602500", "161441.390000", "161442.180000", "161442.967500", "161443.755000", "161444.542500", "161445.332500", "161446.120000", "161446.907500", "161447.695000", "161448.485000", "161449.272500", "161450.060000", "161450.847500", "161451.637500", "161452.425000", "161453.212500", "161454.000000", "161454.790000", "161455.577500", "161456.365000", "161457.152500", "161457.942500", "161458.730000", "161459.517500", "161500.307500", "161501.095000", "161501.882500", "161502.670000", "161503.460000", "161504.247500", "161505.035000", "161505.822500", "161506.612500", "161507.400000", "161508.187500", "161508.975000", "161509.765000", "161510.552500", "161511.340000", "161512.127500", "161512.917500", "161513.705000", "161514.492500", "161515.282500", "161516.070000", "161516.857500", "161517.645000", "161518.435000", "161519.222500", "161520.010000", "161520.797500", "161521.587500", "161522.375000", "161523.162500", "161523.950000", "161524.740000", "161525.527500", "161526.315000", "161527.102500", "161527.892500", "161528.680000", "161529.467500", "161530.255000", "161531.045000", "161531.832500", "161532.620000", "161533.410000", "161534.197500", "161534.985000", "161535.772500", "161536.562500", "161537.350000", "161538.137500", "161538.925000", "161539.715000", "161540.502500", "161541.290000", "161542.077500", "161542.867500", "161543.655000", "161544.442500", "161545.230000", "161546.020000", "161546.807500", "161547.595000", "161548.382500", "161549.172500", "161549.960000", "161550.747500", "161551.537500", "161552.325000", "161553.112500", "161553.900000", "161554.690000", "161555.477500", "161556.265000", "161557.052500", "161557.842500", "161558.630000", "161559.417500", "161600.205000", "161600.995000", "161601.782500", "161602.570000", "161603.357500", "161604.147500", "161604.935000", "161605.722500", "161606.510000", "161607.300000", "161608.087500", "161608.875000", "161609.665000", "161610.452500", "161611.240000", "161612.027500", "161612.817500", "161613.605000", "161614.392500", "161615.180000", "161615.970000", "161616.757500", "161617.545000", "161618.332500", "161619.122500", "161619.910000", "161620.697500", "161621.485000", "161622.275000", "161623.062500", "161623.850000", "161624.637500", "161625.427500", "161626.215000", "161627.002500", "161627.792500", "161628.580000", "161629.367500", "161630.155000", "161630.945000", "161631.732500", "161632.520000", "161633.307500", "161634.097500", "161634.885000", "161635.672500", "161636.460000", "161637.250000", "161638.037500", "161638.825000", "161639.612500", "161640.402500", "161641.190000", "161641.977500", "161642.765000", "161643.555000", "161644.342500", "161645.130000", "161645.920000", "161646.707500", "161647.495000", "161648.282500", "161649.072500", "161649.860000", "161650.647500", "161651.435000", "161652.225000", "161653.012500", "161653.800000", "161654.587500", "161655.377500", "161656.165000", "161656.952500", "161657.740000", "161658.530000", "161659.317500", "161700.105000", "161700.892500", "161701.682500", "161702.470000", "161703.257500", "161704.047500", "161704.835000", "161705.622500", "161706.410000", "161707.200000", "161707.987500", "161708.775000", "161709.562500", "161710.352500", "161711.140000", "161711.927500", "161712.715000", "161713.505000", "161714.292500", "161715.080000", "161715.867500", "161716.657500", "161717.445000", "161718.232500", "161719.020000", "161719.810000", "161720.597500", "161721.385000", "161722.175000", "161722.962500", "161723.750000", "161724.537500", "161725.327500", "161726.115000", "161726.902500", "161727.690000", "161728.480000", "161729.267500", "161730.055000", "161730.842500", "161731.632500", "161732.420000", "161733.207500", "161733.995000", "161734.785000", "161735.572500", "161736.360000", "161737.147500", "161737.937500", "161738.725000", "161739.512500", "161740.302500", "161741.090000", "161741.877500", "161742.665000", "161743.455000", "161744.242500", "161745.030000", "161745.817500", "161746.607500", "161747.395000", "161748.182500", "161748.970000", "161749.760000", "161750.547500", "161751.335000", "161752.122500", "161752.912500", "161753.700000", "161754.487500", "161755.275000", "161756.065000", "161756.852500", "161757.640000", "161758.430000", "161759.217500", "161800.005000", "161800.792500", "161801.582500", "161802.370000", "161803.157500", "161803.945000", "161804.735000", "161805.522500", "161806.310000", "161807.097500", "161807.887500", "161808.675000", "161809.462500", "161810.250000", "161811.040000", "161811.827500", "161812.615000", "161813.402500", "161814.192500", "161814.980000", "161815.767500", "161816.557500", "161817.345000", "161818.132500", "161818.920000", "161819.710000", "161820.497500", "161821.285000", "161822.072500", "161822.862500", "161823.650000", "161824.437500", "161825.225000", "161826.015000", "161826.802500", "161827.590000", "161828.377500", "161829.167500", "161829.955000", "161830.742500", "161831.532500", "161832.320000", "161833.107500", "161833.895000", "161834.685000", "161835.472500", "161836.260000", "161837.047500", "161837.837500", "161838.625000", "161839.412500", "161840.200000", "161840.990000", "161841.777500", "161842.565000", "161843.352500", "161844.142500", "161844.930000", "161845.717500", "161846.505000", "161847.295000", "161848.082500", "161848.870000"],
      "ContentTime": ["165203.015000", "165203.015000", "165203.015000", "165203.015000", "165203.015000", "165203.015000", "165302.984000", "165302.984000", "165302.984000", "165302.984000", "165302.984000", "165303.000000", "165303.000000", "165303.000000", "165303.000000", "165303.000000", "165303.000000", "165303.000000", "165303.015000", "165303.015000", "165303.015000", "165303.015000", "165303.015000", "165303.015000", "165303.015000", "165303.031000", "165303.031000", "165303.031000", "165303.031000", "165303.031000", "165303.031000", "165303.031000", "165303.046000", "165303.046000", "165402.984000", "165402.984000", "165402.984000", "165402.984000", "165402.984000", "165403.000000", "165403.000000", "165403.000000", "165403.000000", "165403.000000", "165403.000000", "165403.000000", "165403.015000", "165403.015000", "165403.015000", "165403.015000", "165403.015000", "165403.031000", "165403.031000", "165403.031000", "165403.031000", "165403.031000", "165403.031000", "165403.031000", "165403.046000", "165403.046000", "165403.046000", "165403.046000", "165502.984000", "165502.984000", "165502.984000", "165502.984000", "165502.984000", "165503.000000", "165503.000000", "165503.000000", "165503.000000", "165503.000000", "165503.000000", "165503.000000", "165503.015000", "165503.015000", "165503.015000", "165503.015000", "165503.015000", "165503.015000", "165503.015000", "165503.031000", "165503.031000", "165503.031000", "165503.031000", "165503.031000", "165503.046000", "165503.046000", "165503.046000", "165602.984000", "165602.984000", "165602.984000", "165602.984000", "165602.984000", "165603.000000", "165603.000000", "165603.000000", "165603.000000", "165603.000000", "165603.000000", "165603.000000", "165603.015000", "165603.015000", "165603.015000", "165603.015000", "165603.015000", "165603.015000", "165603.031000", "165603.031000", "165603.031000", "165603.031000", "165603.031000", "165603.031000", "165603.046000", "165603.046000", "165603.046000", "165603.046000", "165702.984000", "165702.984000", "165702.984000", "165702.984000", "165702.984000", "165703.000000", "165703.000000", "165703.000000", "165703.000000", "165703.000000", "165703.000000", "165703.000000", "165703.015000", "165703.015000", "165703.015000", "165703.015000", "165703.015000", "165703.015000", "165703.015000", "165703.031000", "165703.031000", "165703.031000", "165703.031000", "165703.031000", "165703.031000", "165703.031000", "165703.046000", "165802.984000", "165802.984000", "165802.984000", "165802.984000", "165802.984000", "165803.000000", "165803.000000", "165803.000000", "165803.000000", "165803.000000", "165803.000000", "165803.000000", "165803.015000", "165803.015000", "165803.015000", "165803.015000", "165803.015000", "165803.015000", "165803.031000", "165803.031000", "165803.031000", "165803.031000", "165803.031000", "165803.031000", "165803.031000", "165803.046000", "165803.046000", "165902.984000", "165902.984000", "165902.984000", "165902.984000", "165902.984000", "165903.000000", "165903.000000", "165903.000000", "165903.000000", "165903.000000", "165903.000000", "165903.000000", "165903.015000", "165903.015000", "165903.015000", "165903.015000", "165903.015000", "165903.015000", "165903.015000", "165903.031000", "165903.031000", "165903.031000", "165903.031000", "165903.031000", "165903.031000", "165903.046000", "165903.046000", "165903.046000", "170002.984000", "170002.984000", "170002.984000", "170002.984000", "170002.984000", "170003.000000", "170003.000000", "170003.000000", "170003.000000", "170003.000000", "170003.000000", "170003.000000", "170003.015000", "170003.015000", "170003.015000", "170003.015000", "170003.015000", "170003.015000", "170003.015000", "170003.031000", "170003.031000", "170003.031000", "170003.031000", "170003.031000", "170003.031000", "170003.031000", "170003.046000", "170102.984000", "170102.984000", "170102.984000", "170102.984000", "170102.984000", "170103.000000", "170103.000000", "170103.000000", "170103.000000", "170103.000000", "170103.000000", "170103.000000", "170103.015000", "170103.015000", "170103.015000", "170103.015000", "170103.015000", "170103.015000", "170103.015000", "170103.031000", "170103.031000", "170103.031000", "170103.031000", "170103.031000", "170103.031000", "170103.031000", "170103.046000", "170103.046000", "170202.984000", "170202.984000", "170202.984000", "170203.000000", "170203.000000", "170203.000000", "170203.000000", "170203.000000", "170203.000000", "170203.000000", "170203.015000", "170203.015000", "170203.015000", "170203.015000", "170203.015000", "170203.015000", "170203.015000", "170203.031000", "170203.031000", "170203.031000", "170203.031000", "170203.031000", "170203.031000", "170203.046000", "170203.046000", "170203.046000", "170203.046000", "170302.984000", "170302.984000", "170302.984000", "170302.984000", "170303.000000", "170303.000000", "170303.000000", "170303.000000", "170303.000000", "170303.000000", "170303.015000", "170303.015000", "170303.015000", "170303.015000", "170303.015000", "170303.015000", "170303.015000", "170303.031000", "170303.031000", "170303.031000", "170303.031000", "170303.031000", "170303.046000", "170303.046000", "170303.046000", "170303.046000", "170303.046000", "170303.062000", "170402.984000", "170402.984000", "170402.984000", "170402.984000", "170403.000000", "170403.000000", "170403.000000", "170403.000000", "170403.000000", "170403.000000", "170403.015000", "170403.015000", "170403.015000", "170403.015000", "170403.015000", "170403.015000", "170403.031000", "170403.031000", "170403.031000", "170403.031000", "170403.031000", "170403.031000", "170403.031000", "170403.046000", "170403.046000", "170403.046000", "170403.046000", "170502.984000", "170502.984000", "170502.984000", "170502.984000", "170503.000000", "170503.000000", "170503.000000", "170503.000000", "170503.000000", "170503.000000", "170503.000000", "170503.015000", "170503.015000", "170503.015000", "170503.015000", "170503.015000", "170503.015000", "170503.015000", "170503.031000", "170503.031000", "170503.031000", "170503.031000", "170503.031000", "170503.031000", "170503.046000", "170503.046000", "170503.046000", "170503.046000", "170602.984000", "170602.984000", "170602.984000", "170603.000000", "170603.000000", "170603.000000", "170603.000000", "170603.000000", "170603.000000", "170603.000000", "170603.015000", "170603.015000", "170603.015000", "170603.015000", "170603.015000", "170603.015000", "170603.015000", "170603.031000", "170603.031000", "170603.031000", "170603.031000", "170603.031000", "170603.031000", "170603.031000", "170603.046000", "170603.046000", "170603.046000", "170702.984000", "170702.984000", "170702.984000", "170703.000000", "170703.000000", "170703.000000", "170703.000000", "170703.000000", "170703.000000", "170703.000000", "170703.015000", "170703.015000", "170703.015000", "170703.015000", "170703.015000", "170703.015000", "170703.015000", "170703.031000", "170703.031000", "170703.031000", "170703.031000", "170703.031000", "170703.031000", "170703.031000", "170703.046000", "170703.046000", "170703.046000", "170802.984000", "170802.984000", "170802.984000", "170803.000000", "170803.000000", "170803.000000", "170803.000000", "170803.000000", "170803.000000", "170803.000000", "170803.015000", "170803.015000", "170803.015000", "170803.015000", "170803.015000", "170803.015000", "170803.015000", "170803.031000", "170803.031000", "170803.031000", "170803.031000", "170803.031000", "170803.031000", "170803.031000", "170803.046000", "170803.046000", "170803.046000", "170803.046000", "170902.984000", "170902.984000", "170902.984000", "170902.984000", "170903.000000", "170903.000000", "170903.000000", "170903.000000", "170903.000000", "170903.000000", "170903.015000", "170903.015000", "170903.015000", "170903.015000", "170903.015000", "170903.015000", "170903.015000", "170903.031000", "170903.031000", "170903.031000", "170903.031000", "170903.031000", "170903.031000", "170903.031000", "170903.046000", "170903.046000", "170903.046000", "171002.984000", "171002.984000", "171002.984000", "171002.984000", "171003.000000", "171003.000000", "171003.000000", "171003.000000", "171003.000000", "171003.000000", "171003.015000", "171003.015000", "171003.015000", "171003.015000", "171003.015000", "171003.015000", "171003.015000", "171003.031000", "171003.031000", "171003.031000", "171003.031000", "171003.031000", "171003.031000", "171003.031000", "171003.031000", "171003.046000", "171003.046000", "171003.046000", "171102.984000", "171102.984000", "171102.984000", "171102.984000", "171103.000000", "171103.000000", "171103.000000", "171103.000000", "171103.000000", "171103.000000", "171103.015000", "171103.015000", "171103.015000", "171103.015000", "171103.015000", "171103.015000", "171103.015000", "171103.031000", "171103.031000", "171103.031000", "171103.031000", "171103.031000", "171103.031000", "171103.031000", "171103.046000", "171103.046000", "171103.046000", "171103.046000", "171122.984000", "171122.984000", "171122.984000", "171123.000000", "171123.000000", "171123.000000", "171123.000000", "171123.000000", "171123.000000", "171123.000000", "171222.984000", "171222.984000", "171222.984000", "171223.000000", "171223.000000", "171223.000000", "171223.000000", "171223.000000", "171223.000000", "171223.000000", "171223.015000", "171223.015000", "171223.015000", "171223.015000", "171223.015000", "171223.015000", "171223.015000", "171223.031000", "171223.031000", "171223.031000", "171223.031000", "171223.031000", "171223.046000", "171223.046000", "171223.046000", "171223.062000", "171223.062000", "171223.062000", "171251.812000", "171251.812000", "171251.828000", "171251.828000", "171251.828000", "171251.828000", "171251.828000", "171251.828000", "171251.828000", "171251.843000", "171251.843000", "171251.843000", "171251.843000", "171251.843000"],
