{
  "AcquisitionMatrixPE": 104,
  "AcquisitionNumber": 1,
  "AcquisitionTime": "15:36:49.090000",
  "BandwidthPerPixelPhaseEncode": 13.935,
  "BaseResolution": 104,
  "CoilString": "C:HEA;HEP",
  "ConversionSoftware": "dcm2niix",
  "ConversionSoftwareVersion": "v1.0.20210317",
  "DerivedVendorReportedEchoSpacing": 0.000690017,
  "DeviceSerialNumber": "35450",
  "DwellTime": 2.5e-06,
  "EchoTime": 0.0348,
  "EffectiveEchoSpacing": 0.000690017,
  "FlipAngle": 55,
  "ImageComments": "Unaliased MB8/PE3",
  "ImageOrientationPatientDICOM": [0.999972, 0.00164686, -0.00730785, -4.64302e-09, 0.975536, 0.219842],
  "ImageType": [
    "ORIGINAL",
    "PRIMARY",
    "M",
    "MB",
    "ND",
    "MOSAIC"
],
  "ImagingFrequency": 123.235,
  "InPlanePhaseEncodingDirectionDICOM": "COL",
  "InstitutionAddress": "Univeristy Ave. 197,Newark,North East,US,07102-1814",
  "InstitutionName": "RUBIC",
  "InstitutionalDepartmentName": "Department",
  "MRAcquisitionType": "2D",
  "MagneticFieldStrength": 3,
  "Manufacturer": "Siemens",
  "ManufacturersModelName": "TrioTim",
  "Modality": "MR",
  "MultibandAccelerationFactor": 8,
  "PartialFourier": 0.875,
  "PatientPosition": "HFS",
  "PercentPhaseFOV": 100,
  "PercentSampling": 100,
  "PhaseEncodingDirection": "j-",
  "PhaseEncodingSteps": 91,
  "PhaseResolution": 1,
  "PixelBandwidth": 1923,
  "ProcedureStepDescription": "Cole^Michael",
  "ProtocolName": "cmrr_mbep2d_bold_2mm_MB8_Rest",
  "PulseSequenceDetails": "%CustomerSeq%\\cmrr_mbep2d_bold",
  "ReceiveCoilName": "32Ch_Head",
  "ReconMatrixPE": 104,
  "RepetitionTime": 0.785,
  "SAR": 0.118615,
  "ScanOptions": "PFP\\FS",
  "ScanningSequence": "EP",
  "SequenceName": "epfid2d1_104",
  "SequenceVariant": "SK\\SS",
  "SeriesDescription": "cmrr_mbep2d_bold_2mm_MB8_Rest",
  "SeriesNumber": 11,
  "ShimSetting": [2086, -507, -7521, 639, -60, -499, -157, 149],
  "SliceThickness": 2,
  "SliceTiming": [0, 0.4375, 0.0875, 0.525, 0.175, 0.6125, 0.2625, 0.7, 0.35, 0, 0.4375, 0.0875, 0.525, 0.175, 0.6125, 0.2625, 0.7, 0.35, 0, 0.4375, 0.0875, 0.525, 0.175, 0.6125, 0.2625, 0.7, 0.35, 0, 0.4375, 0.0875, 0.525, 0.175, 0.6125, 0.2625, 0.7, 0.35, 0, 0.4375, 0.0875, 0.525, 0.175, 0.6125, 0.2625, 0.7, 0.35, 0, 0.4375, 0.0875, 0.525, 0.175, 0.6125, 0.2625, 0.7, 0.35, 0, 0.4375, 0.0875, 0.525, 0.175, 0.6125, 0.2625, 0.7, 0.35, 0, 0.4375, 0.0875, 0.525, 0.175, 0.6125, 0.2625, 0.7, 0.35],
  "SoftwareVersions": "syngo MR B19",
  "SpacingBetweenSlices": 2,
  "StationName": "MRC35450",
  "TaskName": "rest",
  "TotalReadoutTime": 0.0710717,
  "TxRefAmp": 325.76,
  "dcmmeta_affine": [
    [-1.9999438524246216, -9.286045710155122e-09, -0.01498223003000021, 102.52422332763672],
    [-0.0032937268260866404, 1.9510711431503296, 0.43967095017433167, -82.05259704589844],
    [-0.014615695923566818, -0.4396832585334778, 1.9510164260864258, -70.2973403930664],
    [0.0, 0.0, 0.0, 1.0]
],
  "dcmmeta_reorient_transform": [
    [0.0, -1.0, 0.0, 103.0],
    [1.0, 0.0, 0.0, 0.0],
    [0.0, 0.0, 1.0, 0.0],
    [0.0, 0.0, 0.0, 1.0]
],
  "dcmmeta_shape": [104, 104, 72, 1070],
  "dcmmeta_slice_dim": 2,
  "dcmmeta_version": 0.6,
  "global": {
    "const": {
      "AcquisitionMatrix": [104, 0, 0, 104],
      "AngioFlag": "N",
      "BitsAllocated": 16,
      "BitsStored": 12,
      "Columns": 936,
      "EchoNumbers": 1,
      "EchoTime": 34.8,
      "EchoTrainLength": 1,
      "FlipAngle": 55.0,
      "HighBit": 11,
      "ImageOrientationPatient": [0.99997194120687, 0.00164686340081, -0.0073078478302, -4.643023e-09, 0.97553557443798, 0.2198416316487],
      "ImagePositionPatient": [-934.50087479085, -931.92352162851, -292.41282282596],
      "ImageType": [
        "ORIGINAL",
        "PRIMARY",
        "M",
        "MB",
        "ND",
        "MOSAIC"
],
      "ImagedNucleus": "1H",
      "ImagingFrequency": 123.234604,
      "InPlanePhaseEncodingDirection": "COL",
      "MRAcquisitionType": "2D",
      "MagneticFieldStrength": 3.0,
      "Manufacturer": "SIEMENS",
      "ManufacturerModelName": "TrioTim",
      "Modality": "MR",
      "NumberOfAverages": 1.0,
      "NumberOfPhaseEncodingSteps": 91,
      "PercentPhaseFieldOfView": 100.0,
      "PercentSampling": 100.0,
      "PerformedProcedureStepStartTime": "143941.640000",
      "PhotometricInterpretation": "MONOCHROME2",
      "PixelBandwidth": 1923.0,
      "PixelRepresentation": 0,
      "PixelSpacing": [2.0, 2.0],
      "ProtocolName": "cmrr_mbep2d_bold_2mm_MB8_Rest",
      "RepetitionTime": 785.0,
      "Rows": 936,
      "SAR": 0.11861543185917,
      "SamplesPerPixel": 1,
      "ScanOptions": [
        "PFP",
        "FS"
],
      "ScanningSequence": "EP",
      "SequenceName": "epfid2d1_104",
      "SequenceVariant": [
        "SK",
        "SS"
],
      "SeriesDescription": "cmrr_mbep2d_bold_2mm_MB8_Rest",
      "SeriesNumber": 11,
      "SeriesTime": "153747.765000",
      "SliceLocation": -87.381721301645,
      "SliceThickness": 2.0,
      "SmallestImagePixelValue": 0,
      "SoftwareVersions": "syngo MR B19",
      "SpacingBetweenSlices": 2.0000000431822,
      "SpecificCharacterSet": "ISO_IR 100",
      "StudyID": "1",
      "StudyTime": "143941.593000",
      "TransmitCoilName": "Body",
      "VariableFlipAngleFlag": "N",
      "WindowCenterWidthExplanation": "Algo1",
      "dBdt": 0.0},
    "slices": {}
  },
  "time": {
    "samples": {
      "AcquisitionNumber": [1, 2, 3, 4, 5, 6, 7, 8, 9, 10, 11, 12, 13, 14, 15, 16, 17, 18, 19, 20, 21, 22, 23, 24, 25, 26, 27, 28, 29, 30, 31, 32, 33, 34, 35, 36, 37, 38, 39, 40, 41, 42, 43, 44, 45, 46, 47, 48, 49, 50, 51, 52, 53, 54, 55, 56, 57, 58, 59, 60, 61, 62, 63, 64, 65, 66, 67, 68, 69, 70, 71, 72, 73, 74, 75, 76, 77, 78, 79, 80, 81, 82, 83, 84, 85, 86, 87, 88, 89, 90, 91, 92, 93, 94, 95, 96, 97, 98, 99, 100, 101, 102, 103, 104, 105, 106, 107, 108, 109, 110, 111, 112, 113, 114, 115, 116, 117, 118, 119, 120, 121, 122, 123, 124, 125, 126, 127, 128, 129, 130, 131, 132, 133, 134, 135, 136, 137, 138, 139, 140, 141, 142, 143, 144, 145, 146, 147, 148, 149, 150, 151, 152, 153, 154, 155, 156, 157, 158, 159, 160, 161, 162, 163, 164, 165, 166, 167, 168, 169, 170, 171, 172, 173, 174, 175, 176, 177, 178, 179, 180, 181, 182, 183, 184, 185, 186, 187, 188, 189, 190, 191, 192, 193, 194, 195, 196, 197, 198, 199, 200, 201, 202, 203, 204, 205, 206, 207, 208, 209, 210, 211, 212, 213, 214, 215, 216, 217, 218, 219, 220, 221, 222, 223, 224, 225, 226, 227, 228, 229, 230, 231, 232, 233, 234, 235, 236, 237, 238, 239, 240, 241, 242, 243, 244, 245, 246, 247, 248, 249, 250, 251, 252, 253, 254, 255, 256, 257, 258, 259, 260, 261, 262, 263, 264, 265, 266, 267, 268, 269, 270, 271, 272, 273, 274, 275, 276, 277, 278, 279, 280, 281, 282, 283, 284, 285, 286, 287, 288, 289, 290, 291, 292, 293, 294, 295, 296, 297, 298, 299, 300, 301, 302, 303, 304, 305, 306, 307, 308, 309, 310, 311, 312, 313, 314, 315, 316, 317, 318, 319, 320, 321, 322, 323, 324, 325, 326, 327, 328, 329, 330, 331, 332, 333, 334, 335, 336, 337, 338, 339, 340, 341, 342, 343, 344, 345, 346, 347, 348, 349, 350, 351, 352, 353, 354, 355, 356, 357, 358, 359, 360, 361, 362, 363, 364, 365, 366, 367, 368, 369, 370, 371, 372, 373, 374, 375, 376, 377, 378, 379, 380, 381, 382, 383, 384, 385, 386, 387, 388, 389, 390, 391, 392, 393, 394, 395, 396, 397, 398, 399, 400, 401, 402, 403, 404, 405, 406, 407, 408, 409, 410, 411, 412, 413, 414, 415, 416, 417, 418, 419, 420, 421, 422, 423, 424, 425, 426, 427, 428, 429, 430, 431, 432, 433, 434, 435, 436, 437, 438, 439, 440, 441, 442, 443, 444, 445, 446, 447, 448, 449, 450, 451, 452, 453, 454, 455, 456, 457, 458, 459, 460, 461, 462, 463, 464, 465, 466, 467, 468, 469, 470, 471, 472, 473, 474, 475, 476, 477, 478, 479, 480, 481, 482, 483, 484, 485, 486, 487, 488, 489, 490, 491, 492, 493, 494, 495, 496, 497, 498, 499, 500, 501, 502, 503, 504, 505, 506, 507, 508, 509, 510, 511, 512, 513, 514, 515, 516, 517, 518, 519, 520, 521, 522, 523, 524, 525, 526, 527, 528, 529, 530, 531, 532, 533, 534, 535, 536, 537, 538, 539, 540, 541, 542, 543, 544, 545, 546, 547, 548, 549, 550, 551, 552, 553, 554, 555, 556, 557, 558, 559, 560, 561, 562, 563, 564, 565, 566, 567, 568, 569, 570, 571, 572, 573, 574, 575, 576, 577, 578, 579, 580, 581, 582, 583, 584, 585, 586, 587, 588, 589, 590, 591, 592, 593, 594, 595, 596, 597, 598, 599, 600, 601, 602, 603, 604, 605, 606, 607, 608, 609, 610, 611, 612, 613, 614, 615, 616, 617, 618, 619, 620, 621, 622, 623, 624, 625, 626, 627, 628, 629, 630, 631, 632, 633, 634, 635, 636, 637, 638, 639, 640, 641, 642, 643, 644, 645, 646, 647, 648, 649, 650, 651, 652, 653, 654, 655, 656, 657, 658, 659, 660, 661, 662, 663, 664, 665, 666, 667, 668, 669, 670, 671, 672, 673, 674, 675, 676, 677, 678, 679, 680, 681, 682, 683, 684, 685, 686, 687, 688, 689, 690, 691, 692, 693, 694, 695, 696, 697, 698, 699, 700, 701, 702, 703, 704, 705, 706, 707, 708, 709, 710, 711, 712, 713, 714, 715, 716, 717, 718, 719, 720, 721, 722, 723, 724, 725, 726, 727, 728, 729, 730, 731, 732, 733, 734, 735, 736, 737, 738, 739, 740, 741, 742, 743, 744, 745, 746, 747, 748, 749, 750, 751, 752, 753, 754, 755, 756, 757, 758, 759, 760, 761, 762, 763, 764, 765, 766, 767, 768, 769, 770, 771, 772, 773, 774, 775, 776, 777, 778, 779, 780, 781, 782, 783, 784, 785, 786, 787, 788, 789, 790, 791, 792, 793, 794, 795, 796, 797, 798, 799, 800, 801, 802, 803, 804, 805, 806, 807, 808, 809, 810, 811, 812, 813, 814, 815, 816, 817, 818, 819, 820, 821, 822, 823, 824, 825, 826, 827, 828, 829, 830, 831, 832, 833, 834, 835, 836, 837, 838, 839, 840, 841, 842, 843, 844, 845, 846, 847, 848, 849, 850, 851, 852, 853, 854, 855, 856, 857, 858, 859, 860, 861, 862, 863, 864, 865, 866, 867, 868, 869, 870, 871, 872, 873, 874, 875, 876, 877, 878, 879, 880, 881, 882, 883, 884, 885, 886, 887, 888, 889, 890, 891, 892, 893, 894, 895, 896, 897, 898, 899, 900, 901, 902, 903, 904, 905, 906, 907, 908, 909, 910, 911, 912, 913, 914, 915, 916, 917, 918, 919, 920, 921, 922, 923, 924, 925, 926, 927, 928, 929, 930, 931, 932, 933, 934, 935, 936, 937, 938, 939, 940, 941, 942, 943, 944, 945, 946, 947, 948, 949, 950, 951, 952, 953, 954, 955, 956, 957, 958, 959, 960, 961, 962, 963, 964, 965, 966, 967, 968, 969, 970, 971, 972, 973, 974, 975, 976, 977, 978, 979, 980, 981, 982, 983, 984, 985, 986, 987, 988, 989, 990, 991, 992, 993, 994, 995, 996, 997, 998, 999, 1000, 1001, 1002, 1003, 1004, 1005, 1006, 1007, 1008, 1009, 1010, 1011, 1012, 1013, 1014, 1015, 1016, 1017, 1018, 1019, 1020, 1021, 1022, 1023, 1024, 1025, 1026, 1027, 1028, 1029, 1030, 1031, 1032, 1033, 1034, 1035, 1036, 1037, 1038, 1039, 1040, 1041, 1042, 1043, 1044, 1045, 1046, 1047, 1048, 1049, 1050, 1051, 1052, 1053, 1054, 1055, 1056, 1057, 1058, 1059, 1060, 1061, 1062, 1063, 1064, 1065, 1066, 1067, 1068, 1069, 1070],
      "AcquisitionTime": ["153649.090000", "153649.877500", "153650.665000", "153651.452500", "153652.242500", "153653.030000", "153653.817500", "153654.605000", "153655.395000", "153656.182500", "153656.970000", "153657.757500", "153658.547500", "153659.335000", "153700.122500", "153700.910000", "153701.700000", "153702.487500", "153703.275000", "153704.065000", "153704.852500", "153705.640000", "153706.427500", "153707.217500", "153708.005000", "153708.792500", "153709.580000", "153710.370000", "153711.157500", "153711.945000", "153712.732500", "153713.522500", "153714.310000", "153715.097500", "153715.885000", "153716.675000", "153717.462500", "153718.250000", "153719.037500", "153719.827500", "153720.615000", "153721.402500", "153722.192500", "153722.980000", "153723.767500", "153724.555000", "153725.345000", "153726.132500", "153726.920000", "153727.707500", "153728.497500", "153729.285000", "153730.072500", "153730.860000", "153731.650000", "153732.437500", "153733.225000", "153734.012500", "153734.802500", "153735.590000", "153736.377500", "153737.165000", "153737.955000", "153738.742500", "153739.530000", "153740.320000", "153741.107500", "153741.895000", "153742.682500", "153743.472500", "153744.260000", "153745.047500", "153745.835000", "153746.625000", "153747.412500", "153748.200000", "153748.987500", "153749.777500", "153750.565000", "153751.352500", "153752.140000", "153752.930000", "153753.717500", "153754.505000", "153755.292500", "153756.082500", "153756.870000", "153757.657500", "153758.447500", "153759.235000", "153800.022500", "153800.810000", "153801.600000", "153802.387500", "153803.175000", "153803.962500", "153804.752500", "153805.540000", "153806.327500", "153807.115000", "153807.905000", "153808.692500", "153809.480000", "153810.267500", "153811.057500", "153811.845000", "153812.632500", "153813.420000", "153814.210000", "153814.997500", "153815.785000", "153816.575000", "153817.362500", "153818.150000", "153818.937500", "153819.727500", "153820.515000", "153821.302500", "153822.090000", "153822.880000", "153823.667500", "153824.455000", "153825.242500", "153826.032500", "153826.820000", "153827.607500", "153828.395000", "153829.185000", "153829.972500", "153830.760000", "153831.547500", "153832.337500", "153833.125000", "153833.912500", "153834.702500", "153835.490000", "153836.277500", "153837.065000", "153837.855000", "153838.642500", "153839.430000", "153840.217500", "153841.007500", "153841.795000", "153842.582500", "153843.370000", "153844.160000", "153844.947500", "153845.735000", "153846.522500", "153847.312500", "153848.100000", "153848.887500", "153849.675000", "153850.465000", "153851.252500", "153852.040000", "153852.830000", "153853.617500", "153854.405000", "153855.192500", "153855.982500", "153856.770000", "153857.557500", "153858.345000", "153859.135000", "153859.922500", "153900.710000", "153901.497500", "153902.287500", "153903.075000", "153903.862500", "153904.650000", "153905.440000", "153906.227500", "153907.015000", "153907.802500", "153908.592500", "153909.380000", "153910.167500", "153910.957500", "153911.745000", "153912.532500", "153913.320000", "153914.110000", "153914.897500", "153915.685000", "153916.472500", "153917.262500", "153918.050000", "153918.837500", "153919.625000", "153920.415000", "153921.202500", "153921.990000", "153922.777500", "153923.567500", "153924.355000", "153925.142500", "153925.930000", "153926.720000", "153927.507500", "153928.295000", "153929.085000", "153929.872500", "153930.660000", "153931.447500", "153932.237500", "153933.025000", "153933.812500", "153934.600000", "153935.390000", "153936.177500", "153936.965000", "153937.752500", "153938.542500", "153939.330000", "153940.117500", "153940.905000", "153941.695000", "153942.482500", "153943.270000", "153944.060000", "153944.847500", "153945.635000", "153946.422500", "153947.212500", "153948.000000", "153948.787500", "153949.575000", "153950.365000", "153951.152500", "153951.940000", "153952.727500", "153953.517500", "153954.305000", "153955.092500", "153955.880000", "153956.670000", "153957.457500", "153958.245000", "153959.032500", "153959.822500", "154000.610000", "154001.397500", "154002.187500", "154002.975000", "154003.762500", "154004.550000", "154005.340000", "154006.127500", "154006.915000", "154007.702500", "154008.492500", "154009.280000", "154010.067500", "154010.855000", "154011.645000", "154012.432500", "154013.220000", "154014.007500", "154014.797500", "154015.585000", "154016.372500", "154017.160000", "154017.950000", "154018.737500", "154019.525000", "154020.315000", "154021.102500", "154021.890000", "154022.677500", "154023.467500", "154024.255000", "154025.042500", "154025.830000", "154026.620000", "154027.407500", "154028.195000", "154028.982500", "154029.772500", "154030.560000", "154031.347500", "154032.135000", "154032.925000", "154033.712500", "154034.500000", "154035.287500", "154036.077500", "154036.865000", "154037.652500", "154038.442500", "154039.230000", "154040.017500", "154040.805000", "154041.595000", "154042.382500", "154043.170000", "154043.957500", "154044.747500", "154045.535000", "154046.322500", "154047.110000", "154047.900000", "154048.687500", "154049.475000", "154050.262500", "154051.052500", "154051.840000", "154052.627500", "154053.415000", "154054.205000", "154054.992500", "154055.780000", "154056.570000", "154057.357500", "154058.145000", "154058.932500", "154059.722500", "154100.510000", "154101.297500", "154102.085000", "154102.875000", "154103.662500", "154104.450000", "154105.237500", "154106.027500", "154106.815000", "154107.602500", "154108.390000", "154109.180000", "154109.967500", "154110.755000", "154111.542500", "154112.332500", "154113.120000", "154113.907500", "154114.697500", "154115.485000", "154116.272500", "154117.060000", "154117.850000", "154118.637500", "154119.425000", "154120.212500", "154121.002500", "154121.790000", "154122.577500", "154123.365000", "154124.155000", "154124.942500", "154125.730000", "154126.517500", "154127.307500", "154128.095000", "154128.882500", "154129.670000", "154130.460000", "154131.247500", "154132.035000", "154132.825000", "154133.612500", "154134.400000", "154135.187500", "154135.977500", "154136.765000", "154137.552500", "154138.340000", "154139.130000", "154139.917500", "154140.705000", "154141.492500", "154142.282500", "154143.070000", "154143.857500", "154144.645000", "154145.435000", "154146.222500", "154147.010000", "154147.797500", "154148.587500", "154149.375000", "154150.162500", "154150.952500", "154151.740000", "154152.527500", "154153.315000", "154154.105000", "154154.892500", "154155.680000", "154156.467500", "154157.257500", "154158.045000", "154158.832500", "154159.620000", "154200.410000", "154201.197500", "154201.985000", "154202.772500", "154203.562500", "154204.350000", "154205.137500", "154205.925000", "154206.715000", "154207.502500", "154208.290000", "154209.080000", "154209.867500", "154210.655000", "154211.442500", "154212.232500", "154213.020000", "154213.807500", "154214.595000", "154215.385000", "154216.172500", "154216.960000", "154217.747500", "154218.537500", "154219.325000", "154220.112500", "154220.900000", "154221.690000", "154222.477500", "154223.265000", "154224.052500", "154224.842500", "154225.630000", "154226.417500", "154227.207500", "154227.995000", "154228.782500", "154229.570000", "154230.360000", "154231.147500", "154231.935000", "154232.722500", "154233.512500", "154234.300000", "154235.087500", "154235.875000", "154236.665000", "154237.452500", "154238.240000", "154239.027500", "154239.817500", "154240.605000", "154241.392500", "154242.180000", "154242.970000", "154243.757500", "154244.545000", "154245.335000", "154246.122500", "154246.910000", "154247.697500", "154248.487500", "154249.275000", "154250.062500", "154250.850000", "154251.640000", "154252.427500", "154253.215000", "154254.002500", "154254.792500", "154255.580000", "154256.367500", "154257.155000", "154257.945000", "154258.732500", "154259.520000", "154300.310000", "154301.097500", "154301.885000", "154302.672500", "154303.462500", "154304.250000", "154305.037500", "154305.825000", "154306.615000", "154307.402500", "154308.190000", "154308.977500", "154309.767500", "154310.555000", "154311.342500", "154312.130000", "154312.920000", "154313.707500", "154314.495000", "154315.282500", "154316.072500", "154316.860000", "154317.647500", "154318.437500", "154319.225000", "154320.012500", "154320.800000", "154321.590000", "154322.377500", "154323.165000", "154323.952500", "154324.742500", "154325.530000", "154326.317500", "154327.105000", "154327.895000", "154328.682500", "154329.470000", "154330.257500", "154331.047500", "154331.835000", "154332.622500", "154333.410000", "154334.200000", "154334.987500", "154335.775000", "154336.565000", "154337.352500", "154338.140000", "154338.927500", "154339.717500", "154340.505000", "154341.292500", "154342.080000", "154342.870000", "154343.657500", "154344.445000", "154345.232500", "154346.022500", "154346.810000", "154347.597500", "154348.385000", "154349.175000", "154349.962500", "154350.750000", "154351.537500", "154352.327500", "154353.115000", "154353.902500", "154354.692500", "154355.480000", "154356.267500", "154357.055000", "154357.845000", "154358.632500", "154359.420000", "154400.207500", "154400.997500", "154401.785000", "154402.572500", "154403.360000", "154404.150000", "154404.937500", "154405.725000", "154406.512500", "154407.302500", "154408.090000", "154408.877500", "154409.665000", "154410.455000", "154411.242500", "154412.030000", "154412.820000", "154413.607500", "154414.395000", "154415.182500", "154415.972500", "154416.760000", "154417.547500", "154418.335000", "154419.125000", "154419.912500", "154420.700000", "154421.487500", "154422.277500", "154423.065000", "154423.852500", "154424.640000", "154425.430000", "154426.217500", "154427.005000", "154427.792500", "154428.582500", "154429.370000", "154430.157500", "154430.947500", "154431.735000", "154432.522500", "154433.310000", "154434.100000", "154434.887500", "154435.675000", "154436.462500", "154437.252500", "154438.040000", "154438.827500", "154439.615000", "154440.405000", "154441.192500", "154441.980000", "154442.767500", "154443.557500", "154444.345000", "154445.132500", "154445.920000", "154446.710000", "154447.497500", "154448.285000", "154449.075000", "154449.862500", "154450.650000", "154451.437500", "154452.227500", "154453.015000", "154453.802500", "154454.590000", "154455.380000", "154456.167500", "154456.955000", "154457.742500", "154458.532500", "154459.320000", "154500.107500", "154500.895000", "154501.685000", "154502.472500", "154503.260000", "154504.047500", "154504.837500", "154505.625000", "154506.412500", "154507.202500", "154507.990000", "154508.777500", "154509.565000", "154510.355000", "154511.142500", "154511.930000", "154512.717500", "154513.507500", "154514.295000", "154515.082500", "154515.870000", "154516.660000", "154517.447500", "154518.235000", "154519.022500", "154519.812500", "154520.600000", "154521.387500", "154522.175000", "154522.965000", "154523.752500", "154524.540000", "154525.330000", "154526.117500", "154526.905000", "154527.692500", "154528.482500", "154529.270000", "154530.057500", "154530.845000", "154531.635000", "154532.422500", "154533.210000", "154533.997500", "154534.787500", "154535.575000", "154536.362500", "154537.150000", "154537.940000", "154538.727500", "154539.515000", "154540.302500", "154541.092500", "154541.880000", "154542.667500", "154543.457500", "154544.245000", "154545.032500", "154545.820000", "154546.610000", "154547.397500", "154548.185000", "154548.972500", "154549.762500", "154550.550000", "154551.337500", "154552.125000", "154552.915000", "154553.702500", "154554.490000", "154555.277500", "154556.067500", "154556.855000", "154557.642500", "154558.430000", "154559.220000", "154600.007500", "154600.795000", "154601.585000", "154602.372500", "154603.160000", "154603.947500", "154604.737500", "154605.525000", "154606.312500", "154607.100000", "154607.890000", "154608.677500", "154609.465000", "154610.252500", "154611.042500", "154611.830000", "154612.617500", "154613.405000", "154614.195000", "154614.982500", "154615.770000", "154616.560000", "154617.347500", "154618.135000", "154618.922500", "154619.712500", "154620.500000", "154621.287500", "154622.075000", "154622.865000", "154623.652500", "154624.440000", "154625.227500", "154626.017500", "154626.805000", "154627.592500", "154628.380000", "154629.170000", "154629.957500", "154630.745000", "154631.532500", "154632.322500", "154633.110000", "154633.897500", "154634.687500", "154635.475000", "154636.262500", "154637.050000", "154637.840000", "154638.627500", "154639.415000", "154640.202500", "154640.992500", "154641.780000", "154642.567500", "154643.355000", "154644.145000", "154644.932500", "154645.720000", "154646.507500", "154647.297500", "154648.085000", "154648.872500", "154649.660000", "154650.450000", "154651.237500", "154652.025000", "154652.815000", "154653.602500", "154654.390000", "154655.177500", "154655.967500", "154656.755000", "154657.542500", "154658.330000", "154659.120000", "154659.907500", "154700.695000", "154701.482500", "154702.272500", "154703.060000", "154703.847500", "154704.635000", "154705.425000", "154706.212500", "154707.000000", "154707.787500", "154708.577500", "154709.365000", "154710.152500", "154710.942500", "154711.730000", "154712.517500", "154713.305000", "154714.095000", "154714.882500", "154715.670000", "154716.457500", "154717.247500", "154718.035000", "154718.822500", "154719.610000", "154720.400000", "154721.187500", "154721.975000", "154722.762500", "154723.552500", "154724.340000", "154725.127500", "154725.915000", "154726.705000", "154727.492500", "154728.280000", "154729.070000", "154729.857500", "154730.645000", "154731.432500", "154732.222500", "154733.010000", "154733.797500", "154734.585000", "154735.375000", "154736.162500", "154736.950000", "154737.737500", "154738.527500", "154739.315000", "154740.102500", "154740.890000", "154741.680000", "154742.467500", "154743.255000", "154744.042500", "154744.832500", "154745.620000", "154746.407500", "154747.197500", "154747.985000", "154748.772500", "154749.560000", "154750.350000", "154751.137500", "154751.925000", "154752.712500", "154753.502500", "154754.290000", "154755.077500", "154755.865000", "154756.655000", "154757.442500", "154758.230000", "154759.017500", "154759.807500", "154800.595000", "154801.382500", "154802.170000", "154802.960000", "154803.747500", "154804.535000", "154805.325000", "154806.112500", "154806.900000", "154807.687500", "154808.477500", "154809.265000", "154810.052500", "154810.840000", "154811.630000", "154812.417500", "154813.205000", "154813.992500", "154814.782500", "154815.570000", "154816.357500", "154817.145000", "154817.935000", "154818.722500", "154819.510000", "154820.297500", "154821.087500", "154821.875000", "154822.662500", "154823.452500", "154824.240000", "154825.027500", "154825.815000", "154826.605000", "154827.392500", "154828.180000", "154828.967500", "154829.757500", "154830.545000", "154831.332500", "154832.120000", "154832.910000", "154833.697500", "154834.485000", "154835.272500", "154836.062500", "154836.850000", "154837.637500", "154838.425000", "154839.215000", "154840.002500", "154840.790000", "154841.580000", "154842.367500", "154843.155000", "154843.942500", "154844.732500", "154845.520000", "154846.307500", "154847.095000", "154847.885000", "154848.672500", "154849.460000", "154850.247500", "154851.037500", "154851.825000", "154852.612500", "154853.400000", "154854.190000", "154854.977500", "154855.765000", "154856.552500", "154857.342500", "154858.130000", "154858.917500", "154859.707500", "154900.495000", "154901.282500", "154902.070000", "154902.860000", "154903.647500", "154904.435000", "154905.222500", "154906.012500", "154906.800000", "154907.587500", "154908.375000", "154909.165000", "154909.952500", "154910.740000", "154911.527500", "154912.317500", "154913.105000", "154913.892500", "154914.680000", "154915.470000", "154916.257500", "154917.045000", "154917.835000", "154918.622500", "154919.410000", "154920.197500", "154920.987500", "154921.775000", "154922.562500", "154923.350000", "154924.140000", "154924.927500", "154925.715000", "154926.502500", "154927.292500", "154928.080000", "154928.867500", "154929.655000", "154930.445000", "154931.232500", "154932.020000", "154932.810000", "154933.597500", "154934.385000", "154935.172500", "154935.962500", "154936.750000", "154937.537500", "154938.325000", "154939.115000", "154939.902500", "154940.690000", "154941.477500", "154942.267500", "154943.055000", "154943.842500", "154944.630000", "154945.420000", "154946.207500", "154946.995000", "154947.782500", "154948.572500", "154949.360000", "154950.147500", "154950.937500", "154951.725000", "154952.512500", "154953.300000", "154954.090000", "154954.877500", "154955.665000", "154956.452500", "154957.242500", "154958.030000", "154958.817500", "154959.605000", "155000.395000", "155001.182500", "155001.970000", "155002.757500", "155003.547500", "155004.335000", "155005.122500", "155005.910000", "155006.700000", "155007.487500", "155008.275000", "155009.065000", "155009.852500", "155010.640000", "155011.427500", "155012.217500", "155013.005000", "155013.792500", "155014.580000", "155015.370000", "155016.157500", "155016.945000", "155017.732500", "155018.522500", "155019.310000", "155020.097500", "155020.885000", "155021.675000", "155022.462500", "155023.250000", "155024.037500", "155024.827500", "155025.615000", "155026.402500", "155027.192500", "155027.980000", "155028.767500", "155029.555000", "155030.345000", "155031.132500", "155031.920000", "155032.707500", "155033.497500", "155034.285000", "155035.072500", "155035.860000", "155036.650000", "155037.437500", "155038.225000", "155039.012500", "155039.802500", "155040.590000", "155041.377500", "155042.165000", "155042.955000", "155043.742500", "155044.530000", "155045.320000", "155046.107500", "155046.895000", "155047.682500", "155048.472500", "155049.260000", "155050.047500", "155050.835000", "155051.625000"],
