{
  "AcquisitionMatrixPE": 104,
  "AcquisitionNumber": 1,
  "AcquisitionTime": "16:02:29.887500",
  "BandwidthPerPixelPhaseEncode": 13.935,
  "BaseResolution": 104,
  "CoilString": "C:HEA;HEP",
  "ConversionSoftware": "dcm2niix",
  "ConversionSoftwareVersion": "v1.0.20210317",
  "DerivedVendorReportedEchoSpacing": 0.000690017,
  "DeviceSerialNumber": "35450",
  "DwellTime": 2.5e-06,
  "EchoTime": 0.0348,
  "EffectiveEchoSpacing": 0.000690017,
  "FlipAngle": 55,
  "ImageComments": "Unaliased MB8/PE3",
  "ImageOrientationPatientDICOM": [0.999972, 0.00164686, -0.00730785, -4.64302e-09, 0.975536, 0.219842],
  "ImageType": [
    "ORIGINAL",
    "PRIMARY",
    "M",
    "MB",
    "ND",
    "MOSAIC"
],
  "ImagingFrequency": 123.235,
  "InPlanePhaseEncodingDirectionDICOM": "COL",
  "InstitutionAddress": "Univeristy Ave. 197,Newark,North East,US,07102-1814",
  "InstitutionName": "RUBIC",
  "InstitutionalDepartmentName": "Department",
  "MRAcquisitionType": "2D",
  "MagneticFieldStrength": 3,
  "Manufacturer": "Siemens",
  "ManufacturersModelName": "TrioTim",
  "Modality": "MR",
  "MultibandAccelerationFactor": 8,
  "PartialFourier": 0.875,
  "PatientPosition": "HFS",
  "PercentPhaseFOV": 100,
  "PercentSampling": 100,
  "PhaseEncodingDirection": "j-",
  "PhaseEncodingSteps": 91,
  "PhaseResolution": 1,
  "PixelBandwidth": 1923,
  "ProcedureStepDescription": "Cole^Michael",
  "ProtocolName": "cmrr_mbep2d_bold_2mm_MB8_Task_8x",
  "PulseSequenceDetails": "%CustomerSeq%\\cmrr_mbep2d_bold",
  "ReceiveCoilName": "32Ch_Head",
  "ReconMatrixPE": 104,
  "RepetitionTime": 0.785,
  "SAR": 0.133644,
  "ScanOptions": "PFP\\FS",
  "ScanningSequence": "EP",
  "SequenceName": "epfid2d1_104",
  "SequenceVariant": "SK\\SS",
  "SeriesDescription": "cmrr_mbep2d_bold_2mm_MB8_Task_8x",
  "SeriesNumber": 15,
  "ShimSetting": [2086, -507, -7521, 639, -60, -499, -157, 149],
  "SliceThickness": 2,
  "SliceTiming": [0, 0.4375, 0.0875, 0.525, 0.175, 0.6125, 0.2625, 0.7, 0.35, 0, 0.4375, 0.0875, 0.525, 0.175, 0.6125, 0.2625, 0.7, 0.35, 0, 0.4375, 0.0875, 0.525, 0.175, 0.6125, 0.2625, 0.7, 0.35, 0, 0.4375, 0.0875, 0.525, 0.175, 0.6125, 0.2625, 0.7, 0.35, 0, 0.4375, 0.0875, 0.525, 0.175, 0.6125, 0.2625, 0.7, 0.35, 0, 0.4375, 0.0875, 0.525, 0.175, 0.6125, 0.2625, 0.7, 0.35, 0, 0.4375, 0.0875, 0.525, 0.175, 0.6125, 0.2625, 0.7, 0.35, 0, 0.4375, 0.0875, 0.525, 0.175, 0.6125, 0.2625, 0.7, 0.35],
  "SoftwareVersions": "syngo MR B19",
  "SpacingBetweenSlices": 2,
  "StationName": "MRC35450",
  "TaskName": "cpro",
  "TotalReadoutTime": 0.0710717,
  "TxRefAmp": 325.76,
  "dcmmeta_affine": [
    [-1.9999438524246216, -9.286045710155122e-09, -0.01498223003000021, 102.52422332763672],
    [-0.0032937268260866404, 1.9510711431503296, 0.43967095017433167, -82.05259704589844],
    [-0.014615695923566818, -0.4396832585334778, 1.9510164260864258, -70.2973403930664],
    [0.0, 0.0, 0.0, 1.0]
],
  "dcmmeta_reorient_transform": [
    [0.0, -1.0, 0.0, 103.0],
    [1.0, 0.0, 0.0, 0.0],
    [0.0, 0.0, 1.0, 0.0],
    [0.0, 0.0, 0.0, 1.0]
],
  "dcmmeta_shape": [104, 104, 72, 581],
  "dcmmeta_slice_dim": 2,
  "dcmmeta_version": 0.6,
  "global": {
    "const": {
      "AcquisitionMatrix": [104, 0, 0, 104],
      "AngioFlag": "N",
      "BitsAllocated": 16,
      "BitsStored": 12,
      "Columns": 936,
      "EchoNumbers": 1,
      "EchoTime": 34.8,
      "EchoTrainLength": 1,
      "FlipAngle": 55.0,
      "HighBit": 11,
      "ImageOrientationPatient": [0.99997194120687, 0.00164686340081, -0.0073078478302, -4.643023e-09, 0.97553557443798, 0.2198416316487],
      "ImagePositionPatient": [-934.50087479085, -931.92352162851, -292.41282282596],
      "ImageType": [
        "ORIGINAL",
        "PRIMARY",
        "M",
        "MB",
        "ND",
        "MOSAIC"
],
      "ImagedNucleus": "1H",
      "ImagingFrequency": 123.234671,
      "InPlanePhaseEncodingDirection": "COL",
      "MRAcquisitionType": "2D",
      "MagneticFieldStrength": 3.0,
      "Manufacturer": "SIEMENS",
      "ManufacturerModelName": "TrioTim",
      "Modality": "MR",
      "NumberOfAverages": 1.0,
      "NumberOfPhaseEncodingSteps": 91,
      "PercentPhaseFieldOfView": 100.0,
      "PercentSampling": 100.0,
      "PerformedProcedureStepStartTime": "143941.640000",
      "PhotometricInterpretation": "MONOCHROME2",
      "PixelBandwidth": 1923.0,
      "PixelRepresentation": 0,
      "PixelSpacing": [2.0, 2.0],
      "ProtocolName": "cmrr_mbep2d_bold_2mm_MB8_Task_8x",
      "RepetitionTime": 785.0,
      "Rows": 936,
      "SAR": 0.13364397287761,
      "SamplesPerPixel": 1,
      "ScanOptions": [
        "PFP",
        "FS"
],
      "ScanningSequence": "EP",
      "SequenceName": "epfid2d1_104",
      "SequenceVariant": [
        "SK",
        "SS"
],
      "SeriesDescription": "cmrr_mbep2d_bold_2mm_MB8_Task_8x",
      "SeriesNumber": 15,
      "SeriesTime": "163043.968000",
      "SliceLocation": -87.381721301645,
      "SliceThickness": 2.0,
      "SmallestImagePixelValue": 0,
      "SoftwareVersions": "syngo MR B19",
      "SpacingBetweenSlices": 2.0000000431822,
      "SpecificCharacterSet": "ISO_IR 100",
      "StudyID": "1",
      "StudyTime": "143941.593000",
      "TransmitCoilName": "Body",
      "VariableFlipAngleFlag": "N",
      "WindowCenterWidthExplanation": "Algo1",
      "dBdt": 0.0},
    "slices": {}
  },
  "time": {
    "samples": {
      "AcquisitionNumber": [1, 2, 3, 4, 5, 6, 7, 8, 9, 10, 11, 12, 13, 14, 15, 16, 17, 18, 19, 20, 21, 22, 23, 24, 25, 26, 27, 28, 29, 30, 31, 32, 33, 34, 35, 36, 37, 38, 39, 40, 41, 42, 43, 44, 45, 46, 47, 48, 49, 50, 51, 52, 53, 54, 55, 56, 57, 58, 59, 60, 61, 62, 63, 64, 65, 66, 67, 68, 69, 70, 71, 72, 73, 74, 75, 76, 77, 78, 79, 80, 81, 82, 83, 84, 85, 86, 87, 88, 89, 90, 91, 92, 93, 94, 95, 96, 97, 98, 99, 100, 101, 102, 103, 104, 105, 106, 107, 108, 109, 110, 111, 112, 113, 114, 115, 116, 117, 118, 119, 120, 121, 122, 123, 124, 125, 126, 127, 128, 129, 130, 131, 132, 133, 134, 135, 136, 137, 138, 139, 140, 141, 142, 143, 144, 145, 146, 147, 148, 149, 150, 151, 152, 153, 154, 155, 156, 157, 158, 159, 160, 161, 162, 163, 164, 165, 166, 167, 168, 169, 170, 171, 172, 173, 174, 175, 176, 177, 178, 179, 180, 181, 182, 183, 184, 185, 186, 187, 188, 189, 190, 191, 192, 193, 194, 195, 196, 197, 198, 199, 200, 201, 202, 203, 204, 205, 206, 207, 208, 209, 210, 211, 212, 213, 214, 215, 216, 217, 218, 219, 220, 221, 222, 223, 224, 225, 226, 227, 228, 229, 230, 231, 232, 233, 234, 235, 236, 237, 238, 239, 240, 241, 242, 243, 244, 245, 246, 247, 248, 249, 250, 251, 252, 253, 254, 255, 256, 257, 258, 259, 260, 261, 262, 263, 264, 265, 266, 267, 268, 269, 270, 271, 272, 273, 274, 275, 276, 277, 278, 279, 280, 281, 282, 283, 284, 285, 286, 287, 288, 289, 290, 291, 292, 293, 294, 295, 296, 297, 298, 299, 300, 301, 302, 303, 304, 305, 306, 307, 308, 309, 310, 311, 312, 313, 314, 315, 316, 317, 318, 319, 320, 321, 322, 323, 324, 325, 326, 327, 328, 329, 330, 331, 332, 333, 334, 335, 336, 337, 338, 339, 340, 341, 342, 343, 344, 345, 346, 347, 348, 349, 350, 351, 352, 353, 354, 355, 356, 357, 358, 359, 360, 361, 362, 363, 364, 365, 366, 367, 368, 369, 370, 371, 372, 373, 374, 375, 376, 377, 378, 379, 380, 381, 382, 383, 384, 385, 386, 387, 388, 389, 390, 391, 392, 393, 394, 395, 396, 397, 398, 399, 400, 401, 402, 403, 404, 405, 406, 407, 408, 409, 410, 411, 412, 413, 414, 415, 416, 417, 418, 419, 420, 421, 422, 423, 424, 425, 426, 427, 428, 429, 430, 431, 432, 433, 434, 435, 436, 437, 438, 439, 440, 441, 442, 443, 444, 445, 446, 447, 448, 449, 450, 451, 452, 453, 454, 455, 456, 457, 458, 459, 460, 461, 462, 463, 464, 465, 466, 467, 468, 469, 470, 471, 472, 473, 474, 475, 476, 477, 478, 479, 480, 481, 482, 483, 484, 485, 486, 487, 488, 489, 490, 491, 492, 493, 494, 495, 496, 497, 498, 499, 500, 501, 502, 503, 504, 505, 506, 507, 508, 509, 510, 511, 512, 513, 514, 515, 516, 517, 518, 519, 520, 521, 522, 523, 524, 525, 526, 527, 528, 529, 530, 531, 532, 533, 534, 535, 536, 537, 538, 539, 540, 541, 542, 543, 544, 545, 546, 547, 548, 549, 550, 551, 552, 553, 554, 555, 556, 557, 558, 559, 560, 561, 562, 563, 564, 565, 566, 567, 568, 569, 570, 571, 572, 573, 574, 575, 576, 577, 578, 579, 580, 581],
      "AcquisitionTime": ["160229.887500", "160230.675000", "160231.465000", "160232.252500", "160233.040000", "160233.827500", "160234.617500", "160235.405000", "160236.192500", "160236.980000", "160237.770000", "160238.557500", "160239.345000", "160240.132500", "160240.922500", "160241.710000", "160242.497500", "160243.285000", "160244.075000", "160244.862500", "160245.650000", "160246.437500", "160247.227500", "160248.015000", "160248.802500", "160249.592500", "160250.380000", "160251.167500", "160251.955000", "160252.745000", "160253.532500", "160254.320000", "160255.107500", "160255.897500", "160256.685000", "160257.472500", "160258.260000", "160259.050000", "160259.837500", "160300.625000", "160301.412500", "160302.202500", "160302.990000", "160303.777500", "160304.565000", "160305.355000", "160306.142500", "160306.930000", "160307.720000", "160308.507500", "160309.295000", "160310.082500", "160310.872500", "160311.660000", "160312.447500", "160313.235000", "160314.025000", "160314.812500", "160315.600000", "160316.387500", "160317.177500", "160317.965000", "160318.752500", "160319.540000", "160320.330000", "160321.117500", "160321.905000", "160322.692500", "160323.482500", "160324.270000", "160325.057500", "160325.847500", "160326.635000", "160327.422500", "160328.210000", "160329.000000", "160329.787500", "160330.575000", "160331.362500", "160332.152500", "160332.940000", "160333.727500", "160334.515000", "160335.305000", "160336.092500", "160336.880000", "160337.667500", "160338.457500", "160339.245000", "160340.032500", "160340.820000", "160341.610000", "160342.397500", "160343.185000", "160343.975000", "160344.762500", "160345.550000", "160346.337500", "160347.127500", "160347.915000", "160348.702500", "160349.490000", "160350.280000", "160351.067500", "160351.855000", "160352.642500", "160353.432500", "160354.220000", "160355.007500", "160355.795000", "160356.585000", "160357.372500", "160358.160000", "160358.947500", "160359.737500", "160400.525000", "160401.312500", "160402.102500", "160402.890000", "160403.677500", "160404.465000", "160405.255000", "160406.042500", "160406.830000", "160407.617500", "160408.407500", "160409.195000", "160409.982500", "160410.770000", "160411.560000", "160412.347500", "160413.135000", "160413.922500", "160414.712500", "160415.500000", "160416.287500", "160417.075000", "160417.865000", "160418.652500", "160419.440000", "160420.230000", "160421.017500", "160421.805000", "160422.592500", "160423.382500", "160424.170000", "160424.957500", "160425.745000", "160426.535000", "160427.322500", "160428.110000", "160428.897500", "160429.687500", "160430.475000", "160431.262500", "160432.050000", "160432.840000", "160433.627500", "160434.415000", "160435.202500", "160435.992500", "160436.780000", "160437.567500", "160438.357500", "160439.145000", "160439.932500", "160440.720000", "160441.510000", "160442.297500", "160443.085000", "160443.872500", "160444.662500", "160445.450000", "160446.237500", "160447.025000", "160447.815000", "160448.602500", "160449.390000", "160450.177500", "160450.967500", "160451.755000", "160452.542500", "160453.330000", "160454.120000", "160454.907500", "160455.695000", "160456.485000", "160457.272500", "160458.060000", "160458.847500", "160459.637500", "160500.425000", "160501.212500", "160502.000000", "160502.790000", "160503.577500", "160504.365000", "160505.152500", "160505.942500", "160506.730000", "160507.517500", "160508.305000", "160509.095000", "160509.882500", "160510.670000", "160511.457500", "160512.247500", "160513.035000", "160513.822500", "160514.612500", "160515.400000", "160516.187500", "160516.975000", "160517.765000", "160518.552500", "160519.340000", "160520.127500", "160520.917500", "160521.705000", "160522.492500", "160523.280000", "160524.070000", "160524.857500", "160525.645000", "160526.432500", "160527.222500", "160528.010000", "160528.797500", "160529.587500", "160530.375000", "160531.162500", "160531.950000", "160532.740000", "160533.527500", "160534.315000", "160535.102500", "160535.892500", "160536.680000", "160537.467500", "160538.255000", "160539.045000", "160539.832500", "160540.620000", "160541.407500", "160542.197500", "160542.985000", "160543.772500", "160544.560000", "160545.350000", "160546.137500", "160546.925000", "160547.715000", "160548.502500", "160549.290000", "160550.077500", "160550.867500", "160551.655000", "160552.442500", "160553.230000", "160554.020000", "160554.807500", "160555.595000", "160556.382500", "160557.172500", "160557.960000", "160558.747500", "160559.535000", "160600.325000", "160601.112500", "160601.900000", "160602.687500", "160603.477500", "160604.265000", "160605.052500", "160605.842500", "160606.630000", "160607.417500", "160608.205000", "160608.995000", "160609.782500", "160610.570000", "160611.357500", "160612.147500", "160612.935000", "160613.722500", "160614.510000", "160615.300000", "160616.087500", "160616.875000", "160617.662500", "160618.452500", "160619.240000", "160620.027500", "160620.815000", "160621.605000", "160622.392500", "160623.180000", "160623.970000", "160624.757500", "160625.545000", "160626.332500", "160627.122500", "160627.910000", "160628.697500", "160629.485000", "160630.275000", "160631.062500", "160631.850000", "160632.637500", "160633.427500", "160634.215000", "160635.002500", "160635.790000", "160636.580000", "160637.367500", "160638.155000", "160638.942500", "160639.732500", "160640.520000", "160641.307500", "160642.097500", "160642.885000", "160643.672500", "160644.460000", "160645.250000", "160646.037500", "160646.825000", "160647.612500", "160648.402500", "160649.190000", "160649.977500", "160650.765000", "160651.555000", "160652.342500", "160653.130000", "160653.917500", "160654.707500", "160655.495000", "160656.282500", "160657.070000", "160657.860000", "160658.647500", "160659.435000", "160700.225000", "160701.012500", "160701.800000", "160702.587500", "160703.377500", "160704.165000", "160704.952500", "160705.740000", "160706.530000", "160707.317500", "160708.105000", "160708.892500", "160709.682500", "160710.470000", "160711.257500", "160712.045000", "160712.835000", "160713.622500", "160714.410000", "160715.197500", "160715.987500", "160716.775000", "160717.562500", "160718.352500", "160719.140000", "160719.927500", "160720.715000", "160721.505000", "160722.292500", "160723.080000", "160723.867500", "160724.657500", "160725.445000", "160726.232500", "160727.020000", "160727.810000", "160728.597500", "160729.385000", "160730.172500", "160730.962500", "160731.750000", "160732.537500", "160733.325000", "160734.115000", "160734.902500", "160735.690000", "160736.480000", "160737.267500", "160738.055000", "160738.842500", "160739.632500", "160740.420000", "160741.207500", "160741.995000", "160742.785000", "160743.572500", "160744.360000", "160745.147500", "160745.937500", "160746.725000", "160747.512500", "160748.300000", "160749.090000", "160749.877500", "160750.665000", "160751.452500", "160752.242500", "160753.030000", "160753.817500", "160754.607500", "160755.395000", "160756.182500", "160756.970000", "160757.760000", "160758.547500", "160759.335000", "160800.122500", "160800.912500", "160801.700000", "160802.487500", "160803.275000", "160804.065000", "160804.852500", "160805.640000", "160806.427500", "160807.217500", "160808.005000", "160808.792500", "160809.580000", "160810.370000", "160811.157500", "160811.945000", "160812.735000", "160813.522500", "160814.310000", "160815.097500", "160815.887500", "160816.675000", "160817.462500", "160818.250000", "160819.040000", "160819.827500", "160820.615000", "160821.402500", "160822.192500", "160822.980000", "160823.767500", "160824.555000", "160825.345000", "160826.132500", "160826.920000", "160827.707500", "160828.497500", "160829.285000", "160830.072500", "160830.862500", "160831.650000", "160832.437500", "160833.225000", "160834.015000", "160834.802500", "160835.590000", "160836.377500", "160837.167500", "160837.955000", "160838.742500", "160839.530000", "160840.320000", "160841.107500", "160841.895000", "160842.682500", "160843.472500", "160844.260000", "160845.047500", "160845.837500", "160846.625000", "160847.412500", "160848.200000", "160848.990000", "160849.777500", "160850.565000", "160851.352500", "160852.142500", "160852.930000", "160853.717500", "160854.505000", "160855.295000", "160856.082500", "160856.870000", "160857.657500", "160858.447500", "160859.235000", "160900.022500", "160900.810000", "160901.600000", "160902.387500", "160903.175000", "160903.965000", "160904.752500", "160905.540000", "160906.327500", "160907.117500", "160907.905000", "160908.692500", "160909.480000", "160910.270000", "160911.057500", "160911.845000", "160912.632500", "160913.422500", "160914.210000", "160914.997500", "160915.785000", "160916.575000", "160917.362500", "160918.150000", "160918.937500", "160919.727500", "160920.515000", "160921.302500", "160922.092500", "160922.880000", "160923.667500", "160924.455000", "160925.245000", "160926.032500", "160926.820000", "160927.607500", "160928.397500", "160929.185000", "160929.972500", "160930.760000", "160931.550000", "160932.337500", "160933.125000", "160933.912500", "160934.702500", "160935.490000", "160936.277500", "160937.065000", "160937.855000", "160938.642500", "160939.430000", "160940.220000", "160941.007500", "160941.795000", "160942.582500", "160943.372500", "160944.160000", "160944.947500", "160945.735000", "160946.525000", "160947.312500", "160948.100000", "160948.887500", "160949.677500", "160950.465000", "160951.252500", "160952.040000", "160952.830000", "160953.617500", "160954.405000", "160955.192500", "160955.982500", "160956.770000", "160957.557500", "160958.347500", "160959.135000", "160959.922500", "161000.710000", "161001.500000", "161002.287500", "161003.075000", "161003.862500", "161004.652500", "161005.440000", "161006.227500", "161007.015000"],
      "ContentTime": ["163043.968000", "163043.984000", "163043.984000", "163043.984000", "163043.984000", "163043.984000", "163043.984000", "163044.000000", "163143.953000", "163143.953000", "163143.968000", "163143.968000", "163143.968000", "163143.968000", "163143.984000", "163143.984000", "163143.984000", "163143.984000", "163143.984000", "163143.984000", "163143.984000", "163144.000000", "163144.000000", "163144.000000", "163144.000000", "163144.000000", "163144.000000", "163144.000000", "163144.015000", "163144.015000", "163144.015000", "163144.015000", "163144.015000", "163144.015000", "163144.015000", "163223.953000", "163223.953000", "163223.968000", "163223.968000", "163223.968000", "163223.968000", "163223.968000", "163223.984000", "163223.984000", "163223.984000", "163223.984000", "163223.984000", "163223.984000", "163223.984000", "163224.000000", "163224.000000", "163224.000000", "163224.000000", "163224.000000", "163323.953000", "163323.953000", "163323.968000", "163323.968000", "163323.968000", "163323.968000", "163323.968000", "163323.968000", "163323.968000", "163323.984000", "163323.984000", "163323.984000", "163323.984000", "163323.984000", "163323.984000", "163323.984000", "163324.000000", "163324.000000", "163324.000000", "163324.000000", "163324.000000", "163324.000000", "163324.015000", "163324.015000", "163324.015000", "163324.015000", "163324.015000", "163423.953000", "163423.953000", "163423.968000", "163423.968000", "163423.968000", "163423.968000", "163423.968000", "163423.968000", "163423.968000", "163423.984000", "163423.984000", "163423.984000", "163423.984000", "163423.984000", "163423.984000", "163424.000000", "163424.000000", "163424.000000", "163424.000000", "163424.000000", "163424.000000", "163424.000000", "163424.015000", "163424.015000", "163424.015000", "163424.015000", "163424.015000", "163424.015000", "163523.953000", "163523.953000", "163523.968000", "163523.968000", "163523.968000", "163523.968000", "163523.968000", "163523.968000", "163523.968000", "163523.984000", "163523.984000", "163523.984000", "163523.984000", "163523.984000", "163523.984000", "163523.984000", "163524.000000", "163524.000000", "163524.000000", "163524.000000", "163524.000000", "163524.000000", "163524.000000", "163524.015000", "163524.015000", "163524.015000", "163524.015000", "163623.953000", "163623.953000", "163623.968000", "163623.968000", "163623.968000", "163623.968000", "163623.968000", "163623.968000", "163623.968000", "163623.984000", "163623.984000", "163623.984000", "163623.984000", "163623.984000", "163623.984000", "163623.984000", "163624.000000", "163624.000000", "163624.000000", "163624.000000", "163624.000000", "163624.000000", "163624.015000", "163624.015000", "163624.015000", "163624.015000", "163624.015000", "163624.015000", "163624.015000", "163723.953000", "163723.953000", "163723.968000", "163723.968000", "163723.968000", "163723.968000", "163723.968000", "163723.968000", "163723.968000", "163723.984000", "163723.984000", "163723.984000", "163723.984000", "163723.984000", "163723.984000", "163723.984000", "163724.000000", "163724.000000", "163724.000000", "163724.000000", "163724.000000", "163724.000000", "163724.015000", "163724.015000", "163724.015000", "163724.015000", "163724.015000", "163823.953000", "163823.953000", "163823.968000", "163823.968000", "163823.968000", "163823.968000", "163823.968000", "163823.968000", "163823.968000", "163823.984000", "163823.984000", "163823.984000", "163823.984000", "163823.984000", "163823.984000", "163824.000000", "163824.000000", "163824.000000", "163824.000000", "163824.000000", "163824.000000", "163824.000000", "163824.015000", "163824.015000", "163824.015000", "163824.015000", "163824.015000", "163824.015000", "163923.953000", "163923.953000", "163923.968000", "163923.968000", "163923.968000", "163923.968000", "163923.968000", "163923.968000", "163923.968000", "163923.984000", "163923.984000", "163923.984000", "163923.984000", "163923.984000", "163923.984000", "163923.984000", "163924.000000", "163924.000000", "163924.000000", "163924.000000", "163924.000000", "163924.000000", "163924.000000", "163924.015000", "163924.015000", "163924.015000", "163924.015000", "164023.953000", "164023.953000", "164023.968000", "164023.968000", "164023.968000", "164023.968000", "164023.968000", "164023.968000", "164023.984000", "164023.984000", "164023.984000", "164023.984000", "164023.984000", "164023.984000", "164023.984000", "164024.000000", "164024.000000", "164024.000000", "164024.000000", "164024.000000", "164024.000000", "164024.000000", "164024.015000", "164024.015000", "164024.015000", "164024.015000", "164024.015000", "164024.031000", "164123.953000", "164123.968000", "164123.968000", "164123.968000", "164123.968000", "164123.984000", "164123.984000", "164123.984000", "164123.984000", "164123.984000", "164124.000000", "164124.000000", "164124.000000", "164124.000000", "164124.000000", "164124.000000", "164124.000000", "164124.015000", "164124.015000", "164124.015000", "164124.015000", "164124.015000", "164124.015000", "164124.031000", "164124.031000", "164124.031000", "164124.031000", "164223.953000", "164223.953000", "164223.968000", "164223.968000", "164223.968000", "164223.968000", "164223.968000", "164223.968000", "164223.984000", "164223.984000", "164223.984000", "164223.984000", "164223.984000", "164223.984000", "164223.984000", "164224.000000", "164224.000000", "164224.000000", "164224.000000", "164224.000000", "164224.000000", "164224.000000", "164224.015000", "164224.015000", "164224.015000", "164224.015000", "164224.015000", "164224.015000", "164323.953000", "164323.953000", "164323.968000", "164323.968000", "164323.968000", "164323.968000", "164323.968000", "164323.968000", "164323.968000", "164323.984000", "164323.984000", "164323.984000", "164323.984000", "164323.984000", "164323.984000", "164323.984000", "164324.000000", "164324.000000", "164324.000000", "164324.000000", "164324.000000", "164324.015000", "164324.015000", "164324.015000", "164324.015000", "164324.015000", "164324.015000", "164423.953000", "164423.953000", "164423.968000", "164423.968000", "164423.968000", "164423.968000", "164423.968000", "164423.968000", "164423.984000", "164423.984000", "164423.984000", "164423.984000", "164423.984000", "164423.984000", "164423.984000", "164424.000000", "164424.000000", "164424.000000", "164424.000000", "164424.000000", "164424.000000", "164424.000000", "164424.015000", "164424.015000", "164424.015000", "164424.015000", "164424.015000", "164523.953000", "164523.953000", "164523.953000", "164523.953000", "164523.953000", "164523.968000", "164523.968000", "164523.968000", "164523.968000", "164523.968000", "164523.968000", "164523.968000", "164523.984000", "164523.984000", "164523.984000", "164523.984000", "164523.984000", "164523.984000", "164523.984000", "164524.000000", "164524.000000", "164524.000000", "164524.000000", "164524.000000", "164524.000000", "164524.000000", "164524.015000", "164524.015000", "164623.953000", "164623.953000", "164623.953000", "164623.953000", "164623.953000", "164623.968000", "164623.968000", "164623.968000", "164623.968000", "164623.968000", "164623.968000", "164623.968000", "164623.984000", "164623.984000", "164623.984000", "164623.984000", "164623.984000", "164623.984000", "164623.984000", "164624.000000", "164624.000000", "164624.000000", "164624.000000", "164624.000000", "164624.000000", "164624.000000", "164624.015000", "164624.015000", "164723.953000", "164723.953000", "164723.953000", "164723.953000", "164723.953000", "164723.968000", "164723.968000", "164723.968000", "164723.968000", "164723.968000", "164723.968000", "164723.968000", "164723.984000", "164723.984000", "164723.984000", "164723.984000", "164723.984000", "164723.984000", "164723.984000", "164724.000000", "164724.000000", "164724.000000", "164724.000000", "164724.000000", "164724.000000", "164724.015000", "164724.015000", "164823.953000", "164823.953000", "164823.953000", "164823.953000", "164823.953000", "164823.968000", "164823.968000", "164823.968000", "164823.968000", "164823.968000", "164823.968000", "164823.968000", "164823.984000", "164823.984000", "164823.984000", "164823.984000", "164823.984000", "164823.984000", "164823.984000", "164824.000000", "164824.000000", "164824.000000", "164824.000000", "164824.000000", "164824.000000", "164824.000000", "164824.015000", "164824.015000", "164923.953000", "164923.953000", "164923.953000", "164923.953000", "164923.953000", "164923.968000", "164923.968000", "164923.968000", "164923.968000", "164923.968000", "164923.968000", "164923.968000", "164923.984000", "164923.984000", "164923.984000", "164923.984000", "164923.984000", "164923.984000", "164923.984000", "164924.000000", "164924.000000", "164924.000000", "164924.000000", "164924.000000", "164924.000000", "164924.000000", "164924.015000", "165023.953000", "165023.953000", "165023.953000", "165023.953000", "165023.953000", "165023.968000", "165023.968000", "165023.968000", "165023.968000", "165023.968000", "165023.968000", "165023.968000", "165023.984000", "165023.984000", "165023.984000", "165023.984000", "165023.984000", "165023.984000", "165024.000000", "165024.000000", "165024.000000", "165024.000000", "165024.000000", "165024.000000", "165024.000000", "165024.015000", "165024.015000", "165123.953000", "165123.953000", "165123.953000", "165123.953000", "165123.953000", "165123.968000", "165123.968000", "165123.968000", "165123.968000", "165123.968000", "165123.968000", "165123.968000", "165123.984000", "165123.984000", "165123.984000", "165123.984000", "165123.984000", "165123.984000", "165123.984000", "165124.000000", "165124.000000", "165124.000000", "165124.000000", "165124.000000", "165124.000000", "165124.015000", "165124.015000", "165124.015000", "165131.515000", "165131.515000", "165131.515000", "165131.515000"],
