{
  "AcquisitionMatrixPE": 104,
  "AcquisitionNumber": 1,
  "AcquisitionTime": "14:14:9.692500",
  "BandwidthPerPixelPhaseEncode": 13.935,
  "BaseResolution": 104,
  "CoilString": "C:HEA;HEP",
  "ConversionSoftware": "dcm2niix",
  "ConversionSoftwareVersion": "v1.0.20210317",
  "DerivedVendorReportedEchoSpacing": 0.000690017,
  "DeviceSerialNumber": "35450",
  "DwellTime": 2.5e-06,
  "EchoTime": 0.0348,
  "EffectiveEchoSpacing": 0.000690017,
  "FlipAngle": 55,
  "ImageComments": "Unaliased MB8/PE3 (remote)",
  "ImageOrientationPatientDICOM": [0.999973, 0.00206734, 0.00706971, -1.31204e-08, 0.959805, -0.280667],
  "ImageType": [
    "ORIGINAL",
    "PRIMARY",
    "M",
    "MB",
    "ND",
    "MOSAIC"
],
  "ImagingFrequency": 123.235,
  "InPlanePhaseEncodingDirectionDICOM": "COL",
  "InstitutionAddress": "Univeristy Ave. 197,Newark,North East,US,07102-1814",
  "InstitutionName": "RUBIC",
  "InstitutionalDepartmentName": "Department",
  "MRAcquisitionType": "2D",
  "MagneticFieldStrength": 3,
  "Manufacturer": "Siemens",
  "ManufacturersModelName": "TrioTim",
  "Modality": "MR",
  "MultibandAccelerationFactor": 8,
  "PartialFourier": 0.875,
  "PatientPosition": "HFS",
  "PercentPhaseFOV": 100,
  "PercentSampling": 100,
  "PhaseEncodingDirection": "j-",
  "PhaseEncodingSteps": 91,
  "PhaseResolution": 1,
  "PixelBandwidth": 1923,
  "ProcedureStepDescription": "Cole^Michael",
  "ProtocolName": "cmrr_mbep2d_bold_2mm_MB8_Task_8x",
  "PulseSequenceDetails": "%CustomerSeq%\\cmrr_mbep2d_bold",
  "ReceiveCoilName": "32Ch_Head",
  "ReconMatrixPE": 104,
  "RepetitionTime": 0.785,
  "SAR": 0.131075,
  "ScanOptions": "PFP\\FS",
  "ScanningSequence": "EP",
  "SequenceName": "epfid2d1_104",
  "SequenceVariant": "SK\\SS",
  "SeriesDescription": "cmrr_mbep2d_bold_2mm_MB8_Task_8x",
  "SeriesNumber": 21,
  "ShimSetting": [2106, -378, -7445, 330, 165, -610, -48, -61],
  "SliceThickness": 2,
  "SliceTiming": [0, 0.4375, 0.0875, 0.525, 0.175, 0.6125, 0.2625, 0.7, 0.35, 0, 0.4375, 0.0875, 0.525, 0.175, 0.6125, 0.2625, 0.7, 0.35, 0, 0.4375, 0.0875, 0.525, 0.175, 0.6125, 0.2625, 0.7, 0.35, 0, 0.4375, 0.0875, 0.525, 0.175, 0.6125, 0.2625, 0.7, 0.35, 0, 0.4375, 0.0875, 0.525, 0.175, 0.6125, 0.2625, 0.7, 0.35, 0, 0.4375, 0.0875, 0.525, 0.175, 0.6125, 0.2625, 0.7, 0.35, 0, 0.4375, 0.0875, 0.525, 0.175, 0.6125, 0.2625, 0.7, 0.35, 0, 0.4375, 0.0875, 0.525, 0.175, 0.6125, 0.2625, 0.7, 0.35],
  "SoftwareVersions": "syngo MR B19",
  "SpacingBetweenSlices": 2,
  "StationName": "MRC35450",
  "TaskName": "cpro",
  "TotalReadoutTime": 0.0710717,
  "TxRefAmp": 327.818,
  "dcmmeta_affine": [
    [-1.9999457597732544, -2.6240769557261956e-08, 0.01473156176507473, 104.90180206298828],
    [-0.004134681541472673, 1.9196107387542725, -0.5613178610801697, -66.14610290527344],
    [0.014139424078166485, 0.5613330602645874, 1.9195586442947388, -117.4531478881836],
    [0.0, 0.0, 0.0, 1.0]
],
  "dcmmeta_reorient_transform": [
    [0.0, -1.0, 0.0, 103.0],
    [1.0, 0.0, 0.0, 0.0],
    [0.0, 0.0, 1.0, 0.0],
    [0.0, 0.0, 0.0, 1.0]
],
  "dcmmeta_shape": [104, 104, 72, 581],
  "dcmmeta_slice_dim": 2,
  "dcmmeta_version": 0.6,
  "global": {
    "const": {
      "AcquisitionMatrix": [104, 0, 0, 104],
      "AngioFlag": "N",
      "BitsAllocated": 16,
      "BitsStored": 12,
      "Columns": 936,
      "EchoNumbers": 1,
      "EchoTime": 34.8,
      "EchoTrainLength": 1,
      "FlipAngle": 55.0,
      "HighBit": 11,
      "ImageOrientationPatient": [0.99997287226744, 0.00206734080563, 0.00706971224356, -1.3120385e-08, 0.95980534314461, -0.280666533935],
      "ImagePositionPatient": [-936.87921996812, -931.85186797455, 167.99671268859],
      "ImageType": [
        "ORIGINAL",
        "PRIMARY",
        "M",
        "MB",
        "ND",
        "MOSAIC"
],
      "ImagedNucleus": "1H",
      "ImagingFrequency": 123.23452,
      "InPlanePhaseEncodingDirection": "COL",
      "MRAcquisitionType": "2D",
      "MagneticFieldStrength": 3.0,
      "Manufacturer": "SIEMENS",
      "ManufacturerModelName": "TrioTim",
      "Modality": "MR",
      "NumberOfAverages": 1.0,
      "NumberOfPhaseEncodingSteps": 91,
      "PercentPhaseFieldOfView": 100.0,
      "PercentSampling": 100.0,
      "PerformedProcedureStepStartTime": "123910.390000",
      "PhotometricInterpretation": "MONOCHROME2",
      "PixelBandwidth": 1923.0,
      "PixelRepresentation": 0,
      "PixelSpacing": [2.0, 2.0],
      "ProtocolName": "cmrr_mbep2d_bold_2mm_MB8_Task_8x",
      "RepetitionTime": 785.0,
      "Rows": 936,
      "SAR": 0.13107531822232,
      "SamplesPerPixel": 1,
      "ScanOptions": [
        "PFP",
        "FS"
],
      "ScanningSequence": "EP",
      "SequenceName": "epfid2d1_104",
      "SequenceVariant": [
        "SK",
        "SS"
],
      "SeriesDescription": "cmrr_mbep2d_bold_2mm_MB8_Task_8x",
      "SeriesNumber": 21,
      "SeriesTime": "141435.921000",
      "SliceLocation": -93.391923451487,
      "SliceThickness": 2.0,
      "SmallestImagePixelValue": 0,
      "SoftwareVersions": "syngo MR B19",
      "SpacingBetweenSlices": 1.9999999977474,
      "SpecificCharacterSet": "ISO_IR 100",
      "StudyID": "1",
      "StudyTime": "123910.359000",
      "TransmitCoilName": "Body",
      "VariableFlipAngleFlag": "N",
      "WindowCenterWidthExplanation": "Algo1",
      "dBdt": 0.0},
    "slices": {}
  },
  "time": {
    "samples": {
      "AcquisitionNumber": [1, 2, 3, 4, 5, 6, 7, 8, 9, 10, 11, 12, 13, 14, 15, 16, 17, 18, 19, 20, 21, 22, 23, 24, 25, 26, 27, 28, 29, 30, 31, 32, 33, 34, 35, 36, 37, 38, 39, 40, 41, 42, 43, 44, 45, 46, 47, 48, 49, 50, 51, 52, 53, 54, 55, 56, 57, 58, 59, 60, 61, 62, 63, 64, 65, 66, 67, 68, 69, 70, 71, 72, 73, 74, 75, 76, 77, 78, 79, 80, 81, 82, 83, 84, 85, 86, 87, 88, 89, 90, 91, 92, 93, 94, 95, 96, 97, 98, 99, 100, 101, 102, 103, 104, 105, 106, 107, 108, 109, 110, 111, 112, 113, 114, 115, 116, 117, 118, 119, 120, 121, 122, 123, 124, 125, 126, 127, 128, 129, 130, 131, 132, 133, 134, 135, 136, 137, 138, 139, 140, 141, 142, 143, 144, 145, 146, 147, 148, 149, 150, 151, 152, 153, 154, 155, 156, 157, 158, 159, 160, 161, 162, 163, 164, 165, 166, 167, 168, 169, 170, 171, 172, 173, 174, 175, 176, 177, 178, 179, 180, 181, 182, 183, 184, 185, 186, 187, 188, 189, 190, 191, 192, 193, 194, 195, 196, 197, 198, 199, 200, 201, 202, 203, 204, 205, 206, 207, 208, 209, 210, 211, 212, 213, 214, 215, 216, 217, 218, 219, 220, 221, 222, 223, 224, 225, 226, 227, 228, 229, 230, 231, 232, 233, 234, 235, 236, 237, 238, 239, 240, 241, 242, 243, 244, 245, 246, 247, 248, 249, 250, 251, 252, 253, 254, 255, 256, 257, 258, 259, 260, 261, 262, 263, 264, 265, 266, 267, 268, 269, 270, 271, 272, 273, 274, 275, 276, 277, 278, 279, 280, 281, 282, 283, 284, 285, 286, 287, 288, 289, 290, 291, 292, 293, 294, 295, 296, 297, 298, 299, 300, 301, 302, 303, 304, 305, 306, 307, 308, 309, 310, 311, 312, 313, 314, 315, 316, 317, 318, 319, 320, 321, 322, 323, 324, 325, 326, 327, 328, 329, 330, 331, 332, 333, 334, 335, 336, 337, 338, 339, 340, 341, 342, 343, 344, 345, 346, 347, 348, 349, 350, 351, 352, 353, 354, 355, 356, 357, 358, 359, 360, 361, 362, 363, 364, 365, 366, 367, 368, 369, 370, 371, 372, 373, 374, 375, 376, 377, 378, 379, 380, 381, 382, 383, 384, 385, 386, 387, 388, 389, 390, 391, 392, 393, 394, 395, 396, 397, 398, 399, 400, 401, 402, 403, 404, 405, 406, 407, 408, 409, 410, 411, 412, 413, 414, 415, 416, 417, 418, 419, 420, 421, 422, 423, 424, 425, 426, 427, 428, 429, 430, 431, 432, 433, 434, 435, 436, 437, 438, 439, 440, 441, 442, 443, 444, 445, 446, 447, 448, 449, 450, 451, 452, 453, 454, 455, 456, 457, 458, 459, 460, 461, 462, 463, 464, 465, 466, 467, 468, 469, 470, 471, 472, 473, 474, 475, 476, 477, 478, 479, 480, 481, 482, 483, 484, 485, 486, 487, 488, 489, 490, 491, 492, 493, 494, 495, 496, 497, 498, 499, 500, 501, 502, 503, 504, 505, 506, 507, 508, 509, 510, 511, 512, 513, 514, 515, 516, 517, 518, 519, 520, 521, 522, 523, 524, 525, 526, 527, 528, 529, 530, 531, 532, 533, 534, 535, 536, 537, 538, 539, 540, 541, 542, 543, 544, 545, 546, 547, 548, 549, 550, 551, 552, 553, 554, 555, 556, 557, 558, 559, 560, 561, 562, 563, 564, 565, 566, 567, 568, 569, 570, 571, 572, 573, 574, 575, 576, 577, 578, 579, 580, 581],
      "AcquisitionTime": ["141409.692500", "141410.480000", "141411.270000", "141412.057500", "141412.845000", "141413.632500", "141414.422500", "141415.210000", "141415.997500", "141416.787500", "141417.575000", "141418.362500", "141419.150000", "141419.940000", "141420.727500", "141421.515000", "141422.302500", "141423.092500", "141423.880000", "141424.667500", "141425.455000", "141426.245000", "141427.032500", "141427.820000", "141428.607500", "141429.397500", "141430.185000", "141430.972500", "141431.760000", "141432.550000", "141433.337500", "141434.125000", "141434.915000", "141435.702500", "141436.490000", "141437.277500", "141438.067500", "141438.855000", "141439.642500", "141440.430000", "141441.220000", "141442.007500", "141442.795000", "141443.582500", "141444.372500", "141445.160000", "141445.947500", "141446.735000", "141447.525000", "141448.312500", "141449.100000", "141449.887500", "141450.677500", "141451.465000", "141452.252500", "141453.042500", "141453.830000", "141454.617500", "141455.405000", "141456.195000", "141456.982500", "141457.770000", "141458.557500", "141459.347500", "141500.135000", "141500.922500", "141501.710000", "141502.500000", "141503.287500", "141504.075000", "141504.862500", "141505.652500", "141506.440000", "141507.227500", "141508.015000", "141508.805000", "141509.592500", "141510.380000", "141511.170000", "141511.957500", "141512.745000", "141513.532500", "141514.322500", "141515.110000", "141515.897500", "141516.685000", "141517.475000", "141518.262500", "141519.050000", "141519.837500", "141520.627500", "141521.415000", "141522.202500", "141522.990000", "141523.780000", "141524.567500", "141525.355000", "141526.142500", "141526.932500", "141527.720000", "141528.507500", "141529.297500", "141530.085000", "141530.872500", "141531.660000", "141532.450000", "141533.237500", "141534.025000", "141534.812500", "141535.602500", "141536.390000", "141537.177500", "141537.965000", "141538.755000", "141539.542500", "141540.330000", "141541.117500", "141541.907500", "141542.695000", "141543.482500", "141544.270000", "141545.060000", "141545.847500", "141546.635000", "141547.425000", "141548.212500", "141549.000000", "141549.787500", "141550.577500", "141551.365000", "141552.152500", "141552.940000", "141553.730000", "141554.517500", "141555.305000", "141556.092500", "141556.882500", "141557.670000", "141558.457500", "141559.245000", "141600.035000", "141600.822500", "141601.610000", "141602.397500", "141603.187500", "141603.975000", "141604.762500", "141605.552500", "141606.340000", "141607.127500", "141607.915000", "141608.705000", "141609.492500", "141610.280000", "141611.067500", "141611.857500", "141612.645000", "141613.432500", "141614.220000", "141615.010000", "141615.797500", "141616.585000", "141617.372500", "141618.162500", "141618.950000", "141619.737500", "141620.527500", "141621.315000", "141622.102500", "141622.890000", "141623.680000", "141624.467500", "141625.255000", "141626.042500", "141626.832500", "141627.620000", "141628.407500", "141629.195000", "141629.985000", "141630.772500", "141631.560000", "141632.347500", "141633.137500", "141633.925000", "141634.712500", "141635.500000", "141636.290000", "141637.077500", "141637.865000", "141638.655000", "141639.442500", "141640.230000", "141641.017500", "141641.807500", "141642.595000", "141643.382500", "141644.170000", "141644.960000", "141645.747500", "141646.535000", "141647.322500", "141648.112500", "141648.900000", "141649.687500", "141650.475000", "141651.265000", "141652.052500", "141652.840000", "141653.627500", "141654.417500", "141655.205000", "141655.992500", "141656.782500", "141657.570000", "141658.357500", "141659.145000", "141659.935000", "141700.722500", "141701.510000", "141702.297500", "141703.087500", "141703.875000", "141704.662500", "141705.450000", "141706.240000", "141707.027500", "141707.815000", "141708.602500", "141709.392500", "141710.180000", "141710.967500", "141711.755000", "141712.545000", "141713.332500", "141714.120000", "141714.910000", "141715.697500", "141716.485000", "141717.272500", "141718.062500", "141718.850000", "141719.637500", "141720.425000", "141721.215000", "141722.002500", "141722.790000", "141723.577500", "141724.367500", "141725.155000", "141725.942500", "141726.730000", "141727.520000", "141728.307500", "141729.095000", "141729.882500", "141730.672500", "141731.460000", "141732.247500", "141733.037500", "141733.825000", "141734.612500", "141735.400000", "141736.190000", "141736.977500", "141737.765000", "141738.552500", "141739.342500", "141740.130000", "141740.917500", "141741.705000", "141742.495000", "141743.282500", "141744.070000", "141744.857500", "141745.647500", "141746.435000", "141747.222500", "141748.010000", "141748.800000", "141749.587500", "141750.375000", "141751.165000", "141751.952500", "141752.740000", "141753.527500", "141754.317500", "141755.105000", "141755.892500", "141756.680000", "141757.470000", "141758.257500", "141759.045000", "141759.832500", "141800.622500", "141801.410000", "141802.197500", "141802.985000", "141803.775000", "141804.562500", "141805.350000", "141806.137500", "141806.927500", "141807.715000", "141808.502500", "141809.292500", "141810.080000", "141810.867500", "141811.655000", "141812.445000", "141813.232500", "141814.020000", "141814.807500", "141815.597500", "141816.385000", "141817.172500", "141817.960000", "141818.750000", "141819.537500", "141820.325000", "141821.112500", "141821.902500", "141822.690000", "141823.477500", "141824.265000", "141825.055000", "141825.842500", "141826.630000", "141827.420000", "141828.207500", "141828.995000", "141829.782500", "141830.572500", "141831.360000", "141832.147500", "141832.935000", "141833.725000", "141834.512500", "141835.300000", "141836.087500", "141836.877500", "141837.665000", "141838.452500", "141839.240000", "141840.030000", "141840.817500", "141841.605000", "141842.392500", "141843.182500", "141843.970000", "141844.757500", "141845.547500", "141846.335000", "141847.122500", "141847.910000", "141848.700000", "141849.487500", "141850.275000", "141851.062500", "141851.852500", "141852.640000", "141853.427500", "141854.215000", "141855.005000", "141855.792500", "141856.580000", "141857.367500", "141858.157500", "141858.945000", "141859.732500", "141900.520000", "141901.310000", "141902.097500", "141902.885000", "141903.675000", "141904.462500", "141905.250000", "141906.037500", "141906.827500", "141907.615000", "141908.402500", "141909.190000", "141909.980000", "141910.767500", "141911.555000", "141912.342500", "141913.132500", "141913.920000", "141914.707500", "141915.495000", "141916.285000", "141917.072500", "141917.860000", "141918.647500", "141919.437500", "141920.225000", "141921.012500", "141921.802500", "141922.590000", "141923.377500", "141924.165000", "141924.955000", "141925.742500", "141926.530000", "141927.317500", "141928.107500", "141928.895000", "141929.682500", "141930.470000", "141931.260000", "141932.047500", "141932.835000", "141933.622500", "141934.412500", "141935.200000", "141935.987500", "141936.777500", "141937.565000", "141938.352500", "141939.140000", "141939.930000", "141940.717500", "141941.505000", "141942.292500", "141943.082500", "141943.870000", "141944.657500", "141945.445000", "141946.235000", "141947.022500", "141947.810000", "141948.597500", "141949.387500", "141950.175000", "141950.962500", "141951.750000", "141952.540000", "141953.327500", "141954.115000", "141954.905000", "141955.692500", "141956.480000", "141957.267500", "141958.057500", "141958.845000", "141959.632500", "142000.420000", "142001.210000", "142001.997500", "142002.785000", "142003.572500", "142004.362500", "142005.150000", "142005.937500", "142006.725000", "142007.515000", "142008.302500", "142009.090000", "142009.877500", "142010.667500", "142011.455000", "142012.242500", "142013.032500", "142013.820000", "142014.607500", "142015.395000", "142016.185000", "142016.972500", "142017.760000", "142018.547500", "142019.337500", "142020.125000", "142020.912500", "142021.700000", "142022.490000", "142023.277500", "142024.065000", "142024.852500", "142025.642500", "142026.430000", "142027.217500", "142028.005000", "142028.795000", "142029.582500", "142030.370000", "142031.160000", "142031.947500", "142032.735000", "142033.522500", "142034.312500", "142035.100000", "142035.887500", "142036.675000", "142037.465000", "142038.252500", "142039.040000", "142039.827500", "142040.617500", "142041.405000", "142042.192500", "142042.980000", "142043.770000", "142044.557500", "142045.345000", "142046.132500", "142046.922500", "142047.710000", "142048.497500", "142049.287500", "142050.075000", "142050.862500", "142051.650000", "142052.440000", "142053.227500", "142054.015000", "142054.802500", "142055.592500", "142056.380000", "142057.167500", "142057.955000", "142058.745000", "142059.532500", "142100.320000", "142101.107500", "142101.897500", "142102.685000", "142103.472500", "142104.260000", "142105.050000", "142105.837500", "142106.625000", "142107.415000", "142108.202500", "142108.990000", "142109.777500", "142110.567500", "142111.355000", "142112.142500", "142112.930000", "142113.720000", "142114.507500", "142115.295000", "142116.082500", "142116.872500", "142117.660000", "142118.447500", "142119.235000", "142120.025000", "142120.812500", "142121.600000", "142122.387500", "142123.177500", "142123.965000", "142124.752500", "142125.542500", "142126.330000", "142127.117500", "142127.905000", "142128.695000", "142129.482500", "142130.270000", "142131.057500", "142131.847500", "142132.635000", "142133.422500", "142134.210000", "142135.000000", "142135.787500", "142136.575000", "142137.362500", "142138.152500", "142138.940000", "142139.727500", "142140.515000", "142141.305000", "142142.092500", "142142.880000", "142143.670000", "142144.457500", "142145.245000", "142146.032500", "142146.822500"],
      "ContentTime": ["141435.921000", "141435.937000", "141435.937000", "141435.937000", "141435.937000", "141435.937000", "141435.937000", "141435.953000", "141435.953000", "141435.953000", "141435.953000", "141435.953000", "141435.953000", "141435.953000", "141435.968000", "141435.968000", "141435.968000", "141435.968000", "141435.968000", "141435.968000", "141435.968000", "141435.984000", "141435.984000", "141435.984000", "141435.984000", "141435.984000", "141435.984000", "141435.984000", "141436.000000", "141436.000000", "141455.906000", "141455.906000", "141455.906000", "141455.906000", "141455.921000", "141455.921000", "141455.921000", "141455.921000", "141455.921000", "141455.921000", "141455.921000", "141455.937000", "141455.937000", "141455.937000", "141455.937000", "141455.937000", "141455.953000", "141455.953000", "141455.953000", "141455.953000", "141455.953000", "141455.953000", "141455.953000", "141455.968000", "141455.968000", "141515.906000", "141515.906000", "141515.906000", "141515.906000", "141515.921000", "141515.921000", "141515.921000", "141515.921000", "141515.921000", "141515.921000", "141515.921000", "141515.937000", "141515.937000", "141515.937000", "141515.937000", "141515.937000", "141515.937000", "141515.937000", "141515.953000", "141515.953000", "141515.953000", "141515.953000", "141515.953000", "141515.953000", "141515.953000", "141515.968000", "141535.906000", "141535.906000", "141535.906000", "141535.906000", "141535.921000", "141535.921000", "141535.921000", "141535.921000", "141535.921000", "141535.937000", "141535.937000", "141535.937000", "141535.937000", "141535.937000", "141535.953000", "141535.953000", "141535.953000", "141535.953000", "141535.953000", "141535.953000", "141535.953000", "141535.968000", "141535.968000", "141535.968000", "141535.968000", "141555.906000", "141555.906000", "141555.906000", "141555.906000", "141555.921000", "141555.921000", "141555.921000", "141555.921000", "141555.921000", "141555.921000", "141555.921000", "141555.937000", "141555.937000", "141555.937000", "141555.937000", "141555.937000", "141555.937000", "141555.937000", "141555.953000", "141555.953000", "141555.953000", "141555.953000", "141555.953000", "141555.953000", "141555.953000", "141555.968000", "141615.906000", "141615.906000", "141615.906000", "141615.906000", "141615.921000", "141615.921000", "141615.921000", "141615.921000", "141615.921000", "141615.921000", "141615.921000", "141615.937000", "141615.937000", "141615.937000", "141615.937000", "141615.937000", "141615.937000", "141615.953000", "141615.953000", "141615.953000", "141615.953000", "141615.953000", "141615.953000", "141615.968000", "141615.968000", "141635.906000", "141635.906000", "141635.921000", "141635.921000", "141635.921000", "141635.921000", "141635.921000", "141635.921000", "141635.937000", "141635.937000", "141635.937000", "141635.937000", "141635.937000", "141635.937000", "141635.937000", "141635.953000", "141635.953000", "141635.953000", "141635.953000", "141635.953000", "141635.953000", "141635.953000", "141635.968000", "141635.968000", "141635.968000", "141635.968000", "141655.906000", "141655.906000", "141655.906000", "141655.906000", "141655.921000", "141655.921000", "141655.921000", "141655.921000", "141655.921000", "141655.921000", "141655.921000", "141655.937000", "141655.937000", "141655.937000", "141655.937000", "141655.937000", "141655.953000", "141655.953000", "141655.953000", "141655.953000", "141655.953000", "141655.953000", "141655.968000", "141655.968000", "141655.968000", "141715.906000", "141715.906000", "141715.906000", "141715.906000", "141715.921000", "141715.921000", "141715.921000", "141715.921000", "141715.921000", "141715.921000", "141715.921000", "141715.937000", "141715.937000", "141715.937000", "141715.937000", "141715.937000", "141715.937000", "141715.937000", "141715.953000", "141715.953000", "141715.953000", "141715.953000", "141715.953000", "141715.953000", "141715.968000", "141715.968000", "141735.906000", "141735.906000", "141735.906000", "141735.906000", "141735.921000", "141735.921000", "141735.921000", "141735.921000", "141735.921000", "141735.921000", "141735.921000", "141735.937000", "141735.937000", "141735.937000", "141735.937000", "141735.937000", "141735.937000", "141735.953000", "141735.953000", "141735.953000", "141735.953000", "141735.953000", "141735.953000", "141735.953000", "141735.968000", "141755.906000", "141755.906000", "141755.906000", "141755.906000", "141755.921000", "141755.921000", "141755.921000", "141755.921000", "141755.921000", "141755.921000", "141755.921000", "141755.937000", "141755.937000", "141755.937000", "141755.937000", "141755.937000", "141755.937000", "141755.937000", "141755.953000", "141755.953000", "141755.953000", "141755.953000", "141755.953000", "141755.953000", "141755.953000", "141755.968000", "141815.906000", "141815.906000", "141815.906000", "141815.906000", "141815.921000", "141815.921000", "141815.921000", "141815.921000", "141815.921000", "141815.921000", "141815.921000", "141815.937000", "141815.937000", "141815.937000", "141815.937000", "141815.937000", "141815.937000", "141815.937000", "141815.953000", "141815.953000", "141815.953000", "141815.953000", "141815.953000", "141815.953000", "141815.953000", "141835.906000", "141835.906000", "141835.906000", "141835.906000", "141835.921000", "141835.921000", "141835.921000", "141835.921000", "141835.921000", "141835.921000", "141835.921000", "141835.937000", "141835.937000", "141835.937000", "141835.937000", "141835.937000", "141835.937000", "141835.937000", "141835.953000", "141835.953000", "141835.953000", "141835.953000", "141835.953000", "141835.968000", "141835.968000", "141835.968000", "141855.906000", "141855.906000", "141855.906000", "141855.906000", "141855.921000", "141855.921000", "141855.921000", "141855.921000", "141855.921000", "141855.921000", "141855.921000", "141855.937000", "141855.937000", "141855.937000", "141855.937000", "141855.937000", "141855.937000", "141855.937000", "141855.953000", "141855.953000", "141855.953000", "141855.953000", "141855.953000", "141855.968000", "141855.968000", "141915.906000", "141915.906000", "141915.906000", "141915.906000", "141915.921000", "141915.921000", "141915.921000", "141915.921000", "141915.921000", "141915.921000", "141915.921000", "141915.937000", "141915.937000", "141915.937000", "141915.937000", "141915.937000", "141915.937000", "141915.937000", "141915.953000", "141915.953000", "141915.953000", "141915.953000", "141915.953000", "141915.953000", "141915.968000", "141915.968000", "141935.906000", "141935.906000", "141935.906000", "141935.906000", "141935.921000", "141935.921000", "141935.921000", "141935.921000", "141935.921000", "141935.921000", "141935.937000", "141935.937000", "141935.937000", "141935.937000", "141935.937000", "141935.937000", "141935.937000", "141935.953000", "141935.953000", "141935.953000", "141935.953000", "141935.953000", "141935.953000", "141935.953000", "141935.968000", "141955.906000", "141955.906000", "141955.906000", "141955.906000", "141955.921000", "141955.921000", "141955.921000", "141955.921000", "141955.921000", "141955.921000", "141955.921000", "141955.937000", "141955.937000", "141955.937000", "141955.937000", "141955.937000", "141955.937000", "141955.937000", "141955.953000", "141955.953000", "141955.953000", "141955.953000", "141955.953000", "141955.953000", "141955.968000", "141955.968000", "142015.906000", "142015.906000", "142015.906000", "142015.906000", "142015.921000", "142015.921000", "142015.921000", "142015.921000", "142015.921000", "142015.921000", "142015.921000", "142015.937000", "142015.937000", "142015.953000", "142015.953000", "142015.953000", "142015.953000", "142015.953000", "142015.953000", "142015.953000", "142015.968000", "142015.968000", "142015.968000", "142015.968000", "142015.968000", "142035.906000", "142035.906000", "142035.906000", "142035.906000", "142035.921000", "142035.921000", "142035.921000", "142035.921000", "142035.921000", "142035.921000", "142035.921000", "142035.937000", "142035.937000", "142035.937000", "142035.937000", "142035.937000", "142035.937000", "142035.937000", "142035.953000", "142035.953000", "142035.953000", "142035.953000", "142035.953000", "142035.968000", "142035.968000", "142035.968000", "142055.906000", "142055.906000", "142055.906000", "142055.906000", "142055.921000", "142055.921000", "142055.921000", "142055.921000", "142055.921000", "142055.921000", "142055.937000", "142055.937000", "142055.937000", "142055.937000", "142055.937000", "142055.937000", "142055.937000", "142055.953000", "142055.953000", "142055.953000", "142055.953000", "142055.953000", "142055.968000", "142055.968000", "142055.968000", "142115.906000", "142115.906000", "142115.906000", "142115.906000", "142115.921000", "142115.921000", "142115.921000", "142115.921000", "142115.921000", "142115.921000", "142115.921000", "142115.937000", "142115.937000", "142115.937000", "142115.937000", "142115.937000", "142115.937000", "142115.937000", "142115.953000", "142115.953000", "142115.953000", "142115.953000", "142115.953000", "142115.953000", "142115.953000", "142115.968000", "142135.906000", "142135.906000", "142135.906000", "142135.906000", "142135.921000", "142135.921000", "142135.921000", "142135.921000", "142135.921000", "142135.921000", "142135.921000", "142135.937000", "142135.937000", "142135.937000", "142135.937000", "142135.937000", "142135.937000", "142135.953000", "142135.953000", "142135.953000", "142135.953000", "142135.968000", "142135.968000", "142135.968000", "142135.968000", "142148.093000", "142148.093000", "142148.093000", "142148.109000", "142148.109000", "142148.109000", "142148.109000", "142148.125000", "142148.125000", "142148.125000", "142148.125000", "142148.125000", "142148.125000", "142148.125000", "142148.140000", "142148.140000"],
