{
  "AcquisitionMatrixPE": 104,
  "AcquisitionNumber": 1,
  "AcquisitionTime": "13:47:27.725000",
  "BandwidthPerPixelPhaseEncode": 13.935,
  "BaseResolution": 104,
  "CoilString": "C:HEA;HEP",
  "ConversionSoftware": "dcm2niix",
  "ConversionSoftwareVersion": "v1.0.20210317",
  "DerivedVendorReportedEchoSpacing": 0.000690017,
  "DeviceSerialNumber": "35450",
  "DwellTime": 2.5e-06,
  "EchoTime": 0.0348,
  "EffectiveEchoSpacing": 0.000690017,
  "FlipAngle": 55,
  "ImageComments": "Unaliased MB8/PE3 (remote)",
  "ImageOrientationPatientDICOM": [0.999973, 0.00206734, 0.00706971, -1.31204e-08, 0.959805, -0.280667],
  "ImageType": [
    "ORIGINAL",
    "PRIMARY",
    "M",
    "MB",
    "ND",
    "MOSAIC"
],
  "ImagingFrequency": 123.235,
  "InPlanePhaseEncodingDirectionDICOM": "COL",
  "InstitutionAddress": "Univeristy Ave. 197,Newark,North East,US,07102-1814",
  "InstitutionName": "RUBIC",
  "InstitutionalDepartmentName": "Department",
  "MRAcquisitionType": "2D",
  "MagneticFieldStrength": 3,
  "Manufacturer": "Siemens",
  "ManufacturersModelName": "TrioTim",
  "Modality": "MR",
  "MultibandAccelerationFactor": 8,
  "PartialFourier": 0.875,
  "PatientPosition": "HFS",
  "PercentPhaseFOV": 100,
  "PercentSampling": 100,
  "PhaseEncodingDirection": "j-",
  "PhaseEncodingSteps": 91,
  "PhaseResolution": 1,
  "PixelBandwidth": 1923,
  "ProcedureStepDescription": "Cole^Michael",
  "ProtocolName": "cmrr_mbep2d_bold_2mm_MB8_Task_8x",
  "PulseSequenceDetails": "%CustomerSeq%\\cmrr_mbep2d_bold",
  "ReceiveCoilName": "32Ch_Head",
  "ReconMatrixPE": 104,
  "RepetitionTime": 0.785,
  "SAR": 0.131075,
  "ScanOptions": "PFP\\FS",
  "ScanningSequence": "EP",
  "SequenceName": "epfid2d1_104",
  "SequenceVariant": "SK\\SS",
  "SeriesDescription": "cmrr_mbep2d_bold_2mm_MB8_Task_8x",
  "SeriesNumber": 15,
  "ShimSetting": [2106, -378, -7445, 330, 165, -610, -48, -61],
  "SliceThickness": 2,
  "SliceTiming": [0, 0.4375, 0.0875, 0.525, 0.175, 0.6125, 0.2625, 0.7, 0.35, 0, 0.4375, 0.0875, 0.525, 0.175, 0.6125, 0.2625, 0.7, 0.35, 0, 0.4375, 0.0875, 0.525, 0.175, 0.6125, 0.2625, 0.7, 0.35, 0, 0.4375, 0.0875, 0.525, 0.175, 0.6125, 0.2625, 0.7, 0.35, 0, 0.4375, 0.0875, 0.525, 0.175, 0.6125, 0.2625, 0.7, 0.35, 0, 0.4375, 0.0875, 0.525, 0.175, 0.6125, 0.2625, 0.7, 0.35, 0, 0.4375, 0.0875, 0.525, 0.175, 0.6125, 0.2625, 0.7, 0.35, 0, 0.4375, 0.0875, 0.525, 0.175, 0.6125, 0.2625, 0.7, 0.35],
  "SoftwareVersions": "syngo MR B19",
  "SpacingBetweenSlices": 2,
  "StationName": "MRC35450",
  "TaskName": "cpro",
  "TotalReadoutTime": 0.0710717,
  "TxRefAmp": 327.818,
  "dcmmeta_affine": [
    [-1.9999457597732544, -2.6240769557261956e-08, 0.01473156176507473, 104.90180206298828],
    [-0.004134681541472673, 1.9196107387542725, -0.5613178610801697, -66.14610290527344],
    [0.014139424078166485, 0.5613330602645874, 1.9195586442947388, -117.4531478881836],
    [0.0, 0.0, 0.0, 1.0]
],
  "dcmmeta_reorient_transform": [
    [0.0, -1.0, 0.0, 103.0],
    [1.0, 0.0, 0.0, 0.0],
    [0.0, 0.0, 1.0, 0.0],
    [0.0, 0.0, 0.0, 1.0]
],
  "dcmmeta_shape": [104, 104, 72, 581],
  "dcmmeta_slice_dim": 2,
  "dcmmeta_version": 0.6,
  "global": {
    "const": {
      "AcquisitionMatrix": [104, 0, 0, 104],
      "AngioFlag": "N",
      "BitsAllocated": 16,
      "BitsStored": 12,
      "Columns": 936,
      "EchoNumbers": 1,
      "EchoTime": 34.8,
      "EchoTrainLength": 1,
      "FlipAngle": 55.0,
      "HighBit": 11,
      "ImageOrientationPatient": [0.99997287226744, 0.00206734080563, 0.00706971224356, -1.3120385e-08, 0.95980534314461, -0.280666533935],
      "ImagePositionPatient": [-936.87921996812, -931.85186797455, 167.99671268859],
      "ImageType": [
        "ORIGINAL",
        "PRIMARY",
        "M",
        "MB",
        "ND",
        "MOSAIC"
],
      "ImagedNucleus": "1H",
      "ImagingFrequency": 123.23452,
      "InPlanePhaseEncodingDirection": "COL",
      "MRAcquisitionType": "2D",
      "MagneticFieldStrength": 3.0,
      "Manufacturer": "SIEMENS",
      "ManufacturerModelName": "TrioTim",
      "Modality": "MR",
      "NumberOfAverages": 1.0,
      "NumberOfPhaseEncodingSteps": 91,
      "PercentPhaseFieldOfView": 100.0,
      "PercentSampling": 100.0,
      "PerformedProcedureStepStartTime": "123910.390000",
      "PhotometricInterpretation": "MONOCHROME2",
      "PixelBandwidth": 1923.0,
      "PixelRepresentation": 0,
      "PixelSpacing": [2.0, 2.0],
      "ProtocolName": "cmrr_mbep2d_bold_2mm_MB8_Task_8x",
      "RepetitionTime": 785.0,
      "Rows": 936,
      "SAR": 0.13107531822232,
      "SamplesPerPixel": 1,
      "ScanOptions": [
        "PFP",
        "FS"
],
      "ScanningSequence": "EP",
      "SequenceName": "epfid2d1_104",
      "SequenceVariant": [
        "SK",
        "SS"
],
      "SeriesDescription": "cmrr_mbep2d_bold_2mm_MB8_Task_8x",
      "SeriesNumber": 15,
      "SeriesTime": "134755.921000",
      "SliceLocation": -93.391923451487,
      "SliceThickness": 2.0,
      "SmallestImagePixelValue": 0,
      "SoftwareVersions": "syngo MR B19",
      "SpacingBetweenSlices": 1.9999999977474,
      "SpecificCharacterSet": "ISO_IR 100",
      "StudyID": "1",
      "StudyTime": "123910.359000",
      "TransmitCoilName": "Body",
      "VariableFlipAngleFlag": "N",
      "WindowCenterWidthExplanation": "Algo1",
      "dBdt": 0.0},
    "slices": {}
  },
  "time": {
    "samples": {
      "AcquisitionNumber": [1, 2, 3, 4, 5, 6, 7, 8, 9, 10, 11, 12, 13, 14, 15, 16, 17, 18, 19, 20, 21, 22, 23, 24, 25, 26, 27, 28, 29, 30, 31, 32, 33, 34, 35, 36, 37, 38, 39, 40, 41, 42, 43, 44, 45, 46, 47, 48, 49, 50, 51, 52, 53, 54, 55, 56, 57, 58, 59, 60, 61, 62, 63, 64, 65, 66, 67, 68, 69, 70, 71, 72, 73, 74, 75, 76, 77, 78, 79, 80, 81, 82, 83, 84, 85, 86, 87, 88, 89, 90, 91, 92, 93, 94, 95, 96, 97, 98, 99, 100, 101, 102, 103, 104, 105, 106, 107, 108, 109, 110, 111, 112, 113, 114, 115, 116, 117, 118, 119, 120, 121, 122, 123, 124, 125, 126, 127, 128, 129, 130, 131, 132, 133, 134, 135, 136, 137, 138, 139, 140, 141, 142, 143, 144, 145, 146, 147, 148, 149, 150, 151, 152, 153, 154, 155, 156, 157, 158, 159, 160, 161, 162, 163, 164, 165, 166, 167, 168, 169, 170, 171, 172, 173, 174, 175, 176, 177, 178, 179, 180, 181, 182, 183, 184, 185, 186, 187, 188, 189, 190, 191, 192, 193, 194, 195, 196, 197, 198, 199, 200, 201, 202, 203, 204, 205, 206, 207, 208, 209, 210, 211, 212, 213, 214, 215, 216, 217, 218, 219, 220, 221, 222, 223, 224, 225, 226, 227, 228, 229, 230, 231, 232, 233, 234, 235, 236, 237, 238, 239, 240, 241, 242, 243, 244, 245, 246, 247, 248, 249, 250, 251, 252, 253, 254, 255, 256, 257, 258, 259, 260, 261, 262, 263, 264, 265, 266, 267, 268, 269, 270, 271, 272, 273, 274, 275, 276, 277, 278, 279, 280, 281, 282, 283, 284, 285, 286, 287, 288, 289, 290, 291, 292, 293, 294, 295, 296, 297, 298, 299, 300, 301, 302, 303, 304, 305, 306, 307, 308, 309, 310, 311, 312, 313, 314, 315, 316, 317, 318, 319, 320, 321, 322, 323, 324, 325, 326, 327, 328, 329, 330, 331, 332, 333, 334, 335, 336, 337, 338, 339, 340, 341, 342, 343, 344, 345, 346, 347, 348, 349, 350, 351, 352, 353, 354, 355, 356, 357, 358, 359, 360, 361, 362, 363, 364, 365, 366, 367, 368, 369, 370, 371, 372, 373, 374, 375, 376, 377, 378, 379, 380, 381, 382, 383, 384, 385, 386, 387, 388, 389, 390, 391, 392, 393, 394, 395, 396, 397, 398, 399, 400, 401, 402, 403, 404, 405, 406, 407, 408, 409, 410, 411, 412, 413, 414, 415, 416, 417, 418, 419, 420, 421, 422, 423, 424, 425, 426, 427, 428, 429, 430, 431, 432, 433, 434, 435, 436, 437, 438, 439, 440, 441, 442, 443, 444, 445, 446, 447, 448, 449, 450, 451, 452, 453, 454, 455, 456, 457, 458, 459, 460, 461, 462, 463, 464, 465, 466, 467, 468, 469, 470, 471, 472, 473, 474, 475, 476, 477, 478, 479, 480, 481, 482, 483, 484, 485, 486, 487, 488, 489, 490, 491, 492, 493, 494, 495, 496, 497, 498, 499, 500, 501, 502, 503, 504, 505, 506, 507, 508, 509, 510, 511, 512, 513, 514, 515, 516, 517, 518, 519, 520, 521, 522, 523, 524, 525, 526, 527, 528, 529, 530, 531, 532, 533, 534, 535, 536, 537, 538, 539, 540, 541, 542, 543, 544, 545, 546, 547, 548, 549, 550, 551, 552, 553, 554, 555, 556, 557, 558, 559, 560, 561, 562, 563, 564, 565, 566, 567, 568, 569, 570, 571, 572, 573, 574, 575, 576, 577, 578, 579, 580, 581],
      "AcquisitionTime": ["134727.725000", "134728.512500", "134729.300000", "134730.090000", "134730.877500", "134731.665000", "134732.452500", "134733.242500", "134734.030000", "134734.817500", "134735.605000", "134736.395000", "134737.182500", "134737.970000", "134738.760000", "134739.547500", "134740.335000", "134741.122500", "134741.912500", "134742.700000", "134743.487500", "134744.275000", "134745.065000", "134745.852500", "134746.640000", "134747.427500", "134748.217500", "134749.005000", "134749.792500", "134750.580000", "134751.370000", "134752.157500", "134752.945000", "134753.732500", "134754.522500", "134755.310000", "134756.097500", "134756.887500", "134757.675000", "134758.462500", "134759.250000", "134800.040000", "134800.827500", "134801.615000", "134802.402500", "134803.192500", "134803.980000", "134804.767500", "134805.555000", "134806.345000", "134807.132500", "134807.920000", "134808.707500", "134809.497500", "134810.285000", "134811.072500", "134811.860000", "134812.650000", "134813.437500", "134814.225000", "134815.015000", "134815.802500", "134816.590000", "134817.377500", "134818.167500", "134818.955000", "134819.742500", "134820.530000", "134821.320000", "134822.107500", "134822.895000", "134823.682500", "134824.472500", "134825.260000", "134826.047500", "134826.835000", "134827.625000", "134828.412500", "134829.200000", "134829.987500", "134830.777500", "134831.565000", "134832.352500", "134833.142500", "134833.930000", "134834.717500", "134835.505000", "134836.295000", "134837.082500", "134837.870000", "134838.657500", "134839.447500", "134840.235000", "134841.022500", "134841.810000", "134842.600000", "134843.387500", "134844.175000", "134844.962500", "134845.752500", "134846.540000", "134847.327500", "134848.115000", "134848.905000", "134849.692500", "134850.480000", "134851.270000", "134852.057500", "134852.845000", "134853.632500", "134854.422500", "134855.210000", "134855.997500", "134856.785000", "134857.575000", "134858.362500", "134859.150000", "134859.937500", "134900.727500", "134901.515000", "134902.302500", "134903.090000", "134903.880000", "134904.667500", "134905.455000", "134906.242500", "134907.032500", "134907.820000", "134908.607500", "134909.397500", "134910.185000", "134910.972500", "134911.760000", "134912.550000", "134913.337500", "134914.125000", "134914.912500", "134915.702500", "134916.490000", "134917.277500", "134918.065000", "134918.855000", "134919.642500", "134920.430000", "134921.217500", "134922.007500", "134922.795000", "134923.582500", "134924.370000", "134925.160000", "134925.947500", "134926.735000", "134927.525000", "134928.312500", "134929.100000", "134929.887500", "134930.677500", "134931.465000", "134932.252500", "134933.040000", "134933.830000", "134934.617500", "134935.405000", "134936.192500", "134936.982500", "134937.770000", "134938.557500", "134939.345000", "134940.135000", "134940.922500", "134941.710000", "134942.497500", "134943.287500", "134944.075000", "134944.862500", "134945.652500", "134946.440000", "134947.227500", "134948.015000", "134948.805000", "134949.592500", "134950.380000", "134951.167500", "134951.957500", "134952.745000", "134953.532500", "134954.320000", "134955.110000", "134955.897500", "134956.685000", "134957.472500", "134958.262500", "134959.050000", "134959.837500", "135000.625000", "135001.415000", "135002.202500", "135002.990000", "135003.780000", "135004.567500", "135005.355000", "135006.142500", "135006.932500", "135007.720000", "135008.507500", "135009.295000", "135010.085000", "135010.872500", "135011.660000", "135012.447500", "135013.237500", "135014.025000", "135014.812500", "135015.600000", "135016.390000", "135017.177500", "135017.965000", "135018.752500", "135019.542500", "135020.330000", "135021.117500", "135021.907500", "135022.695000", "135023.482500", "135024.270000", "135025.060000", "135025.847500", "135026.635000", "135027.422500", "135028.212500", "135029.000000", "135029.787500", "135030.575000", "135031.365000", "135032.152500", "135032.940000", "135033.727500", "135034.517500", "135035.305000", "135036.092500", "135036.880000", "135037.670000", "135038.457500", "135039.245000", "135040.035000", "135040.822500", "135041.610000", "135042.397500", "135043.187500", "135043.975000", "135044.762500", "135045.550000", "135046.340000", "135047.127500", "135047.915000", "135048.702500", "135049.492500", "135050.280000", "135051.067500", "135051.855000", "135052.645000", "135053.432500", "135054.220000", "135055.010000", "135055.797500", "135056.585000", "135057.372500", "135058.162500", "135058.950000", "135059.737500", "135100.525000", "135101.315000", "135102.102500", "135102.890000", "135103.677500", "135104.467500", "135105.255000", "135106.042500", "135106.830000", "135107.620000", "135108.407500", "135109.195000", "135109.982500", "135110.772500", "135111.560000", "135112.347500", "135113.137500", "135113.925000", "135114.712500", "135115.500000", "135116.290000", "135117.077500", "135117.865000", "135118.652500", "135119.442500", "135120.230000", "135121.017500", "135121.805000", "135122.595000", "135123.382500", "135124.170000", "135124.957500", "135125.747500", "135126.535000", "135127.322500", "135128.110000", "135128.900000", "135129.687500", "135130.475000", "135131.265000", "135132.052500", "135132.840000", "135133.627500", "135134.417500", "135135.205000", "135135.992500", "135136.780000", "135137.570000", "135138.357500", "135139.145000", "135139.932500", "135140.722500", "135141.510000", "135142.297500", "135143.085000", "135143.875000", "135144.662500", "135145.450000", "135146.237500", "135147.027500", "135147.815000", "135148.602500", "135149.392500", "135150.180000", "135150.967500", "135151.755000", "135152.545000", "135153.332500", "135154.120000", "135154.907500", "135155.697500", "135156.485000", "135157.272500", "135158.060000", "135158.850000", "135159.637500", "135200.425000", "135201.212500", "135202.002500", "135202.790000", "135203.577500", "135204.365000", "135205.155000", "135205.942500", "135206.730000", "135207.520000", "135208.307500", "135209.095000", "135209.882500", "135210.672500", "135211.460000", "135212.247500", "135213.035000", "135213.825000", "135214.612500", "135215.400000", "135216.187500", "135216.977500", "135217.765000", "135218.552500", "135219.340000", "135220.130000", "135220.917500", "135221.705000", "135222.492500", "135223.282500", "135224.070000", "135224.857500", "135225.647500", "135226.435000", "135227.222500", "135228.010000", "135228.800000", "135229.587500", "135230.375000", "135231.162500", "135231.952500", "135232.740000", "135233.527500", "135234.315000", "135235.105000", "135235.892500", "135236.680000", "135237.467500", "135238.257500", "135239.045000", "135239.832500", "135240.620000", "135241.410000", "135242.197500", "135242.985000", "135243.775000", "135244.562500", "135245.350000", "135246.137500", "135246.927500", "135247.715000", "135248.502500", "135249.290000", "135250.080000", "135250.867500", "135251.655000", "135252.442500", "135253.232500", "135254.020000", "135254.807500", "135255.595000", "135256.385000", "135257.172500", "135257.960000", "135258.747500", "135259.537500", "135300.325000", "135301.112500", "135301.902500", "135302.690000", "135303.477500", "135304.265000", "135305.055000", "135305.842500", "135306.630000", "135307.417500", "135308.207500", "135308.995000", "135309.782500", "135310.570000", "135311.360000", "135312.147500", "135312.935000", "135313.722500", "135314.512500", "135315.300000", "135316.087500", "135316.875000", "135317.665000", "135318.452500", "135319.240000", "135320.030000", "135320.817500", "135321.605000", "135322.392500", "135323.182500", "135323.970000", "135324.757500", "135325.545000", "135326.335000", "135327.122500", "135327.910000", "135328.697500", "135329.487500", "135330.275000", "135331.062500", "135331.850000", "135332.640000", "135333.427500", "135334.215000", "135335.002500", "135335.792500", "135336.580000", "135337.367500", "135338.157500", "135338.945000", "135339.732500", "135340.520000", "135341.310000", "135342.097500", "135342.885000", "135343.672500", "135344.462500", "135345.250000", "135346.037500", "135346.825000", "135347.615000", "135348.402500", "135349.190000", "135349.977500", "135350.767500", "135351.555000", "135352.342500", "135353.130000", "135353.920000", "135354.707500", "135355.495000", "135356.285000", "135357.072500", "135357.860000", "135358.647500", "135359.437500", "135400.225000", "135401.012500", "135401.800000", "135402.590000", "135403.377500", "135404.165000", "135404.952500", "135405.742500", "135406.530000", "135407.317500", "135408.105000", "135408.895000", "135409.682500", "135410.470000", "135411.260000", "135412.047500", "135412.835000", "135413.622500", "135414.412500", "135415.200000", "135415.987500", "135416.775000", "135417.565000", "135418.352500", "135419.140000", "135419.927500", "135420.717500", "135421.505000", "135422.292500", "135423.080000", "135423.870000", "135424.657500", "135425.445000", "135426.232500", "135427.022500", "135427.810000", "135428.597500", "135429.387500", "135430.175000", "135430.962500", "135431.750000", "135432.540000", "135433.327500", "135434.115000", "135434.902500", "135435.692500", "135436.480000", "135437.267500", "135438.055000", "135438.845000", "135439.632500", "135440.420000", "135441.207500", "135441.997500", "135442.785000", "135443.572500", "135444.360000", "135445.150000", "135445.937500", "135446.725000", "135447.515000", "135448.302500", "135449.090000", "135449.877500", "135450.667500", "135451.455000", "135452.242500", "135453.030000", "135453.820000", "135454.607500", "135455.395000", "135456.182500", "135456.972500", "135457.760000", "135458.547500", "135459.335000", "135500.125000", "135500.912500", "135501.700000", "135502.487500", "135503.277500", "135504.065000", "135504.852500"],
      "ContentTime": ["134755.921000", "134755.937000", "134755.937000", "134755.937000", "134755.937000", "134755.937000", "134755.953000", "134755.953000", "134755.953000", "134755.953000", "134755.953000", "134755.953000", "134755.968000", "134755.968000", "134755.968000", "134755.968000", "134755.984000", "134755.984000", "134755.984000", "134755.984000", "134755.984000", "134755.984000", "134756.000000", "134756.000000", "134756.000000", "134756.000000", "134756.000000", "134756.000000", "134756.000000", "134756.015000", "134756.015000", "134756.015000", "134756.015000", "134815.906000", "134815.906000", "134815.906000", "134815.906000", "134815.921000", "134815.921000", "134815.921000", "134815.921000", "134815.921000", "134815.921000", "134815.921000", "134815.937000", "134815.937000", "134815.937000", "134815.937000", "134815.937000", "134815.937000", "134815.937000", "134815.953000", "134815.953000", "134815.953000", "134815.953000", "134815.953000", "134815.953000", "134815.953000", "134815.968000", "134835.906000", "134835.906000", "134835.906000", "134835.906000", "134835.921000", "134835.921000", "134835.921000", "134835.921000", "134835.921000", "134835.921000", "134835.921000", "134835.937000", "134835.937000", "134835.937000", "134835.937000", "134835.937000", "134835.937000", "134835.937000", "134835.953000", "134835.953000", "134835.953000", "134835.953000", "134835.953000", "134835.953000", "134835.968000", "134855.906000", "134855.906000", "134855.906000", "134855.906000", "134855.921000", "134855.921000", "134855.921000", "134855.921000", "134855.921000", "134855.921000", "134855.921000", "134855.937000", "134855.937000", "134855.937000", "134855.937000", "134855.937000", "134855.953000", "134855.953000", "134855.953000", "134855.953000", "134855.953000", "134855.953000", "134855.953000", "134855.968000", "134855.968000", "134855.968000", "134915.906000", "134915.906000", "134915.906000", "134915.906000", "134915.921000", "134915.921000", "134915.921000", "134915.921000", "134915.921000", "134915.921000", "134915.921000", "134915.937000", "134915.937000", "134915.937000", "134915.937000", "134915.937000", "134915.937000", "134915.937000", "134915.953000", "134915.953000", "134915.953000", "134915.953000", "134915.953000", "134915.953000", "134915.953000", "134935.906000", "134935.906000", "134935.906000", "134935.906000", "134935.921000", "134935.921000", "134935.921000", "134935.921000", "134935.921000", "134935.921000", "134935.921000", "134935.937000", "134935.937000", "134935.937000", "134935.937000", "134935.937000", "134935.937000", "134935.937000", "134935.953000", "134935.953000", "134935.953000", "134935.953000", "134935.953000", "134935.968000", "134935.968000", "134935.968000", "134955.906000", "134955.906000", "134955.906000", "134955.906000", "134955.921000", "134955.921000", "134955.921000", "134955.921000", "134955.921000", "134955.921000", "134955.937000", "134955.937000", "134955.937000", "134955.937000", "134955.937000", "134955.937000", "134955.937000", "134955.953000", "134955.953000", "134955.953000", "134955.953000", "134955.953000", "134955.953000", "134955.953000", "134955.968000", "135015.906000", "135015.906000", "135015.906000", "135015.906000", "135015.921000", "135015.921000", "135015.921000", "135015.921000", "135015.921000", "135015.921000", "135015.937000", "135015.937000", "135015.937000", "135015.937000", "135015.937000", "135015.937000", "135015.937000", "135015.953000", "135015.953000", "135015.953000", "135015.953000", "135015.953000", "135015.953000", "135015.953000", "135015.968000", "135015.968000", "135035.906000", "135035.906000", "135035.906000", "135035.906000", "135035.921000", "135035.921000", "135035.921000", "135035.921000", "135035.921000", "135035.921000", "135035.921000", "135035.937000", "135035.937000", "135035.937000", "135035.937000", "135035.953000", "135035.953000", "135035.953000", "135035.953000", "135035.953000", "135035.953000", "135035.953000", "135035.968000", "135035.968000", "135035.968000", "135055.906000", "135055.906000", "135055.906000", "135055.906000", "135055.921000", "135055.921000", "135055.921000", "135055.921000", "135055.921000", "135055.921000", "135055.921000", "135055.937000", "135055.937000", "135055.937000", "135055.937000", "135055.937000", "135055.937000", "135055.937000", "135055.953000", "135055.953000", "135055.953000", "135055.953000", "135055.953000", "135055.953000", "135055.953000", "135055.968000", "135115.906000", "135115.906000", "135115.906000", "135115.906000", "135115.921000", "135115.921000", "135115.921000", "135115.921000", "135115.921000", "135115.921000", "135115.921000", "135115.937000", "135115.937000", "135115.937000", "135115.937000", "135115.937000", "135115.937000", "135115.953000", "135115.953000", "135115.953000", "135115.953000", "135115.953000", "135115.953000", "135115.968000", "135115.968000", "135135.906000", "135135.906000", "135135.906000", "135135.906000", "135135.921000", "135135.921000", "135135.921000", "135135.921000", "135135.921000", "135135.921000", "135135.921000", "135135.937000", "135135.937000", "135135.937000", "135135.937000", "135135.937000", "135135.937000", "135135.953000", "135135.953000", "135135.953000", "135135.953000", "135135.953000", "135135.968000", "135135.968000", "135135.968000", "135135.968000", "135155.906000", "135155.906000", "135155.906000", "135155.906000", "135155.921000", "135155.921000", "135155.921000", "135155.921000", "135155.921000", "135155.921000", "135155.921000", "135155.937000", "135155.937000", "135155.937000", "135155.937000", "135155.937000", "135155.937000", "135155.953000", "135155.953000", "135155.953000", "135155.953000", "135155.953000", "135155.953000", "135155.953000", "135155.968000", "135215.906000", "135215.906000", "135215.906000", "135215.906000", "135215.921000", "135215.921000", "135215.921000", "135215.921000", "135215.921000", "135215.921000", "135215.921000", "135215.937000", "135215.937000", "135215.937000", "135215.937000", "135215.937000", "135215.937000", "135215.953000", "135215.953000", "135215.953000", "135215.953000", "135215.953000", "135215.953000", "135215.953000", "135215.968000", "135215.968000", "135235.906000", "135235.906000", "135235.906000", "135235.921000", "135235.921000", "135235.921000", "135235.921000", "135235.921000", "135235.921000", "135235.937000", "135235.937000", "135235.937000", "135235.937000", "135235.937000", "135235.937000", "135235.953000", "135235.953000", "135235.953000", "135235.953000", "135235.953000", "135235.953000", "135235.968000", "135235.968000", "135235.968000", "135235.968000", "135255.906000", "135255.906000", "135255.906000", "135255.906000", "135255.921000", "135255.921000", "135255.921000", "135255.921000", "135255.921000", "135255.921000", "135255.921000", "135255.937000", "135255.937000", "135255.937000", "135255.937000", "135255.937000", "135255.937000", "135255.953000", "135255.953000", "135255.953000", "135255.953000", "135255.953000", "135255.953000", "135255.953000", "135255.968000", "135255.968000", "135315.906000", "135315.906000", "135315.906000", "135315.906000", "135315.921000", "135315.921000", "135315.921000", "135315.921000", "135315.921000", "135315.921000", "135315.921000", "135315.937000", "135315.937000", "135315.937000", "135315.937000", "135315.937000", "135315.937000", "135315.953000", "135315.953000", "135315.953000", "135315.953000", "135315.968000", "135315.968000", "135315.968000", "135315.968000", "135335.906000", "135335.906000", "135335.906000", "135335.906000", "135335.921000", "135335.921000", "135335.921000", "135335.921000", "135335.921000", "135335.921000", "135335.937000", "135335.937000", "135335.937000", "135335.937000", "135335.937000", "135335.937000", "135335.937000", "135335.953000", "135335.953000", "135335.953000", "135335.953000", "135335.953000", "135335.953000", "135335.953000", "135335.968000", "135335.968000", "135355.906000", "135355.906000", "135355.906000", "135355.906000", "135355.921000", "135355.921000", "135355.921000", "135355.921000", "135355.921000", "135355.921000", "135355.921000", "135355.937000", "135355.937000", "135355.937000", "135355.937000", "135355.937000", "135355.937000", "135355.937000", "135355.953000", "135355.953000", "135355.953000", "135355.953000", "135355.953000", "135355.953000", "135355.953000", "135415.906000", "135415.906000", "135415.906000", "135415.906000", "135415.921000", "135415.921000", "135415.921000", "135415.937000", "135415.937000", "135415.937000", "135415.937000", "135415.937000", "135415.953000", "135415.953000", "135415.953000", "135415.953000", "135415.968000", "135415.968000", "135415.968000", "135415.968000", "135415.968000", "135415.968000", "135415.968000", "135415.984000", "135415.984000", "135435.906000", "135435.906000", "135435.906000", "135435.906000", "135435.921000", "135435.921000", "135435.921000", "135435.921000", "135435.921000", "135435.921000", "135435.921000", "135435.937000", "135435.937000", "135435.937000", "135435.937000", "135435.937000", "135435.937000", "135435.953000", "135435.953000", "135435.953000", "135435.953000", "135435.953000", "135435.953000", "135435.953000", "135435.968000", "135435.968000", "135455.906000", "135455.906000", "135455.906000", "135455.921000", "135455.921000", "135455.921000", "135455.921000", "135455.921000", "135455.937000", "135455.937000", "135455.937000", "135455.937000", "135455.937000", "135455.937000", "135455.937000", "135455.953000", "135455.953000", "135455.953000", "135455.953000", "135455.953000", "135455.953000", "135455.953000", "135455.968000", "135455.968000", "135455.968000", "135505.484000", "135505.484000", "135505.484000", "135505.484000", "135505.484000", "135505.484000", "135505.500000", "135505.500000", "135505.500000", "135505.500000", "135505.500000", "135505.500000", "135505.500000"],
