{
  "AcquisitionMatrixPE": 104,
  "AcquisitionNumber": 1,
  "AcquisitionTime": "14:39:23.775000",
  "BandwidthPerPixelPhaseEncode": 13.935,
  "BaseResolution": 104,
  "CoilString": "C:HEA;HEP",
  "ConversionSoftware": "dcm2niix",
  "ConversionSoftwareVersion": "v1.0.20210317",
  "DerivedVendorReportedEchoSpacing": 0.000690017,
  "DeviceSerialNumber": "35450",
  "DwellTime": 2.5e-06,
  "EchoTime": 0.0348,
  "EffectiveEchoSpacing": 0.000690017,
  "FlipAngle": 55,
  "ImageComments": "Unaliased MB8/PE3 (remote)",
  "ImageOrientationPatientDICOM": [0.999973, 0.00206734, 0.00706971, -1.31204e-08, 0.959805, -0.280667],
  "ImageType": [
    "ORIGINAL",
    "PRIMARY",
    "M",
    "MB",
    "ND",
    "MOSAIC"
],
  "ImagingFrequency": 123.235,
  "InPlanePhaseEncodingDirectionDICOM": "COL",
  "InstitutionAddress": "Univeristy Ave. 197,Newark,North East,US,07102-1814",
  "InstitutionName": "RUBIC",
  "InstitutionalDepartmentName": "Department",
  "MRAcquisitionType": "2D",
  "MagneticFieldStrength": 3,
  "Manufacturer": "Siemens",
  "ManufacturersModelName": "TrioTim",
  "Modality": "MR",
  "MultibandAccelerationFactor": 8,
  "PartialFourier": 0.875,
  "PatientPosition": "HFS",
  "PercentPhaseFOV": 100,
  "PercentSampling": 100,
  "PhaseEncodingDirection": "j-",
  "PhaseEncodingSteps": 91,
  "PhaseResolution": 1,
  "PixelBandwidth": 1923,
  "ProcedureStepDescription": "Cole^Michael",
  "ProtocolName": "cmrr_mbep2d_bold_2mm_MB8_Task_8x",
  "PulseSequenceDetails": "%CustomerSeq%\\cmrr_mbep2d_bold",
  "ReceiveCoilName": "32Ch_Head",
  "ReconMatrixPE": 104,
  "RepetitionTime": 0.785,
  "SAR": 0.131075,
  "ScanOptions": "PFP\\FS",
  "ScanningSequence": "EP",
  "SequenceName": "epfid2d1_104",
  "SequenceVariant": "SK\\SS",
  "SeriesDescription": "cmrr_mbep2d_bold_2mm_MB8_Task_8x",
  "SeriesNumber": 27,
  "ShimSetting": [2106, -378, -7445, 330, 165, -610, -48, -61],
  "SliceThickness": 2,
  "SliceTiming": [0, 0.4375, 0.0875, 0.525, 0.175, 0.6125, 0.2625, 0.7, 0.35, 0, 0.4375, 0.0875, 0.525, 0.175, 0.6125, 0.2625, 0.7, 0.35, 0, 0.4375, 0.0875, 0.525, 0.175, 0.6125, 0.2625, 0.7, 0.35, 0, 0.4375, 0.0875, 0.525, 0.175, 0.6125, 0.2625, 0.7, 0.35, 0, 0.4375, 0.0875, 0.525, 0.175, 0.6125, 0.2625, 0.7, 0.35, 0, 0.4375, 0.0875, 0.525, 0.175, 0.6125, 0.2625, 0.7, 0.35, 0, 0.4375, 0.0875, 0.525, 0.175, 0.6125, 0.2625, 0.7, 0.35, 0, 0.4375, 0.0875, 0.525, 0.175, 0.6125, 0.2625, 0.7, 0.35],
  "SoftwareVersions": "syngo MR B19",
  "SpacingBetweenSlices": 2,
  "StationName": "MRC35450",
  "TaskName": "cpro",
  "TotalReadoutTime": 0.0710717,
  "TxRefAmp": 327.818,
  "dcmmeta_affine": [
    [-1.9999457597732544, -2.6240769557261956e-08, 0.01473156176507473, 104.90180206298828],
    [-0.004134681541472673, 1.9196107387542725, -0.5613178610801697, -66.14610290527344],
    [0.014139424078166485, 0.5613330602645874, 1.9195586442947388, -117.4531478881836],
    [0.0, 0.0, 0.0, 1.0]
],
  "dcmmeta_reorient_transform": [
    [0.0, -1.0, 0.0, 103.0],
    [1.0, 0.0, 0.0, 0.0],
    [0.0, 0.0, 1.0, 0.0],
    [0.0, 0.0, 0.0, 1.0]
],
  "dcmmeta_shape": [104, 104, 72, 581],
  "dcmmeta_slice_dim": 2,
  "dcmmeta_version": 0.6,
  "global": {
    "const": {
      "AcquisitionMatrix": [104, 0, 0, 104],
      "AngioFlag": "N",
      "BitsAllocated": 16,
      "BitsStored": 12,
      "Columns": 936,
      "EchoNumbers": 1,
      "EchoTime": 34.8,
      "EchoTrainLength": 1,
      "FlipAngle": 55.0,
      "HighBit": 11,
      "ImageOrientationPatient": [0.99997287226744, 0.00206734080563, 0.00706971224356, -1.3120385e-08, 0.95980534314461, -0.280666533935],
      "ImagePositionPatient": [-936.87921996812, -931.85186797455, 167.99671268859],
      "ImageType": [
        "ORIGINAL",
        "PRIMARY",
        "M",
        "MB",
        "ND",
        "MOSAIC"
],
      "ImagedNucleus": "1H",
      "ImagingFrequency": 123.23452,
      "InPlanePhaseEncodingDirection": "COL",
      "MRAcquisitionType": "2D",
      "MagneticFieldStrength": 3.0,
      "Manufacturer": "SIEMENS",
      "ManufacturerModelName": "TrioTim",
      "Modality": "MR",
      "NumberOfAverages": 1.0,
      "NumberOfPhaseEncodingSteps": 91,
      "PercentPhaseFieldOfView": 100.0,
      "PercentSampling": 100.0,
      "PerformedProcedureStepStartTime": "123910.390000",
      "PhotometricInterpretation": "MONOCHROME2",
      "PixelBandwidth": 1923.0,
      "PixelRepresentation": 0,
      "PixelSpacing": [2.0, 2.0],
      "ProtocolName": "cmrr_mbep2d_bold_2mm_MB8_Task_8x",
      "RepetitionTime": 785.0,
      "Rows": 936,
      "SAR": 0.13107531822232,
      "SamplesPerPixel": 1,
      "ScanOptions": [
        "PFP",
        "FS"
],
      "ScanningSequence": "EP",
      "SequenceName": "epfid2d1_104",
      "SequenceVariant": [
        "SK",
        "SS"
],
      "SeriesDescription": "cmrr_mbep2d_bold_2mm_MB8_Task_8x",
      "SeriesNumber": 27,
      "SeriesTime": "143955.937000",
      "SliceLocation": -93.391923451487,
      "SliceThickness": 2.0,
      "SmallestImagePixelValue": 0,
      "SoftwareVersions": "syngo MR B19",
      "SpacingBetweenSlices": 1.9999999977474,
      "SpecificCharacterSet": "ISO_IR 100",
      "StudyID": "1",
      "StudyTime": "123910.359000",
      "TransmitCoilName": "Body",
      "VariableFlipAngleFlag": "N",
      "WindowCenterWidthExplanation": "Algo1",
      "dBdt": 0.0},
    "slices": {}
  },
  "time": {
    "samples": {
      "AcquisitionNumber": [1, 2, 3, 4, 5, 6, 7, 8, 9, 10, 11, 12, 13, 14, 15, 16, 17, 18, 19, 20, 21, 22, 23, 24, 25, 26, 27, 28, 29, 30, 31, 32, 33, 34, 35, 36, 37, 38, 39, 40, 41, 42, 43, 44, 45, 46, 47, 48, 49, 50, 51, 52, 53, 54, 55, 56, 57, 58, 59, 60, 61, 62, 63, 64, 65, 66, 67, 68, 69, 70, 71, 72, 73, 74, 75, 76, 77, 78, 79, 80, 81, 82, 83, 84, 85, 86, 87, 88, 89, 90, 91, 92, 93, 94, 95, 96, 97, 98, 99, 100, 101, 102, 103, 104, 105, 106, 107, 108, 109, 110, 111, 112, 113, 114, 115, 116, 117, 118, 119, 120, 121, 122, 123, 124, 125, 126, 127, 128, 129, 130, 131, 132, 133, 134, 135, 136, 137, 138, 139, 140, 141, 142, 143, 144, 145, 146, 147, 148, 149, 150, 151, 152, 153, 154, 155, 156, 157, 158, 159, 160, 161, 162, 163, 164, 165, 166, 167, 168, 169, 170, 171, 172, 173, 174, 175, 176, 177, 178, 179, 180, 181, 182, 183, 184, 185, 186, 187, 188, 189, 190, 191, 192, 193, 194, 195, 196, 197, 198, 199, 200, 201, 202, 203, 204, 205, 206, 207, 208, 209, 210, 211, 212, 213, 214, 215, 216, 217, 218, 219, 220, 221, 222, 223, 224, 225, 226, 227, 228, 229, 230, 231, 232, 233, 234, 235, 236, 237, 238, 239, 240, 241, 242, 243, 244, 245, 246, 247, 248, 249, 250, 251, 252, 253, 254, 255, 256, 257, 258, 259, 260, 261, 262, 263, 264, 265, 266, 267, 268, 269, 270, 271, 272, 273, 274, 275, 276, 277, 278, 279, 280, 281, 282, 283, 284, 285, 286, 287, 288, 289, 290, 291, 292, 293, 294, 295, 296, 297, 298, 299, 300, 301, 302, 303, 304, 305, 306, 307, 308, 309, 310, 311, 312, 313, 314, 315, 316, 317, 318, 319, 320, 321, 322, 323, 324, 325, 326, 327, 328, 329, 330, 331, 332, 333, 334, 335, 336, 337, 338, 339, 340, 341, 342, 343, 344, 345, 346, 347, 348, 349, 350, 351, 352, 353, 354, 355, 356, 357, 358, 359, 360, 361, 362, 363, 364, 365, 366, 367, 368, 369, 370, 371, 372, 373, 374, 375, 376, 377, 378, 379, 380, 381, 382, 383, 384, 385, 386, 387, 388, 389, 390, 391, 392, 393, 394, 395, 396, 397, 398, 399, 400, 401, 402, 403, 404, 405, 406, 407, 408, 409, 410, 411, 412, 413, 414, 415, 416, 417, 418, 419, 420, 421, 422, 423, 424, 425, 426, 427, 428, 429, 430, 431, 432, 433, 434, 435, 436, 437, 438, 439, 440, 441, 442, 443, 444, 445, 446, 447, 448, 449, 450, 451, 452, 453, 454, 455, 456, 457, 458, 459, 460, 461, 462, 463, 464, 465, 466, 467, 468, 469, 470, 471, 472, 473, 474, 475, 476, 477, 478, 479, 480, 481, 482, 483, 484, 485, 486, 487, 488, 489, 490, 491, 492, 493, 494, 495, 496, 497, 498, 499, 500, 501, 502, 503, 504, 505, 506, 507, 508, 509, 510, 511, 512, 513, 514, 515, 516, 517, 518, 519, 520, 521, 522, 523, 524, 525, 526, 527, 528, 529, 530, 531, 532, 533, 534, 535, 536, 537, 538, 539, 540, 541, 542, 543, 544, 545, 546, 547, 548, 549, 550, 551, 552, 553, 554, 555, 556, 557, 558, 559, 560, 561, 562, 563, 564, 565, 566, 567, 568, 569, 570, 571, 572, 573, 574, 575, 576, 577, 578, 579, 580, 581],
      "AcquisitionTime": ["143923.775000", "143924.562500", "143925.350000", "143926.140000", "143926.927500", "143927.715000", "143928.502500", "143929.292500", "143930.080000", "143930.867500", "143931.655000", "143932.445000", "143933.232500", "143934.020000", "143934.807500", "143935.597500", "143936.385000", "143937.172500", "143937.960000", "143938.750000", "143939.537500", "143940.325000", "143941.112500", "143941.902500", "143942.690000", "143943.477500", "143944.267500", "143945.055000", "143945.842500", "143946.630000", "143947.420000", "143948.207500", "143948.995000", "143949.782500", "143950.572500", "143951.360000", "143952.147500", "143952.935000", "143953.725000", "143954.512500", "143955.300000", "143956.087500", "143956.877500", "143957.665000", "143958.452500", "143959.240000", "144000.030000", "144000.817500", "144001.605000", "144002.395000", "144003.182500", "144003.970000", "144004.757500", "144005.547500", "144006.335000", "144007.122500", "144007.910000", "144008.700000", "144009.487500", "144010.275000", "144011.062500", "144011.852500", "144012.640000", "144013.427500", "144014.215000", "144015.005000", "144015.792500", "144016.580000", "144017.367500", "144018.157500", "144018.945000", "144019.732500", "144020.522500", "144021.310000", "144022.097500", "144022.885000", "144023.675000", "144024.462500", "144025.250000", "144026.037500", "144026.827500", "144027.615000", "144028.402500", "144029.190000", "144029.980000", "144030.767500", "144031.555000", "144032.342500", "144033.132500", "144033.920000", "144034.707500", "144035.495000", "144036.285000", "144037.072500", "144037.860000", "144038.650000", "144039.437500", "144040.225000", "144041.012500", "144041.802500", "144042.590000", "144043.377500", "144044.165000", "144044.955000", "144045.742500", "144046.530000", "144047.317500", "144048.107500", "144048.895000", "144049.682500", "144050.470000", "144051.260000", "144052.047500", "144052.835000", "144053.622500", "144054.412500", "144055.200000", "144055.987500", "144056.777500", "144057.565000", "144058.352500", "144059.140000", "144059.930000", "144100.717500", "144101.505000", "144102.292500", "144103.082500", "144103.870000", "144104.657500", "144105.445000", "144106.235000", "144107.022500", "144107.810000", "144108.597500", "144109.387500", "144110.175000", "144110.962500", "144111.750000", "144112.540000", "144113.327500", "144114.115000", "144114.905000", "144115.692500", "144116.480000", "144117.267500", "144118.057500", "144118.845000", "144119.632500", "144120.420000", "144121.210000", "144121.997500", "144122.785000", "144123.572500", "144124.362500", "144125.150000", "144125.937500", "144126.725000", "144127.515000", "144128.302500", "144129.090000", "144129.877500", "144130.667500", "144131.455000", "144132.242500", "144133.032500", "144133.820000", "144134.607500", "144135.395000", "144136.185000", "144136.972500", "144137.760000", "144138.547500", "144139.337500", "144140.125000", "144140.912500", "144141.700000", "144142.490000", "144143.277500", "144144.065000", "144144.852500", "144145.642500", "144146.430000", "144147.217500", "144148.005000", "144148.795000", "144149.582500", "144150.370000", "144151.160000", "144151.947500", "144152.735000", "144153.522500", "144154.312500", "144155.100000", "144155.887500", "144156.675000", "144157.465000", "144158.252500", "144159.040000", "144159.827500", "144200.617500", "144201.405000", "144202.192500", "144202.980000", "144203.770000", "144204.557500", "144205.345000", "144206.132500", "144206.922500", "144207.710000", "144208.497500", "144209.287500", "144210.075000", "144210.862500", "144211.650000", "144212.440000", "144213.227500", "144214.015000", "144214.802500", "144215.592500", "144216.380000", "144217.167500", "144217.955000", "144218.745000", "144219.532500", "144220.320000", "144221.107500", "144221.897500", "144222.685000", "144223.472500", "144224.260000", "144225.050000", "144225.837500", "144226.625000", "144227.415000", "144228.202500", "144228.990000", "144229.777500", "144230.567500", "144231.355000", "144232.142500", "144232.930000", "144233.720000", "144234.507500", "144235.295000", "144236.082500", "144236.872500", "144237.660000", "144238.447500", "144239.235000", "144240.025000", "144240.812500", "144241.600000", "144242.390000", "144243.177500", "144243.965000", "144244.752500", "144245.542500", "144246.330000", "144247.117500", "144247.905000", "144248.695000", "144249.482500", "144250.270000", "144251.057500", "144251.847500", "144252.635000", "144253.422500", "144254.210000", "144255.000000", "144255.787500", "144256.575000", "144257.362500", "144258.152500", "144258.940000", "144259.727500", "144300.517500", "144301.305000", "144302.092500", "144302.880000", "144303.670000", "144304.457500", "144305.245000", "144306.032500", "144306.822500", "144307.610000", "144308.397500", "144309.185000", "144309.975000", "144310.762500", "144311.550000", "144312.337500", "144313.127500", "144313.915000", "144314.702500", "144315.490000", "144316.280000", "144317.067500", "144317.855000", "144318.645000", "144319.432500", "144320.220000", "144321.007500", "144321.797500", "144322.585000", "144323.372500", "144324.160000", "144324.950000", "144325.737500", "144326.525000", "144327.312500", "144328.102500", "144328.890000", "144329.677500", "144330.465000", "144331.255000", "144332.042500", "144332.830000", "144333.617500", "144334.407500", "144335.195000", "144335.982500", "144336.772500", "144337.560000", "144338.347500", "144339.135000", "144339.925000", "144340.712500", "144341.500000", "144342.287500", "144343.077500", "144343.865000", "144344.652500", "144345.440000", "144346.230000", "144347.017500", "144347.805000", "144348.592500", "144349.382500", "144350.170000", "144350.957500", "144351.745000", "144352.535000", "144353.322500", "144354.110000", "144354.900000", "144355.687500", "144356.475000", "144357.262500", "144358.052500", "144358.840000", "144359.627500", "144400.415000", "144401.205000", "144401.992500", "144402.780000", "144403.567500", "144404.357500", "144405.145000", "144405.932500", "144406.720000", "144407.510000", "144408.297500", "144409.085000", "144409.872500", "144410.662500", "144411.450000", "144412.237500", "144413.027500", "144413.815000", "144414.602500", "144415.390000", "144416.180000", "144416.967500", "144417.755000", "144418.542500", "144419.332500", "144420.120000", "144420.907500", "144421.695000", "144422.485000", "144423.272500", "144424.060000", "144424.847500", "144425.637500", "144426.425000", "144427.212500", "144428.000000", "144428.790000", "144429.577500", "144430.365000", "144431.155000", "144431.942500", "144432.730000", "144433.517500", "144434.307500", "144435.095000", "144435.882500", "144436.670000", "144437.460000", "144438.247500", "144439.035000", "144439.822500", "144440.612500", "144441.400000", "144442.187500", "144442.975000", "144443.765000", "144444.552500", "144445.340000", "144446.127500", "144446.917500", "144447.705000", "144448.492500", "144449.282500", "144450.070000", "144450.857500", "144451.645000", "144452.435000", "144453.222500", "144454.010000", "144454.797500", "144455.587500", "144456.375000", "144457.162500", "144457.950000", "144458.740000", "144459.527500", "144500.315000", "144501.102500", "144501.892500", "144502.680000", "144503.467500", "144504.255000", "144505.045000", "144505.832500", "144506.620000", "144507.410000", "144508.197500", "144508.985000", "144509.772500", "144510.562500", "144511.350000", "144512.137500", "144512.925000", "144513.715000", "144514.502500", "144515.290000", "144516.077500", "144516.867500", "144517.655000", "144518.442500", "144519.230000", "144520.020000", "144520.807500", "144521.595000", "144522.382500", "144523.172500", "144523.960000", "144524.747500", "144525.537500", "144526.325000", "144527.112500", "144527.900000", "144528.690000", "144529.477500", "144530.265000", "144531.052500", "144531.842500", "144532.630000", "144533.417500", "144534.205000", "144534.995000", "144535.782500", "144536.570000", "144537.357500", "144538.147500", "144538.935000", "144539.722500", "144540.510000", "144541.300000", "144542.087500", "144542.875000", "144543.665000", "144544.452500", "144545.240000", "144546.027500", "144546.817500", "144547.605000", "144548.392500", "144549.180000", "144549.970000", "144550.757500", "144551.545000", "144552.332500", "144553.122500", "144553.910000", "144554.697500", "144555.485000", "144556.275000", "144557.062500", "144557.850000", "144558.640000", "144559.427500", "144600.215000", "144601.002500", "144601.792500", "144602.580000", "144603.367500", "144604.155000", "144604.945000", "144605.732500", "144606.520000", "144607.307500", "144608.097500", "144608.885000", "144609.672500", "144610.460000", "144611.250000", "144612.037500", "144612.825000", "144613.612500", "144614.402500", "144615.190000", "144615.977500", "144616.767500", "144617.555000", "144618.342500", "144619.130000", "144619.920000", "144620.707500", "144621.495000", "144622.282500", "144623.072500", "144623.860000", "144624.647500", "144625.435000", "144626.225000", "144627.012500", "144627.800000", "144628.587500", "144629.377500", "144630.165000", "144630.952500", "144631.740000", "144632.530000", "144633.317500", "144634.105000", "144634.895000", "144635.682500", "144636.470000", "144637.257500", "144638.047500", "144638.835000", "144639.622500", "144640.410000", "144641.200000", "144641.987500", "144642.775000", "144643.562500", "144644.352500", "144645.140000", "144645.927500", "144646.715000", "144647.505000", "144648.292500", "144649.080000", "144649.867500", "144650.657500", "144651.445000", "144652.232500", "144653.022500", "144653.810000", "144654.597500", "144655.385000", "144656.175000", "144656.962500", "144657.750000", "144658.537500", "144659.327500", "144700.115000", "144700.902500"],
      "ContentTime": ["143955.937000", "143955.937000", "143955.937000", "143955.937000", "143955.937000", "143955.953000", "143955.953000", "143955.953000", "143955.953000", "143955.953000", "143955.953000", "143955.953000", "143955.968000", "143955.968000", "143955.968000", "143955.968000", "143955.968000", "143955.968000", "143955.984000", "143955.984000", "143955.984000", "143955.984000", "143955.984000", "143955.984000", "143955.984000", "143956.000000", "143956.000000", "143956.000000", "143956.000000", "143956.000000", "143956.000000", "143956.000000", "143956.015000", "143956.015000", "143956.015000", "143956.015000", "143956.015000", "144015.906000", "144015.906000", "144015.906000", "144015.906000", "144015.921000", "144015.921000", "144015.921000", "144015.921000", "144015.921000", "144015.921000", "144015.921000", "144015.937000", "144015.937000", "144015.937000", "144015.937000", "144015.937000", "144015.937000", "144015.937000", "144015.953000", "144015.953000", "144015.953000", "144015.953000", "144015.953000", "144015.968000", "144015.968000", "144015.968000", "144035.906000", "144035.906000", "144035.906000", "144035.906000", "144035.921000", "144035.921000", "144035.921000", "144035.921000", "144035.921000", "144035.921000", "144035.921000", "144035.937000", "144035.937000", "144035.937000", "144035.937000", "144035.937000", "144035.937000", "144035.953000", "144035.953000", "144035.953000", "144035.953000", "144035.953000", "144035.953000", "144035.953000", "144035.968000", "144055.906000", "144055.906000", "144055.906000", "144055.906000", "144055.921000", "144055.921000", "144055.921000", "144055.921000", "144055.921000", "144055.921000", "144055.921000", "144055.937000", "144055.937000", "144055.937000", "144055.937000", "144055.937000", "144055.937000", "144055.953000", "144055.953000", "144055.953000", "144055.953000", "144055.953000", "144055.953000", "144055.953000", "144055.968000", "144055.968000", "144115.906000", "144115.906000", "144115.906000", "144115.906000", "144115.921000", "144115.921000", "144115.921000", "144115.921000", "144115.921000", "144115.921000", "144115.921000", "144115.937000", "144115.937000", "144115.937000", "144115.937000", "144115.937000", "144115.937000", "144115.937000", "144115.953000", "144115.953000", "144115.953000", "144115.953000", "144115.953000", "144115.953000", "144115.968000", "144135.906000", "144135.906000", "144135.906000", "144135.906000", "144135.921000", "144135.921000", "144135.921000", "144135.921000", "144135.921000", "144135.937000", "144135.937000", "144135.937000", "144135.937000", "144135.937000", "144135.937000", "144135.953000", "144135.953000", "144135.953000", "144135.953000", "144135.953000", "144135.953000", "144135.953000", "144135.968000", "144135.968000", "144135.968000", "144155.906000", "144155.906000", "144155.906000", "144155.906000", "144155.921000", "144155.921000", "144155.921000", "144155.921000", "144155.921000", "144155.921000", "144155.921000", "144155.937000", "144155.937000", "144155.937000", "144155.937000", "144155.937000", "144155.953000", "144155.953000", "144155.953000", "144155.953000", "144155.953000", "144155.953000", "144155.953000", "144155.968000", "144155.968000", "144155.968000", "144215.906000", "144215.906000", "144215.906000", "144215.906000", "144215.921000", "144215.921000", "144215.921000", "144215.921000", "144215.921000", "144215.921000", "144215.937000", "144215.937000", "144215.937000", "144215.937000", "144215.937000", "144215.937000", "144215.953000", "144215.953000", "144215.953000", "144215.953000", "144215.953000", "144215.953000", "144215.968000", "144215.968000", "144215.968000", "144235.906000", "144235.906000", "144235.921000", "144235.921000", "144235.921000", "144235.921000", "144235.921000", "144235.921000", "144235.921000", "144235.937000", "144235.937000", "144235.937000", "144235.937000", "144235.937000", "144235.937000", "144235.953000", "144235.953000", "144235.953000", "144235.953000", "144235.953000", "144235.953000", "144235.968000", "144235.968000", "144235.968000", "144235.968000", "144235.968000", "144255.906000", "144255.906000", "144255.921000", "144255.921000", "144255.921000", "144255.921000", "144255.921000", "144255.921000", "144255.921000", "144255.937000", "144255.937000", "144255.937000", "144255.937000", "144255.937000", "144255.953000", "144255.953000", "144255.953000", "144255.953000", "144255.953000", "144255.968000", "144255.968000", "144255.968000", "144255.968000", "144255.968000", "144255.984000", "144315.906000", "144315.906000", "144315.906000", "144315.906000", "144315.921000", "144315.921000", "144315.921000", "144315.921000", "144315.921000", "144315.921000", "144315.921000", "144315.937000", "144315.937000", "144315.937000", "144315.937000", "144315.937000", "144315.937000", "144315.953000", "144315.953000", "144315.953000", "144315.953000", "144315.953000", "144315.953000", "144315.953000", "144315.968000", "144315.968000", "144335.906000", "144335.906000", "144335.906000", "144335.906000", "144335.921000", "144335.921000", "144335.921000", "144335.921000", "144335.921000", "144335.921000", "144335.921000", "144335.937000", "144335.937000", "144335.937000", "144335.937000", "144335.937000", "144335.937000", "144335.937000", "144335.953000", "144335.953000", "144335.953000", "144335.953000", "144335.953000", "144335.953000", "144335.968000", "144355.906000", "144355.906000", "144355.906000", "144355.906000", "144355.921000", "144355.921000", "144355.921000", "144355.921000", "144355.921000", "144355.921000", "144355.937000", "144355.937000", "144355.937000", "144355.937000", "144355.937000", "144355.937000", "144355.937000", "144355.953000", "144355.953000", "144355.953000", "144355.953000", "144355.953000", "144355.968000", "144355.968000", "144355.968000", "144355.968000", "144415.906000", "144415.906000", "144415.906000", "144415.906000", "144415.921000", "144415.921000", "144415.921000", "144415.921000", "144415.921000", "144415.921000", "144415.937000", "144415.937000", "144415.937000", "144415.937000", "144415.937000", "144415.937000", "144415.937000", "144415.953000", "144415.953000", "144415.953000", "144415.953000", "144415.953000", "144415.953000", "144415.953000", "144415.968000", "144435.906000", "144435.906000", "144435.906000", "144435.906000", "144435.921000", "144435.921000", "144435.921000", "144435.921000", "144435.921000", "144435.921000", "144435.921000", "144435.937000", "144435.937000", "144435.937000", "144435.937000", "144435.937000", "144435.937000", "144435.937000", "144435.953000", "144435.953000", "144435.953000", "144435.953000", "144435.953000", "144435.953000", "144435.953000", "144435.968000", "144455.906000", "144455.906000", "144455.906000", "144455.906000", "144455.921000", "144455.921000", "144455.921000", "144455.921000", "144455.921000", "144455.921000", "144455.921000", "144455.937000", "144455.937000", "144455.937000", "144455.937000", "144455.937000", "144455.937000", "144455.953000", "144455.953000", "144455.953000", "144455.953000", "144455.968000", "144455.968000", "144455.968000", "144455.968000", "144515.906000", "144515.906000", "144515.906000", "144515.906000", "144515.921000", "144515.921000", "144515.921000", "144515.921000", "144515.921000", "144515.921000", "144515.921000", "144515.937000", "144515.937000", "144515.937000", "144515.937000", "144515.937000", "144515.937000", "144515.937000", "144515.953000", "144515.953000", "144515.953000", "144515.953000", "144515.953000", "144515.953000", "144515.968000", "144515.968000", "144535.906000", "144535.906000", "144535.906000", "144535.906000", "144535.921000", "144535.921000", "144535.921000", "144535.921000", "144535.921000", "144535.921000", "144535.921000", "144535.937000", "144535.937000", "144535.937000", "144535.937000", "144535.937000", "144535.937000", "144535.937000", "144535.953000", "144535.953000", "144535.953000", "144535.953000", "144535.953000", "144535.953000", "144535.953000", "144555.906000", "144555.906000", "144555.906000", "144555.906000", "144555.921000", "144555.921000", "144555.921000", "144555.921000", "144555.921000", "144555.921000", "144555.921000", "144555.937000", "144555.937000", "144555.937000", "144555.937000", "144555.937000", "144555.937000", "144555.937000", "144555.953000", "144555.953000", "144555.953000", "144555.953000", "144555.953000", "144555.953000", "144555.953000", "144555.968000", "144615.906000", "144615.906000", "144615.906000", "144615.906000", "144615.921000", "144615.921000", "144615.921000", "144615.921000", "144615.921000", "144615.921000", "144615.937000", "144615.937000", "144615.937000", "144615.937000", "144615.937000", "144615.937000", "144615.937000", "144615.953000", "144615.953000", "144615.953000", "144615.953000", "144615.953000", "144615.953000", "144615.953000", "144615.968000", "144635.906000", "144635.906000", "144635.906000", "144635.906000", "144635.921000", "144635.921000", "144635.921000", "144635.921000", "144635.921000", "144635.921000", "144635.921000", "144635.937000", "144635.937000", "144635.937000", "144635.937000", "144635.937000", "144635.937000", "144635.937000", "144635.953000", "144635.953000", "144635.953000", "144635.953000", "144635.953000", "144635.953000", "144635.968000", "144635.968000", "144655.906000", "144655.906000", "144655.906000", "144655.906000", "144655.921000", "144655.921000", "144655.921000", "144655.921000", "144655.921000", "144655.921000", "144655.921000", "144655.937000", "144655.937000", "144655.937000", "144655.937000", "144655.937000", "144655.937000", "144655.937000", "144655.953000", "144655.953000", "144655.953000", "144655.953000", "144655.953000", "144655.968000", "144655.968000", "144702.546000", "144702.546000", "144702.546000", "144702.562000", "144702.562000", "144702.562000", "144702.562000", "144702.562000", "144702.562000"],
