{
  "AcquisitionMatrixPE": 104,
  "AcquisitionNumber": 1,
  "AcquisitionTime": "14:06:0.755000",
  "BandwidthPerPixelPhaseEncode": 13.935,
  "BaseResolution": 104,
  "CoilString": "C:HEA;HEP",
  "ConversionSoftware": "dcm2niix",
  "ConversionSoftwareVersion": "v1.0.20210317",
  "DerivedVendorReportedEchoSpacing": 0.000690017,
  "DeviceSerialNumber": "35450",
  "DwellTime": 2.5e-06,
  "EchoTime": 0.0348,
  "EffectiveEchoSpacing": 0.000690017,
  "FlipAngle": 55,
  "ImageComments": "Unaliased MB8/PE3 (remote)",
  "ImageOrientationPatientDICOM": [0.999973, 0.00206734, 0.00706971, -1.31204e-08, 0.959805, -0.280667],
  "ImageType": [
    "ORIGINAL",
    "PRIMARY",
    "M",
    "MB",
    "ND",
    "MOSAIC"
],
  "ImagingFrequency": 123.235,
  "InPlanePhaseEncodingDirectionDICOM": "COL",
  "InstitutionAddress": "Univeristy Ave. 197,Newark,North East,US,07102-1814",
  "InstitutionName": "RUBIC",
  "InstitutionalDepartmentName": "Department",
  "MRAcquisitionType": "2D",
  "MagneticFieldStrength": 3,
  "Manufacturer": "Siemens",
  "ManufacturersModelName": "TrioTim",
  "Modality": "MR",
  "MultibandAccelerationFactor": 8,
  "PartialFourier": 0.875,
  "PatientPosition": "HFS",
  "PercentPhaseFOV": 100,
  "PercentSampling": 100,
  "PhaseEncodingDirection": "j-",
  "PhaseEncodingSteps": 91,
  "PhaseResolution": 1,
  "PixelBandwidth": 1923,
  "ProcedureStepDescription": "Cole^Michael",
  "ProtocolName": "cmrr_mbep2d_bold_2mm_MB8_Task_8x",
  "PulseSequenceDetails": "%CustomerSeq%\\cmrr_mbep2d_bold",
  "ReceiveCoilName": "32Ch_Head",
  "ReconMatrixPE": 104,
  "RepetitionTime": 0.785,
  "SAR": 0.131075,
  "ScanOptions": "PFP\\FS",
  "ScanningSequence": "EP",
  "SequenceName": "epfid2d1_104",
  "SequenceVariant": "SK\\SS",
  "SeriesDescription": "cmrr_mbep2d_bold_2mm_MB8_Task_8x",
  "SeriesNumber": 19,
  "ShimSetting": [2106, -378, -7445, 330, 165, -610, -48, -61],
  "SliceThickness": 2,
  "SliceTiming": [0, 0.4375, 0.0875, 0.525, 0.175, 0.6125, 0.2625, 0.7, 0.35, 0, 0.4375, 0.0875, 0.525, 0.175, 0.6125, 0.2625, 0.7, 0.35, 0, 0.4375, 0.0875, 0.525, 0.175, 0.6125, 0.2625, 0.7, 0.35, 0, 0.4375, 0.0875, 0.525, 0.175, 0.6125, 0.2625, 0.7, 0.35, 0, 0.4375, 0.0875, 0.525, 0.175, 0.6125, 0.2625, 0.7, 0.35, 0, 0.4375, 0.0875, 0.525, 0.175, 0.6125, 0.2625, 0.7, 0.35, 0, 0.4375, 0.0875, 0.525, 0.175, 0.6125, 0.2625, 0.7, 0.35, 0, 0.4375, 0.0875, 0.525, 0.175, 0.6125, 0.2625, 0.7, 0.35],
  "SoftwareVersions": "syngo MR B19",
  "SpacingBetweenSlices": 2,
  "StationName": "MRC35450",
  "TaskName": "cpro",
  "TotalReadoutTime": 0.0710717,
  "TxRefAmp": 327.818,
  "dcmmeta_affine": [
    [-1.9999457597732544, -2.6240769557261956e-08, 0.01473156176507473, 104.90180206298828],
    [-0.004134681541472673, 1.9196107387542725, -0.5613178610801697, -66.14610290527344],
    [0.014139424078166485, 0.5613330602645874, 1.9195586442947388, -117.4531478881836],
    [0.0, 0.0, 0.0, 1.0]
],
  "dcmmeta_reorient_transform": [
    [0.0, -1.0, 0.0, 103.0],
    [1.0, 0.0, 0.0, 0.0],
    [0.0, 0.0, 1.0, 0.0],
    [0.0, 0.0, 0.0, 1.0]
],
  "dcmmeta_shape": [104, 104, 72, 581],
  "dcmmeta_slice_dim": 2,
  "dcmmeta_version": 0.6,
  "global": {
    "const": {
      "AcquisitionMatrix": [104, 0, 0, 104],
      "AngioFlag": "N",
      "BitsAllocated": 16,
      "BitsStored": 12,
      "Columns": 936,
      "EchoNumbers": 1,
      "EchoTime": 34.8,
      "EchoTrainLength": 1,
      "FlipAngle": 55.0,
      "HighBit": 11,
      "ImageOrientationPatient": [0.99997287226744, 0.00206734080563, 0.00706971224356, -1.3120385e-08, 0.95980534314461, -0.280666533935],
      "ImagePositionPatient": [-936.87921996812, -931.85186797455, 167.99671268859],
      "ImageType": [
        "ORIGINAL",
        "PRIMARY",
        "M",
        "MB",
        "ND",
        "MOSAIC"
],
      "ImagedNucleus": "1H",
      "ImagingFrequency": 123.23452,
      "InPlanePhaseEncodingDirection": "COL",
      "MRAcquisitionType": "2D",
      "MagneticFieldStrength": 3.0,
      "Manufacturer": "SIEMENS",
      "ManufacturerModelName": "TrioTim",
      "Modality": "MR",
      "NumberOfAverages": 1.0,
      "NumberOfPhaseEncodingSteps": 91,
      "PercentPhaseFieldOfView": 100.0,
      "PercentSampling": 100.0,
      "PerformedProcedureStepStartTime": "123910.390000",
      "PhotometricInterpretation": "MONOCHROME2",
      "PixelBandwidth": 1923.0,
      "PixelRepresentation": 0,
      "PixelSpacing": [2.0, 2.0],
      "ProtocolName": "cmrr_mbep2d_bold_2mm_MB8_Task_8x",
      "RepetitionTime": 785.0,
      "Rows": 936,
      "SAR": 0.13107531822232,
      "SamplesPerPixel": 1,
      "ScanOptions": [
        "PFP",
        "FS"
],
      "ScanningSequence": "EP",
      "SequenceName": "epfid2d1_104",
      "SequenceVariant": [
        "SK",
        "SS"
],
      "SeriesDescription": "cmrr_mbep2d_bold_2mm_MB8_Task_8x",
      "SeriesNumber": 19,
      "SeriesTime": "140636.265000",
      "SliceLocation": -93.391923451487,
      "SliceThickness": 2.0,
      "SmallestImagePixelValue": 0,
      "SoftwareVersions": "syngo MR B19",
      "SpacingBetweenSlices": 1.9999999977474,
      "SpecificCharacterSet": "ISO_IR 100",
      "StudyID": "1",
      "StudyTime": "123910.359000",
      "TransmitCoilName": "Body",
      "VariableFlipAngleFlag": "N",
      "WindowCenterWidthExplanation": "Algo1",
      "dBdt": 0.0},
    "slices": {}
  },
  "time": {
    "samples": {
      "AcquisitionNumber": [1, 2, 3, 4, 5, 6, 7, 8, 9, 10, 11, 12, 13, 14, 15, 16, 17, 18, 19, 20, 21, 22, 23, 24, 25, 26, 27, 28, 29, 30, 31, 32, 33, 34, 35, 36, 37, 38, 39, 40, 41, 42, 43, 44, 45, 46, 47, 48, 49, 50, 51, 52, 53, 54, 55, 56, 57, 58, 59, 60, 61, 62, 63, 64, 65, 66, 67, 68, 69, 70, 71, 72, 73, 74, 75, 76, 77, 78, 79, 80, 81, 82, 83, 84, 85, 86, 87, 88, 89, 90, 91, 92, 93, 94, 95, 96, 97, 98, 99, 100, 101, 102, 103, 104, 105, 106, 107, 108, 109, 110, 111, 112, 113, 114, 115, 116, 117, 118, 119, 120, 121, 122, 123, 124, 125, 126, 127, 128, 129, 130, 131, 132, 133, 134, 135, 136, 137, 138, 139, 140, 141, 142, 143, 144, 145, 146, 147, 148, 149, 150, 151, 152, 153, 154, 155, 156, 157, 158, 159, 160, 161, 162, 163, 164, 165, 166, 167, 168, 169, 170, 171, 172, 173, 174, 175, 176, 177, 178, 179, 180, 181, 182, 183, 184, 185, 186, 187, 188, 189, 190, 191, 192, 193, 194, 195, 196, 197, 198, 199, 200, 201, 202, 203, 204, 205, 206, 207, 208, 209, 210, 211, 212, 213, 214, 215, 216, 217, 218, 219, 220, 221, 222, 223, 224, 225, 226, 227, 228, 229, 230, 231, 232, 233, 234, 235, 236, 237, 238, 239, 240, 241, 242, 243, 244, 245, 246, 247, 248, 249, 250, 251, 252, 253, 254, 255, 256, 257, 258, 259, 260, 261, 262, 263, 264, 265, 266, 267, 268, 269, 270, 271, 272, 273, 274, 275, 276, 277, 278, 279, 280, 281, 282, 283, 284, 285, 286, 287, 288, 289, 290, 291, 292, 293, 294, 295, 296, 297, 298, 299, 300, 301, 302, 303, 304, 305, 306, 307, 308, 309, 310, 311, 312, 313, 314, 315, 316, 317, 318, 319, 320, 321, 322, 323, 324, 325, 326, 327, 328, 329, 330, 331, 332, 333, 334, 335, 336, 337, 338, 339, 340, 341, 342, 343, 344, 345, 346, 347, 348, 349, 350, 351, 352, 353, 354, 355, 356, 357, 358, 359, 360, 361, 362, 363, 364, 365, 366, 367, 368, 369, 370, 371, 372, 373, 374, 375, 376, 377, 378, 379, 380, 381, 382, 383, 384, 385, 386, 387, 388, 389, 390, 391, 392, 393, 394, 395, 396, 397, 398, 399, 400, 401, 402, 403, 404, 405, 406, 407, 408, 409, 410, 411, 412, 413, 414, 415, 416, 417, 418, 419, 420, 421, 422, 423, 424, 425, 426, 427, 428, 429, 430, 431, 432, 433, 434, 435, 436, 437, 438, 439, 440, 441, 442, 443, 444, 445, 446, 447, 448, 449, 450, 451, 452, 453, 454, 455, 456, 457, 458, 459, 460, 461, 462, 463, 464, 465, 466, 467, 468, 469, 470, 471, 472, 473, 474, 475, 476, 477, 478, 479, 480, 481, 482, 483, 484, 485, 486, 487, 488, 489, 490, 491, 492, 493, 494, 495, 496, 497, 498, 499, 500, 501, 502, 503, 504, 505, 506, 507, 508, 509, 510, 511, 512, 513, 514, 515, 516, 517, 518, 519, 520, 521, 522, 523, 524, 525, 526, 527, 528, 529, 530, 531, 532, 533, 534, 535, 536, 537, 538, 539, 540, 541, 542, 543, 544, 545, 546, 547, 548, 549, 550, 551, 552, 553, 554, 555, 556, 557, 558, 559, 560, 561, 562, 563, 564, 565, 566, 567, 568, 569, 570, 571, 572, 573, 574, 575, 576, 577, 578, 579, 580, 581],
      "AcquisitionTime": ["140600.755000", "140601.545000", "140602.332500", "140603.120000", "140603.907500", "140604.697500", "140605.485000", "140606.272500", "140607.060000", "140607.850000", "140608.637500", "140609.425000", "140610.212500", "140611.002500", "140611.790000", "140612.577500", "140613.367500", "140614.155000", "140614.942500", "140615.730000", "140616.520000", "140617.307500", "140618.095000", "140618.882500", "140619.672500", "140620.460000", "140621.247500", "140622.035000", "140622.825000", "140623.612500", "140624.400000", "140625.187500", "140625.977500", "140626.765000", "140627.552500", "140628.340000", "140629.130000", "140629.917500", "140630.705000", "140631.495000", "140632.282500", "140633.070000", "140633.857500", "140634.647500", "140635.435000", "140636.222500", "140637.010000", "140637.800000", "140638.587500", "140639.375000", "140640.162500", "140640.952500", "140641.740000", "140642.527500", "140643.315000", "140644.105000", "140644.892500", "140645.680000", "140646.467500", "140647.257500", "140648.045000", "140648.832500", "140649.622500", "140650.410000", "140651.197500", "140651.985000", "140652.775000", "140653.562500", "140654.350000", "140655.137500", "140655.927500", "140656.715000", "140657.502500", "140658.290000", "140659.080000", "140659.867500", "140700.655000", "140701.442500", "140702.232500", "140703.020000", "140703.807500", "140704.595000", "140705.385000", "140706.172500", "140706.960000", "140707.750000", "140708.537500", "140709.325000", "140710.112500", "140710.902500", "140711.690000", "140712.477500", "140713.265000", "140714.055000", "140714.842500", "140715.630000", "140716.417500", "140717.207500", "140717.995000", "140718.782500", "140719.570000", "140720.360000", "140721.147500", "140721.935000", "140722.722500", "140723.512500", "140724.300000", "140725.087500", "140725.877500", "140726.665000", "140727.452500", "140728.240000", "140729.030000", "140729.817500", "140730.605000", "140731.392500", "140732.182500", "140732.970000", "140733.757500", "140734.545000", "140735.335000", "140736.122500", "140736.910000", "140737.697500", "140738.487500", "140739.275000", "140740.062500", "140740.850000", "140741.640000", "140742.427500", "140743.215000", "140744.005000", "140744.792500", "140745.580000", "140746.367500", "140747.157500", "140747.945000", "140748.732500", "140749.520000", "140750.310000", "140751.097500", "140751.885000", "140752.672500", "140753.462500", "140754.250000", "140755.037500", "140755.825000", "140756.615000", "140757.402500", "140758.190000", "140758.977500", "140759.767500", "140800.555000", "140801.342500", "140802.132500", "140802.920000", "140803.707500", "140804.495000", "140805.285000", "140806.072500", "140806.860000", "140807.647500", "140808.437500", "140809.225000", "140810.012500", "140810.800000", "140811.590000", "140812.377500", "140813.165000", "140813.952500", "140814.742500", "140815.530000", "140816.317500", "140817.105000", "140817.895000", "140818.682500", "140819.470000", "140820.260000", "140821.047500", "140821.835000", "140822.622500", "140823.412500", "140824.200000", "140824.987500", "140825.775000", "140826.565000", "140827.352500", "140828.140000", "140828.927500", "140829.717500", "140830.505000", "140831.292500", "140832.080000", "140832.870000", "140833.657500", "140834.445000", "140835.232500", "140836.022500", "140836.810000", "140837.597500", "140838.387500", "140839.175000", "140839.962500", "140840.750000", "140841.540000", "140842.327500", "140843.115000", "140843.902500", "140844.692500", "140845.480000", "140846.267500", "140847.055000", "140847.845000", "140848.632500", "140849.420000", "140850.207500", "140850.997500", "140851.785000", "140852.572500", "140853.360000", "140854.150000", "140854.937500", "140855.725000", "140856.515000", "140857.302500", "140858.090000", "140858.877500", "140859.667500", "140900.455000", "140901.242500", "140902.030000", "140902.820000", "140903.607500", "140904.395000", "140905.182500", "140905.972500", "140906.760000", "140907.547500", "140908.335000", "140909.125000", "140909.912500", "140910.700000", "140911.490000", "140912.277500", "140913.065000", "140913.852500", "140914.642500", "140915.430000", "140916.217500", "140917.005000", "140917.795000", "140918.582500", "140919.370000", "140920.157500", "140920.947500", "140921.735000", "140922.522500", "140923.310000", "140924.100000", "140924.887500", "140925.675000", "140926.462500", "140927.252500", "140928.040000", "140928.827500", "140929.617500", "140930.405000", "140931.192500", "140931.980000", "140932.770000", "140933.557500", "140934.345000", "140935.132500", "140935.922500", "140936.710000", "140937.497500", "140938.285000", "140939.075000", "140939.862500", "140940.650000", "140941.437500", "140942.227500", "140943.015000", "140943.802500", "140944.590000", "140945.380000", "140946.167500", "140946.955000", "140947.745000", "140948.532500", "140949.320000", "140950.107500", "140950.897500", "140951.685000", "140952.472500", "140953.260000", "140954.050000", "140954.837500", "140955.625000", "140956.412500", "140957.202500", "140957.990000", "140958.777500", "140959.565000", "141000.355000", "141001.142500", "141001.930000", "141002.717500", "141003.507500", "141004.295000", "141005.082500", "141005.872500", "141006.660000", "141007.447500", "141008.235000", "141009.025000", "141009.812500", "141010.600000", "141011.387500", "141012.177500", "141012.965000", "141013.752500", "141014.540000", "141015.330000", "141016.117500", "141016.905000", "141017.692500", "141018.482500", "141019.270000", "141020.057500", "141020.845000", "141021.635000", "141022.422500", "141023.210000", "141024.000000", "141024.787500", "141025.575000", "141026.362500", "141027.152500", "141027.940000", "141028.727500", "141029.515000", "141030.305000", "141031.092500", "141031.880000", "141032.667500", "141033.457500", "141034.245000", "141035.032500", "141035.820000", "141036.610000", "141037.397500", "141038.185000", "141038.972500", "141039.762500", "141040.550000", "141041.337500", "141042.127500", "141042.915000", "141043.702500", "141044.490000", "141045.280000", "141046.067500", "141046.855000", "141047.642500", "141048.432500", "141049.220000", "141050.007500", "141050.795000", "141051.585000", "141052.372500", "141053.160000", "141053.947500", "141054.737500", "141055.525000", "141056.312500", "141057.100000", "141057.890000", "141058.677500", "141059.465000", "141100.255000", "141101.042500", "141101.830000", "141102.617500", "141103.407500", "141104.195000", "141104.982500", "141105.770000", "141106.560000", "141107.347500", "141108.135000", "141108.922500", "141109.712500", "141110.500000", "141111.287500", "141112.075000", "141112.865000", "141113.652500", "141114.440000", "141115.227500", "141116.017500", "141116.805000", "141117.592500", "141118.382500", "141119.170000", "141119.957500", "141120.745000", "141121.535000", "141122.322500", "141123.110000", "141123.897500", "141124.687500", "141125.475000", "141126.262500", "141127.050000", "141127.840000", "141128.627500", "141129.415000", "141130.202500", "141130.992500", "141131.780000", "141132.567500", "141133.355000", "141134.145000", "141134.932500", "141135.720000", "141136.510000", "141137.297500", "141138.085000", "141138.872500", "141139.662500", "141140.450000", "141141.237500", "141142.025000", "141142.815000", "141143.602500", "141144.390000", "141145.177500", "141145.967500", "141146.755000", "141147.542500", "141148.330000", "141149.120000", "141149.907500", "141150.695000", "141151.482500", "141152.272500", "141153.060000", "141153.847500", "141154.637500", "141155.425000", "141156.212500", "141157.000000", "141157.790000", "141158.577500", "141159.365000", "141200.152500", "141200.942500", "141201.730000", "141202.517500", "141203.305000", "141204.095000", "141204.882500", "141205.670000", "141206.457500", "141207.247500", "141208.035000", "141208.822500", "141209.610000", "141210.400000", "141211.187500", "141211.975000", "141212.765000", "141213.552500", "141214.340000", "141215.127500", "141215.917500", "141216.705000", "141217.492500", "141218.280000", "141219.070000", "141219.857500", "141220.645000", "141221.432500", "141222.222500", "141223.010000", "141223.797500", "141224.585000", "141225.375000", "141226.162500", "141226.950000", "141227.740000", "141228.527500", "141229.315000", "141230.102500", "141230.892500", "141231.680000", "141232.467500", "141233.255000", "141234.045000", "141234.832500", "141235.620000", "141236.407500", "141237.197500", "141237.985000", "141238.772500", "141239.560000", "141240.350000", "141241.137500", "141241.925000", "141242.712500", "141243.502500", "141244.290000", "141245.077500", "141245.867500", "141246.655000", "141247.442500", "141248.230000", "141249.020000", "141249.807500", "141250.595000", "141251.382500", "141252.172500", "141252.960000", "141253.747500", "141254.535000", "141255.325000", "141256.112500", "141256.900000", "141257.687500", "141258.477500", "141259.265000", "141300.052500", "141300.840000", "141301.630000", "141302.417500", "141303.205000", "141303.995000", "141304.782500", "141305.570000", "141306.357500", "141307.147500", "141307.935000", "141308.722500", "141309.510000", "141310.300000", "141311.087500", "141311.875000", "141312.662500", "141313.452500", "141314.240000", "141315.027500", "141315.815000", "141316.605000", "141317.392500", "141318.180000", "141318.967500", "141319.757500", "141320.545000", "141321.332500", "141322.122500", "141322.910000", "141323.697500", "141324.485000", "141325.275000", "141326.062500", "141326.850000", "141327.637500", "141328.427500", "141329.215000", "141330.002500", "141330.790000", "141331.580000", "141332.367500", "141333.155000", "141333.942500", "141334.732500", "141335.520000", "141336.307500", "141337.095000", "141337.885000"],
      "ContentTime": ["140636.281000", "140636.281000", "140636.281000", "140636.281000", "140636.281000", "140636.281000", "140636.296000", "140636.296000", "140636.296000", "140636.296000", "140636.296000", "140636.296000", "140636.312000", "140636.312000", "140636.312000", "140636.312000", "140636.312000", "140636.328000", "140636.328000", "140636.328000", "140636.328000", "140636.328000", "140636.328000", "140636.328000", "140636.343000", "140636.343000", "140636.343000", "140636.343000", "140636.343000", "140636.343000", "140636.343000", "140636.359000", "140636.359000", "140636.359000", "140636.359000", "140636.359000", "140636.359000", "140636.359000", "140636.375000", "140636.375000", "140636.375000", "140636.375000", "140656.250000", "140656.250000", "140656.250000", "140656.250000", "140656.265000", "140656.265000", "140656.265000", "140656.265000", "140656.265000", "140656.265000", "140656.281000", "140656.281000", "140656.281000", "140656.281000", "140656.281000", "140656.281000", "140656.281000", "140656.296000", "140656.296000", "140656.296000", "140656.296000", "140656.296000", "140656.312000", "140656.312000", "140656.312000", "140716.250000", "140716.250000", "140716.250000", "140716.250000", "140716.265000", "140716.265000", "140716.265000", "140716.265000", "140716.265000", "140716.265000", "140716.265000", "140716.281000", "140716.281000", "140716.281000", "140716.281000", "140716.281000", "140716.281000", "140716.281000", "140716.296000", "140716.296000", "140716.296000", "140716.296000", "140716.296000", "140716.296000", "140716.312000", "140716.312000", "140736.250000", "140736.250000", "140736.250000", "140736.250000", "140736.265000", "140736.265000", "140736.265000", "140736.265000", "140736.265000", "140736.265000", "140736.265000", "140736.281000", "140736.281000", "140736.281000", "140736.281000", "140736.281000", "140736.281000", "140736.281000", "140736.296000", "140736.296000", "140736.296000", "140736.296000", "140736.296000", "140736.312000", "140736.312000", "140756.250000", "140756.250000", "140756.250000", "140756.250000", "140756.265000", "140756.265000", "140756.265000", "140756.265000", "140756.265000", "140756.265000", "140756.265000", "140756.281000", "140756.281000", "140756.281000", "140756.281000", "140756.281000", "140756.281000", "140756.281000", "140756.296000", "140756.296000", "140756.296000", "140756.296000", "140756.296000", "140756.296000", "140756.296000", "140756.312000", "140816.250000", "140816.250000", "140816.250000", "140816.250000", "140816.265000", "140816.265000", "140816.265000", "140816.265000", "140816.265000", "140816.265000", "140816.265000", "140816.281000", "140816.281000", "140816.281000", "140816.281000", "140816.281000", "140816.281000", "140816.281000", "140816.296000", "140816.296000", "140816.296000", "140816.296000", "140816.296000", "140816.312000", "140816.312000", "140836.250000", "140836.250000", "140836.250000", "140836.250000", "140836.265000", "140836.265000", "140836.265000", "140836.265000", "140836.281000", "140836.281000", "140836.281000", "140836.281000", "140836.281000", "140836.296000", "140836.296000", "140836.296000", "140836.296000", "140836.296000", "140836.296000", "140836.296000", "140836.312000", "140836.312000", "140836.312000", "140836.312000", "140836.312000", "140836.312000", "140856.250000", "140856.250000", "140856.250000", "140856.250000", "140856.265000", "140856.265000", "140856.265000", "140856.265000", "140856.265000", "140856.281000", "140856.281000", "140856.281000", "140856.281000", "140856.281000", "140856.281000", "140856.281000", "140856.296000", "140856.296000", "140856.296000", "140856.296000", "140856.296000", "140856.296000", "140856.312000", "140856.312000", "140856.312000", "140916.250000", "140916.250000", "140916.250000", "140916.250000", "140916.265000", "140916.265000", "140916.265000", "140916.265000", "140916.265000", "140916.265000", "140916.265000", "140916.281000", "140916.281000", "140916.281000", "140916.281000", "140916.281000", "140916.281000", "140916.281000", "140916.296000", "140916.296000", "140916.296000", "140916.296000", "140916.296000", "140916.296000", "140916.296000", "140916.312000", "140936.250000", "140936.250000", "140936.250000", "140936.250000", "140936.265000", "140936.265000", "140936.265000", "140936.265000", "140936.265000", "140936.265000", "140936.265000", "140936.281000", "140936.281000", "140936.281000", "140936.281000", "140936.281000", "140936.281000", "140936.281000", "140936.296000", "140936.296000", "140936.296000", "140936.296000", "140936.296000", "140936.296000", "140936.296000", "140956.250000", "140956.250000", "140956.250000", "140956.250000", "140956.265000", "140956.265000", "140956.265000", "140956.265000", "140956.265000", "140956.265000", "140956.265000", "140956.281000", "140956.281000", "140956.281000", "140956.281000", "140956.281000", "140956.296000", "140956.296000", "140956.296000", "140956.296000", "140956.296000", "140956.296000", "140956.296000", "140956.312000", "140956.312000", "140956.312000", "141016.250000", "141016.250000", "141016.250000", "141016.250000", "141016.265000", "141016.265000", "141016.265000", "141016.265000", "141016.265000", "141016.265000", "141016.265000", "141016.281000", "141016.281000", "141016.281000", "141016.281000", "141016.281000", "141016.281000", "141016.281000", "141016.296000", "141016.296000", "141016.296000", "141016.296000", "141016.312000", "141016.312000", "141016.312000", "141036.250000", "141036.250000", "141036.250000", "141036.250000", "141036.265000", "141036.265000", "141036.265000", "141036.265000", "141036.265000", "141036.265000", "141036.265000", "141036.281000", "141036.281000", "141036.281000", "141036.281000", "141036.281000", "141036.281000", "141036.281000", "141036.296000", "141036.296000", "141036.296000", "141036.296000", "141036.296000", "141036.296000", "141036.296000", "141036.312000", "141056.250000", "141056.250000", "141056.250000", "141056.250000", "141056.265000", "141056.265000", "141056.265000", "141056.265000", "141056.265000", "141056.265000", "141056.265000", "141056.281000", "141056.281000", "141056.281000", "141056.281000", "141056.281000", "141056.281000", "141056.281000", "141056.296000", "141056.296000", "141056.296000", "141056.296000", "141056.296000", "141056.296000", "141056.312000", "141116.250000", "141116.250000", "141116.250000", "141116.250000", "141116.265000", "141116.265000", "141116.265000", "141116.265000", "141116.265000", "141116.265000", "141116.265000", "141116.281000", "141116.281000", "141116.281000", "141116.281000", "141116.281000", "141116.281000", "141116.281000", "141116.296000", "141116.296000", "141116.296000", "141116.296000", "141116.296000", "141116.296000", "141116.312000", "141116.312000", "141136.250000", "141136.250000", "141136.250000", "141136.250000", "141136.265000", "141136.265000", "141136.265000", "141136.265000", "141136.265000", "141136.265000", "141136.265000", "141136.281000", "141136.281000", "141136.281000", "141136.281000", "141136.281000", "141136.281000", "141136.281000", "141136.296000", "141136.296000", "141136.296000", "141136.296000", "141136.296000", "141136.312000", "141136.312000", "141156.250000", "141156.250000", "141156.250000", "141156.250000", "141156.265000", "141156.265000", "141156.265000", "141156.265000", "141156.265000", "141156.265000", "141156.265000", "141156.281000", "141156.281000", "141156.281000", "141156.281000", "141156.281000", "141156.281000", "141156.281000", "141156.296000", "141156.296000", "141156.296000", "141156.296000", "141156.296000", "141156.312000", "141156.312000", "141156.312000", "141216.250000", "141216.250000", "141216.250000", "141216.250000", "141216.265000", "141216.265000", "141216.265000", "141216.265000", "141216.265000", "141216.265000", "141216.265000", "141216.281000", "141216.281000", "141216.281000", "141216.281000", "141216.281000", "141216.281000", "141216.296000", "141216.296000", "141216.296000", "141216.296000", "141216.296000", "141216.296000", "141216.312000", "141216.312000", "141236.250000", "141236.250000", "141236.250000", "141236.250000", "141236.265000", "141236.265000", "141236.265000", "141236.265000", "141236.281000", "141236.281000", "141236.281000", "141236.281000", "141236.281000", "141236.281000", "141236.296000", "141236.296000", "141236.296000", "141236.296000", "141236.296000", "141236.296000", "141236.296000", "141236.312000", "141236.312000", "141236.312000", "141236.312000", "141236.312000", "141256.250000", "141256.250000", "141256.250000", "141256.250000", "141256.265000", "141256.265000", "141256.265000", "141256.265000", "141256.265000", "141256.265000", "141256.265000", "141256.281000", "141256.281000", "141256.281000", "141256.281000", "141256.281000", "141256.281000", "141256.296000", "141256.296000", "141256.296000", "141256.296000", "141256.296000", "141256.296000", "141256.296000", "141256.312000", "141316.250000", "141316.250000", "141316.250000", "141316.250000", "141316.265000", "141316.265000", "141316.265000", "141316.265000", "141316.265000", "141316.265000", "141316.265000", "141316.281000", "141316.281000", "141316.281000", "141316.281000", "141316.281000", "141316.281000", "141316.281000", "141316.296000", "141316.296000", "141316.296000", "141316.296000", "141316.296000", "141316.296000", "141316.296000", "141316.312000", "141336.250000", "141336.250000", "141336.250000", "141336.250000", "141336.265000", "141336.265000", "141336.265000", "141336.265000", "141336.265000", "141336.265000", "141336.265000", "141336.281000", "141336.281000", "141336.281000", "141336.281000", "141336.281000", "141336.281000", "141336.296000", "141336.296000", "141336.296000", "141336.296000", "141336.296000", "141336.296000", "141336.296000", "141336.312000", "141339.093000", "141339.093000", "141339.093000", "141339.093000"],
