{
  "AcquisitionMatrixPE": 104,
  "AcquisitionNumber": 1,
  "AcquisitionTime": "13:39:28.725000",
  "BandwidthPerPixelPhaseEncode": 13.935,
  "BaseResolution": 104,
  "CoilString": "C:HEA;HEP",
  "ConversionSoftware": "dcm2niix",
  "ConversionSoftwareVersion": "v1.0.20210317",
  "DerivedVendorReportedEchoSpacing": 0.000690017,
  "DeviceSerialNumber": "35450",
  "DwellTime": 2.5e-06,
  "EchoTime": 0.0348,
  "EffectiveEchoSpacing": 0.000690017,
  "FlipAngle": 55,
  "ImageComments": "Unaliased MB8/PE3 (remote)",
  "ImageOrientationPatientDICOM": [0.999973, 0.00206734, 0.00706971, -1.31204e-08, 0.959805, -0.280667],
  "ImageType": [
    "ORIGINAL",
    "PRIMARY",
    "M",
    "MB",
    "ND",
    "MOSAIC"
],
  "ImagingFrequency": 123.235,
  "InPlanePhaseEncodingDirectionDICOM": "COL",
  "InstitutionAddress": "Univeristy Ave. 197,Newark,North East,US,07102-1814",
  "InstitutionName": "RUBIC",
  "InstitutionalDepartmentName": "Department",
  "MRAcquisitionType": "2D",
  "MagneticFieldStrength": 3,
  "Manufacturer": "Siemens",
  "ManufacturersModelName": "TrioTim",
  "Modality": "MR",
  "MultibandAccelerationFactor": 8,
  "PartialFourier": 0.875,
  "PatientPosition": "HFS",
  "PercentPhaseFOV": 100,
  "PercentSampling": 100,
  "PhaseEncodingDirection": "j-",
  "PhaseEncodingSteps": 91,
  "PhaseResolution": 1,
  "PixelBandwidth": 1923,
  "ProcedureStepDescription": "Cole^Michael",
  "ProtocolName": "cmrr_mbep2d_bold_2mm_MB8_Task_8x",
  "PulseSequenceDetails": "%CustomerSeq%\\cmrr_mbep2d_bold",
  "ReceiveCoilName": "32Ch_Head",
  "ReconMatrixPE": 104,
  "RepetitionTime": 0.785,
  "SAR": 0.143298,
  "ScanOptions": "PFP\\FS",
  "ScanningSequence": "EP",
  "SequenceName": "epfid2d1_104",
  "SequenceVariant": "SK\\SS",
  "SeriesDescription": "cmrr_mbep2d_bold_2mm_MB8_Task_8x",
  "SeriesNumber": 13,
  "ShimSetting": [2106, -378, -7445, 330, 165, -610, -48, -61],
  "SliceThickness": 2,
  "SliceTiming": [0, 0.4375, 0.0875, 0.525, 0.175, 0.6125, 0.2625, 0.7, 0.35, 0, 0.4375, 0.0875, 0.525, 0.175, 0.6125, 0.2625, 0.7, 0.35, 0, 0.4375, 0.0875, 0.525, 0.175, 0.6125, 0.2625, 0.7, 0.35, 0, 0.4375, 0.0875, 0.525, 0.175, 0.6125, 0.2625, 0.7, 0.35, 0, 0.4375, 0.0875, 0.525, 0.175, 0.6125, 0.2625, 0.7, 0.35, 0, 0.4375, 0.0875, 0.525, 0.175, 0.6125, 0.2625, 0.7, 0.35, 0, 0.4375, 0.0875, 0.525, 0.175, 0.6125, 0.2625, 0.7, 0.35, 0, 0.4375, 0.0875, 0.525, 0.175, 0.6125, 0.2625, 0.7, 0.35],
  "SoftwareVersions": "syngo MR B19",
  "SpacingBetweenSlices": 2,
  "StationName": "MRC35450",
  "TaskName": "cpro",
  "TotalReadoutTime": 0.0710717,
  "TxRefAmp": 327.818,
  "dcmmeta_affine": [
    [-1.9999457597732544, -2.6240769557261956e-08, 0.01473156176507473, 104.90180206298828],
    [-0.004134681541472673, 1.9196107387542725, -0.5613178610801697, -66.14610290527344],
    [0.014139424078166485, 0.5613330602645874, 1.9195586442947388, -117.4531478881836],
    [0.0, 0.0, 0.0, 1.0]
],
  "dcmmeta_reorient_transform": [
    [0.0, -1.0, 0.0, 103.0],
    [1.0, 0.0, 0.0, 0.0],
    [0.0, 0.0, 1.0, 0.0],
    [0.0, 0.0, 0.0, 1.0]
],
  "dcmmeta_shape": [104, 104, 72, 581],
  "dcmmeta_slice_dim": 2,
  "dcmmeta_version": 0.6,
  "global": {
    "const": {
      "AcquisitionMatrix": [104, 0, 0, 104],
      "AngioFlag": "N",
      "BitsAllocated": 16,
      "BitsStored": 12,
      "Columns": 936,
      "EchoNumbers": 1,
      "EchoTime": 34.8,
      "EchoTrainLength": 1,
      "FlipAngle": 55.0,
      "HighBit": 11,
      "ImageOrientationPatient": [0.99997287226744, 0.00206734080563, 0.00706971224356, -1.3120385e-08, 0.95980534314461, -0.280666533935],
      "ImagePositionPatient": [-936.87921996812, -931.85186797455, 167.99671268859],
      "ImageType": [
        "ORIGINAL",
        "PRIMARY",
        "M",
        "MB",
        "ND",
        "MOSAIC"
],
      "ImagedNucleus": "1H",
      "ImagingFrequency": 123.23452,
      "InPlanePhaseEncodingDirection": "COL",
      "MRAcquisitionType": "2D",
      "MagneticFieldStrength": 3.0,
      "Manufacturer": "SIEMENS",
      "ManufacturerModelName": "TrioTim",
      "Modality": "MR",
      "NumberOfAverages": 1.0,
      "NumberOfPhaseEncodingSteps": 91,
      "PercentPhaseFieldOfView": 100.0,
      "PercentSampling": 100.0,
      "PerformedProcedureStepStartTime": "123910.390000",
      "PhotometricInterpretation": "MONOCHROME2",
      "PixelBandwidth": 1923.0,
      "PixelRepresentation": 0,
      "PixelSpacing": [2.0, 2.0],
      "ProtocolName": "cmrr_mbep2d_bold_2mm_MB8_Task_8x",
      "RepetitionTime": 785.0,
      "Rows": 936,
      "SAR": 0.14329776074628,
      "SamplesPerPixel": 1,
      "ScanOptions": [
        "PFP",
        "FS"
],
      "ScanningSequence": "EP",
      "SequenceName": "epfid2d1_104",
      "SequenceVariant": [
        "SK",
        "SS"
],
      "SeriesDescription": "cmrr_mbep2d_bold_2mm_MB8_Task_8x",
      "SeriesNumber": 13,
      "SeriesTime": "133936.265000",
      "SliceLocation": -93.391923451487,
      "SliceThickness": 2.0,
      "SmallestImagePixelValue": 0,
      "SoftwareVersions": "syngo MR B19",
      "SpacingBetweenSlices": 1.9999999977474,
      "SpecificCharacterSet": "ISO_IR 100",
      "StudyID": "1",
      "StudyTime": "123910.359000",
      "TransmitCoilName": "Body",
      "VariableFlipAngleFlag": "N",
      "WindowCenterWidthExplanation": "Algo1",
      "dBdt": 0.0},
    "slices": {}
  },
  "time": {
    "samples": {
      "AcquisitionNumber": [1, 2, 3, 4, 5, 6, 7, 8, 9, 10, 11, 12, 13, 14, 15, 16, 17, 18, 19, 20, 21, 22, 23, 24, 25, 26, 27, 28, 29, 30, 31, 32, 33, 34, 35, 36, 37, 38, 39, 40, 41, 42, 43, 44, 45, 46, 47, 48, 49, 50, 51, 52, 53, 54, 55, 56, 57, 58, 59, 60, 61, 62, 63, 64, 65, 66, 67, 68, 69, 70, 71, 72, 73, 74, 75, 76, 77, 78, 79, 80, 81, 82, 83, 84, 85, 86, 87, 88, 89, 90, 91, 92, 93, 94, 95, 96, 97, 98, 99, 100, 101, 102, 103, 104, 105, 106, 107, 108, 109, 110, 111, 112, 113, 114, 115, 116, 117, 118, 119, 120, 121, 122, 123, 124, 125, 126, 127, 128, 129, 130, 131, 132, 133, 134, 135, 136, 137, 138, 139, 140, 141, 142, 143, 144, 145, 146, 147, 148, 149, 150, 151, 152, 153, 154, 155, 156, 157, 158, 159, 160, 161, 162, 163, 164, 165, 166, 167, 168, 169, 170, 171, 172, 173, 174, 175, 176, 177, 178, 179, 180, 181, 182, 183, 184, 185, 186, 187, 188, 189, 190, 191, 192, 193, 194, 195, 196, 197, 198, 199, 200, 201, 202, 203, 204, 205, 206, 207, 208, 209, 210, 211, 212, 213, 214, 215, 216, 217, 218, 219, 220, 221, 222, 223, 224, 225, 226, 227, 228, 229, 230, 231, 232, 233, 234, 235, 236, 237, 238, 239, 240, 241, 242, 243, 244, 245, 246, 247, 248, 249, 250, 251, 252, 253, 254, 255, 256, 257, 258, 259, 260, 261, 262, 263, 264, 265, 266, 267, 268, 269, 270, 271, 272, 273, 274, 275, 276, 277, 278, 279, 280, 281, 282, 283, 284, 285, 286, 287, 288, 289, 290, 291, 292, 293, 294, 295, 296, 297, 298, 299, 300, 301, 302, 303, 304, 305, 306, 307, 308, 309, 310, 311, 312, 313, 314, 315, 316, 317, 318, 319, 320, 321, 322, 323, 324, 325, 326, 327, 328, 329, 330, 331, 332, 333, 334, 335, 336, 337, 338, 339, 340, 341, 342, 343, 344, 345, 346, 347, 348, 349, 350, 351, 352, 353, 354, 355, 356, 357, 358, 359, 360, 361, 362, 363, 364, 365, 366, 367, 368, 369, 370, 371, 372, 373, 374, 375, 376, 377, 378, 379, 380, 381, 382, 383, 384, 385, 386, 387, 388, 389, 390, 391, 392, 393, 394, 395, 396, 397, 398, 399, 400, 401, 402, 403, 404, 405, 406, 407, 408, 409, 410, 411, 412, 413, 414, 415, 416, 417, 418, 419, 420, 421, 422, 423, 424, 425, 426, 427, 428, 429, 430, 431, 432, 433, 434, 435, 436, 437, 438, 439, 440, 441, 442, 443, 444, 445, 446, 447, 448, 449, 450, 451, 452, 453, 454, 455, 456, 457, 458, 459, 460, 461, 462, 463, 464, 465, 466, 467, 468, 469, 470, 471, 472, 473, 474, 475, 476, 477, 478, 479, 480, 481, 482, 483, 484, 485, 486, 487, 488, 489, 490, 491, 492, 493, 494, 495, 496, 497, 498, 499, 500, 501, 502, 503, 504, 505, 506, 507, 508, 509, 510, 511, 512, 513, 514, 515, 516, 517, 518, 519, 520, 521, 522, 523, 524, 525, 526, 527, 528, 529, 530, 531, 532, 533, 534, 535, 536, 537, 538, 539, 540, 541, 542, 543, 544, 545, 546, 547, 548, 549, 550, 551, 552, 553, 554, 555, 556, 557, 558, 559, 560, 561, 562, 563, 564, 565, 566, 567, 568, 569, 570, 571, 572, 573, 574, 575, 576, 577, 578, 579, 580, 581],
      "AcquisitionTime": ["133928.725000", "133929.515000", "133930.302500", "133931.090000", "133931.877500", "133932.667500", "133933.455000", "133934.242500", "133935.030000", "133935.820000", "133936.607500", "133937.395000", "133938.185000", "133938.972500", "133939.760000", "133940.547500", "133941.337500", "133942.125000", "133942.912500", "133943.700000", "133944.490000", "133945.277500", "133946.065000", "133946.852500", "133947.642500", "133948.430000", "133949.217500", "133950.005000", "133950.795000", "133951.582500", "133952.370000", "133953.157500", "133953.947500", "133954.735000", "133955.522500", "133956.312500", "133957.100000", "133957.887500", "133958.675000", "133959.465000", "134000.252500", "134001.040000", "134001.827500", "134002.617500", "134003.405000", "134004.192500", "134004.980000", "134005.770000", "134006.557500", "134007.345000", "134008.132500", "134008.922500", "134009.710000", "134010.497500", "134011.285000", "134012.075000", "134012.862500", "134013.650000", "134014.440000", "134015.227500", "134016.015000", "134016.802500", "134017.592500", "134018.380000", "134019.167500", "134019.955000", "134020.745000", "134021.532500", "134022.320000", "134023.107500", "134023.897500", "134024.685000", "134025.472500", "134026.260000", "134027.050000", "134027.837500", "134028.625000", "134029.412500", "134030.202500", "134030.990000", "134031.777500", "134032.567500", "134033.355000", "134034.142500", "134034.930000", "134035.720000", "134036.507500", "134037.295000", "134038.082500", "134038.872500", "134039.660000", "134040.447500", "134041.235000", "134042.025000", "134042.812500", "134043.600000", "134044.387500", "134045.177500", "134045.965000", "134046.752500", "134047.540000", "134048.330000", "134049.117500", "134049.905000", "134050.695000", "134051.482500", "134052.270000", "134053.057500", "134053.847500", "134054.635000", "134055.422500", "134056.210000", "134057.000000", "134057.787500", "134058.575000", "134059.362500", "134100.152500", "134100.940000", "134101.727500", "134102.515000", "134103.305000", "134104.092500", "134104.880000", "134105.667500", "134106.457500", "134107.245000", "134108.032500", "134108.822500", "134109.610000", "134110.397500", "134111.185000", "134111.975000", "134112.762500", "134113.550000", "134114.337500", "134115.127500", "134115.915000", "134116.702500", "134117.490000", "134118.280000", "134119.067500", "134119.855000", "134120.642500", "134121.432500", "134122.220000", "134123.007500", "134123.795000", "134124.585000", "134125.372500", "134126.160000", "134126.950000", "134127.737500", "134128.525000", "134129.312500", "134130.102500", "134130.890000", "134131.677500", "134132.465000", "134133.255000", "134134.042500", "134134.830000", "134135.617500", "134136.407500", "134137.195000", "134137.982500", "134138.770000", "134139.560000", "134140.347500", "134141.135000", "134141.922500", "134142.712500", "134143.500000", "134144.287500", "134145.077500", "134145.865000", "134146.652500", "134147.440000", "134148.230000", "134149.017500", "134149.805000", "134150.592500", "134151.382500", "134152.170000", "134152.957500", "134153.745000", "134154.535000", "134155.322500", "134156.110000", "134156.897500", "134157.687500", "134158.475000", "134159.262500", "134200.052500", "134200.840000", "134201.627500", "134202.415000", "134203.205000", "134203.992500", "134204.780000", "134205.567500", "134206.357500", "134207.145000", "134207.932500", "134208.720000", "134209.510000", "134210.297500", "134211.085000", "134211.872500", "134212.662500", "134213.450000", "134214.237500", "134215.025000", "134215.815000", "134216.602500", "134217.390000", "134218.180000", "134218.967500", "134219.755000", "134220.542500", "134221.332500", "134222.120000", "134222.907500", "134223.695000", "134224.485000", "134225.272500", "134226.060000", "134226.847500", "134227.637500", "134228.425000", "134229.212500", "134230.000000", "134230.790000", "134231.577500", "134232.365000", "134233.152500", "134233.942500", "134234.730000", "134235.517500", "134236.307500", "134237.095000", "134237.882500", "134238.670000", "134239.460000", "134240.247500", "134241.035000", "134241.822500", "134242.612500", "134243.400000", "134244.187500", "134244.975000", "134245.765000", "134246.552500", "134247.340000", "134248.127500", "134248.917500", "134249.705000", "134250.492500", "134251.280000", "134252.070000", "134252.857500", "134253.645000", "134254.435000", "134255.222500", "134256.010000", "134256.797500", "134257.587500", "134258.375000", "134259.162500", "134259.950000", "134300.740000", "134301.527500", "134302.315000", "134303.102500", "134303.892500", "134304.680000", "134305.467500", "134306.255000", "134307.045000", "134307.832500", "134308.620000", "134309.407500", "134310.197500", "134310.985000", "134311.772500", "134312.562500", "134313.350000", "134314.137500", "134314.925000", "134315.715000", "134316.502500", "134317.290000", "134318.077500", "134318.867500", "134319.655000", "134320.442500", "134321.230000", "134322.020000", "134322.807500", "134323.595000", "134324.382500", "134325.172500", "134325.960000", "134326.747500", "134327.535000", "134328.325000", "134329.112500", "134329.900000", "134330.690000", "134331.477500", "134332.265000", "134333.052500", "134333.842500", "134334.630000", "134335.417500", "134336.205000", "134336.995000", "134337.782500", "134338.570000", "134339.357500", "134340.147500", "134340.935000", "134341.722500", "134342.510000", "134343.300000", "134344.087500", "134344.875000", "134345.662500", "134346.452500", "134347.240000", "134348.027500", "134348.817500", "134349.605000", "134350.392500", "134351.180000", "134351.970000", "134352.757500", "134353.545000", "134354.332500", "134355.122500", "134355.910000", "134356.697500", "134357.485000", "134358.275000", "134359.062500", "134359.850000", "134400.637500", "134401.427500", "134402.215000", "134403.002500", "134403.790000", "134404.580000", "134405.367500", "134406.155000", "134406.945000", "134407.732500", "134408.520000", "134409.307500", "134410.097500", "134410.885000", "134411.672500", "134412.460000", "134413.250000", "134414.037500", "134414.825000", "134415.612500", "134416.402500", "134417.190000", "134417.977500", "134418.765000", "134419.555000", "134420.342500", "134421.130000", "134421.917500", "134422.707500", "134423.495000", "134424.282500", "134425.072500", "134425.860000", "134426.647500", "134427.435000", "134428.225000", "134429.012500", "134429.800000", "134430.587500", "134431.377500", "134432.165000", "134432.952500", "134433.740000", "134434.530000", "134435.317500", "134436.105000", "134436.892500", "134437.682500", "134438.470000", "134439.257500", "134440.045000", "134440.835000", "134441.622500", "134442.410000", "134443.200000", "134443.987500", "134444.775000", "134445.562500", "134446.352500", "134447.140000", "134447.927500", "134448.715000", "134449.505000", "134450.292500", "134451.080000", "134451.867500", "134452.657500", "134453.445000", "134454.232500", "134455.020000", "134455.810000", "134456.597500", "134457.385000", "134458.172500", "134458.962500", "134459.750000", "134500.537500", "134501.327500", "134502.115000", "134502.902500", "134503.690000", "134504.480000", "134505.267500", "134506.055000", "134506.842500", "134507.632500", "134508.420000", "134509.207500", "134509.995000", "134510.785000", "134511.572500", "134512.360000", "134513.147500", "134513.937500", "134514.725000", "134515.512500", "134516.302500", "134517.090000", "134517.877500", "134518.665000", "134519.455000", "134520.242500", "134521.030000", "134521.817500", "134522.607500", "134523.395000", "134524.182500", "134524.970000", "134525.760000", "134526.547500", "134527.335000", "134528.122500", "134528.912500", "134529.700000", "134530.487500", "134531.275000", "134532.065000", "134532.852500", "134533.640000", "134534.430000", "134535.217500", "134536.005000", "134536.792500", "134537.582500", "134538.370000", "134539.157500", "134539.945000", "134540.735000", "134541.522500", "134542.310000", "134543.097500", "134543.887500", "134544.675000", "134545.462500", "134546.250000", "134547.040000", "134547.827500", "134548.615000", "134549.402500", "134550.192500", "134550.980000", "134551.767500", "134552.557500", "134553.345000", "134554.132500", "134554.920000", "134555.710000", "134556.497500", "134557.285000", "134558.072500", "134558.862500", "134559.650000", "134600.437500", "134601.225000", "134602.015000", "134602.802500", "134603.590000", "134604.377500", "134605.167500", "134605.955000", "134606.742500", "134607.530000", "134608.320000", "134609.107500", "134609.895000", "134610.685000", "134611.472500", "134612.260000", "134613.047500", "134613.837500", "134614.625000", "134615.412500", "134616.200000", "134616.990000", "134617.777500", "134618.565000", "134619.352500", "134620.142500", "134620.930000", "134621.717500", "134622.505000", "134623.295000", "134624.082500", "134624.870000", "134625.657500", "134626.447500", "134627.235000", "134628.022500", "134628.812500", "134629.600000", "134630.387500", "134631.175000", "134631.965000", "134632.752500", "134633.540000", "134634.327500", "134635.117500", "134635.905000", "134636.692500", "134637.480000", "134638.270000", "134639.057500", "134639.845000", "134640.632500", "134641.422500", "134642.210000", "134642.997500", "134643.785000", "134644.575000", "134645.362500", "134646.150000", "134646.940000", "134647.727500", "134648.515000", "134649.302500", "134650.092500", "134650.880000", "134651.667500", "134652.455000", "134653.245000", "134654.032500", "134654.820000", "134655.607500", "134656.397500", "134657.185000", "134657.972500", "134658.760000", "134659.550000", "134700.337500", "134701.125000", "134701.912500", "134702.702500", "134703.490000", "134704.277500", "134705.067500", "134705.855000"],
      "ContentTime": ["133936.281000", "133936.281000", "133936.281000", "133936.281000", "133936.281000", "133936.296000", "133936.296000", "133956.250000", "133956.250000", "133956.250000", "133956.250000", "133956.265000", "133956.265000", "133956.265000", "133956.265000", "133956.265000", "133956.265000", "133956.265000", "133956.281000", "133956.281000", "133956.281000", "133956.281000", "133956.281000", "133956.281000", "133956.281000", "133956.296000", "133956.296000", "133956.296000", "133956.296000", "133956.296000", "133956.296000", "133956.296000", "133956.312000", "133956.312000", "134016.250000", "134016.250000", "134016.250000", "134016.250000", "134016.265000", "134016.265000", "134016.265000", "134016.265000", "134016.265000", "134016.265000", "134016.265000", "134016.281000", "134016.281000", "134016.281000", "134016.281000", "134016.281000", "134016.281000", "134016.281000", "134016.296000", "134016.296000", "134016.296000", "134016.296000", "134016.296000", "134016.296000", "134016.312000", "134036.250000", "134036.250000", "134036.250000", "134036.250000", "134036.265000", "134036.265000", "134036.265000", "134036.265000", "134036.265000", "134036.265000", "134036.265000", "134036.281000", "134036.281000", "134036.281000", "134036.281000", "134036.281000", "134036.281000", "134036.296000", "134036.296000", "134036.296000", "134036.296000", "134036.296000", "134036.296000", "134036.296000", "134036.312000", "134036.312000", "134056.250000", "134056.250000", "134056.250000", "134056.250000", "134056.265000", "134056.265000", "134056.265000", "134056.265000", "134056.265000", "134056.265000", "134056.265000", "134056.281000", "134056.281000", "134056.281000", "134056.281000", "134056.281000", "134056.281000", "134056.281000", "134056.296000", "134056.296000", "134056.296000", "134056.296000", "134056.296000", "134056.296000", "134056.312000", "134116.250000", "134116.250000", "134116.250000", "134116.250000", "134116.265000", "134116.265000", "134116.265000", "134116.265000", "134116.265000", "134116.265000", "134116.265000", "134116.281000", "134116.281000", "134116.281000", "134116.281000", "134116.281000", "134116.281000", "134116.281000", "134116.296000", "134116.296000", "134116.296000", "134116.296000", "134116.296000", "134116.296000", "134116.296000", "134116.312000", "134136.250000", "134136.250000", "134136.250000", "134136.250000", "134136.265000", "134136.265000", "134136.265000", "134136.265000", "134136.265000", "134136.265000", "134136.265000", "134136.281000", "134136.281000", "134136.281000", "134136.281000", "134136.281000", "134136.281000", "134136.281000", "134136.296000", "134136.296000", "134136.296000", "134136.296000", "134136.296000", "134136.296000", "134136.296000", "134156.250000", "134156.250000", "134156.250000", "134156.250000", "134156.265000", "134156.265000", "134156.265000", "134156.265000", "134156.265000", "134156.265000", "134156.265000", "134156.281000", "134156.281000", "134156.281000", "134156.281000", "134156.281000", "134156.281000", "134156.281000", "134156.296000", "134156.296000", "134156.296000", "134156.296000", "134156.296000", "134156.296000", "134156.296000", "134156.312000", "134216.250000", "134216.250000", "134216.250000", "134216.250000", "134216.265000", "134216.265000", "134216.265000", "134216.265000", "134216.281000", "134216.281000", "134216.281000", "134216.281000", "134216.281000", "134216.281000", "134216.281000", "134216.296000", "134216.296000", "134216.296000", "134216.296000", "134216.296000", "134216.296000", "134216.312000", "134216.312000", "134216.312000", "134216.312000", "134236.250000", "134236.250000", "134236.250000", "134236.250000", "134236.265000", "134236.265000", "134236.265000", "134236.265000", "134236.265000", "134236.265000", "134236.265000", "134236.281000", "134236.281000", "134236.281000", "134236.296000", "134236.296000", "134236.296000", "134236.296000", "134236.296000", "134236.296000", "134236.312000", "134236.312000", "134236.312000", "134236.312000", "134236.312000", "134236.312000", "134256.250000", "134256.250000", "134256.250000", "134256.250000", "134256.265000", "134256.265000", "134256.265000", "134256.265000", "134256.265000", "134256.265000", "134256.265000", "134256.281000", "134256.281000", "134256.281000", "134256.281000", "134256.281000", "134256.281000", "134256.281000", "134256.296000", "134256.296000", "134256.296000", "134256.296000", "134256.296000", "134256.312000", "134256.312000", "134316.250000", "134316.250000", "134316.250000", "134316.250000", "134316.265000", "134316.265000", "134316.265000", "134316.265000", "134316.265000", "134316.265000", "134316.265000", "134316.281000", "134316.281000", "134316.281000", "134316.281000", "134316.281000", "134316.281000", "134316.281000", "134316.296000", "134316.296000", "134316.296000", "134316.296000", "134316.296000", "134316.296000", "134316.296000", "134316.312000", "134336.250000", "134336.250000", "134336.250000", "134336.250000", "134336.265000", "134336.265000", "134336.265000", "134336.265000", "134336.265000", "134336.265000", "134336.265000", "134336.281000", "134336.281000", "134336.281000", "134336.281000", "134336.281000", "134336.296000", "134336.296000", "134336.296000", "134336.296000", "134336.296000", "134336.296000", "134336.296000", "134336.312000", "134336.312000", "134356.250000", "134356.250000", "134356.265000", "134356.265000", "134356.281000", "134356.281000", "134356.281000", "134356.281000", "134356.281000", "134356.281000", "134356.281000", "134356.296000", "134356.296000", "134356.296000", "134356.296000", "134356.296000", "134356.296000", "134356.296000", "134356.312000", "134356.312000", "134356.312000", "134356.312000", "134356.312000", "134356.312000", "134356.312000", "134416.250000", "134416.250000", "134416.250000", "134416.250000", "134416.265000", "134416.265000", "134416.265000", "134416.265000", "134416.265000", "134416.265000", "134416.281000", "134416.281000", "134416.281000", "134416.281000", "134416.281000", "134416.296000", "134416.296000", "134416.296000", "134416.296000", "134416.296000", "134416.296000", "134416.296000", "134416.312000", "134416.312000", "134416.312000", "134416.312000", "134436.250000", "134436.250000", "134436.250000", "134436.250000", "134436.265000", "134436.265000", "134436.265000", "134436.265000", "134436.265000", "134436.265000", "134436.265000", "134436.281000", "134436.281000", "134436.281000", "134436.281000", "134436.281000", "134436.281000", "134436.296000", "134436.296000", "134436.296000", "134436.296000", "134436.296000", "134436.296000", "134436.312000", "134436.312000", "134456.250000", "134456.250000", "134456.250000", "134456.250000", "134456.265000", "134456.265000", "134456.265000", "134456.265000", "134456.265000", "134456.265000", "134456.265000", "134456.281000", "134456.281000", "134456.281000", "134456.281000", "134456.281000", "134456.281000", "134456.281000", "134456.296000", "134456.296000", "134456.296000", "134456.296000", "134456.296000", "134456.296000", "134456.296000", "134456.312000", "134516.250000", "134516.250000", "134516.250000", "134516.250000", "134516.265000", "134516.265000", "134516.265000", "134516.265000", "134516.265000", "134516.265000", "134516.265000", "134516.281000", "134516.281000", "134516.281000", "134516.281000", "134516.281000", "134516.281000", "134516.281000", "134516.296000", "134516.296000", "134516.296000", "134516.296000", "134516.312000", "134516.312000", "134516.312000", "134536.250000", "134536.250000", "134536.250000", "134536.265000", "134536.265000", "134536.265000", "134536.265000", "134536.265000", "134536.265000", "134536.265000", "134536.281000", "134536.281000", "134536.281000", "134536.281000", "134536.281000", "134536.281000", "134536.281000", "134536.296000", "134536.296000", "134536.296000", "134536.296000", "134536.296000", "134536.296000", "134536.312000", "134536.312000", "134536.312000", "134556.250000", "134556.250000", "134556.250000", "134556.250000", "134556.265000", "134556.265000", "134556.265000", "134556.265000", "134556.265000", "134556.265000", "134556.265000", "134556.281000", "134556.281000", "134556.281000", "134556.281000", "134556.281000", "134556.281000", "134556.281000", "134556.296000", "134556.296000", "134556.296000", "134556.296000", "134556.296000", "134556.296000", "134556.296000", "134616.250000", "134616.250000", "134616.250000", "134616.250000", "134616.265000", "134616.265000", "134616.265000", "134616.265000", "134616.265000", "134616.265000", "134616.265000", "134616.281000", "134616.281000", "134616.281000", "134616.281000", "134616.281000", "134616.281000", "134616.281000", "134616.296000", "134616.296000", "134616.296000", "134616.296000", "134616.296000", "134616.296000", "134616.296000", "134616.312000", "134636.250000", "134636.250000", "134636.250000", "134636.250000", "134636.265000", "134636.265000", "134636.265000", "134636.265000", "134636.265000", "134636.265000", "134636.265000", "134636.281000", "134636.281000", "134636.281000", "134636.281000", "134636.281000", "134636.281000", "134636.281000", "134636.296000", "134636.296000", "134636.296000", "134636.296000", "134636.296000", "134636.296000", "134636.312000", "134656.250000", "134656.250000", "134656.250000", "134656.250000", "134656.265000", "134656.265000", "134656.265000", "134656.265000", "134656.265000", "134656.265000", "134656.281000", "134656.281000", "134656.281000", "134656.281000", "134656.281000", "134656.281000", "134656.281000", "134656.296000", "134656.296000", "134656.296000", "134656.296000", "134656.296000", "134656.296000", "134656.312000", "134656.312000", "134656.312000", "134705.515000", "134705.515000", "134705.515000", "134705.531000", "134705.531000", "134705.531000", "134705.531000", "134705.531000", "134705.531000", "134705.531000", "134705.546000", "134705.546000"],
