{
  "AcquisitionMatrixPE": 104,
  "AcquisitionNumber": 1,
  "AcquisitionTime": "14:31:21.692500",
  "BandwidthPerPixelPhaseEncode": 13.935,
  "BaseResolution": 104,
  "CoilString": "C:HEA;HEP",
  "ConversionSoftware": "dcm2niix",
  "ConversionSoftwareVersion": "v1.0.20210317",
  "DerivedVendorReportedEchoSpacing": 0.000690017,
  "DeviceSerialNumber": "35450",
  "DwellTime": 2.5e-06,
  "EchoTime": 0.0348,
  "EffectiveEchoSpacing": 0.000690017,
  "FlipAngle": 55,
  "ImageComments": "Unaliased MB8/PE3 (remote)",
  "ImageOrientationPatientDICOM": [0.999973, 0.00206734, 0.00706971, -1.31204e-08, 0.959805, -0.280667],
  "ImageType": [
    "ORIGINAL",
    "PRIMARY",
    "M",
    "MB",
    "ND",
    "MOSAIC"
],
  "ImagingFrequency": 123.235,
  "InPlanePhaseEncodingDirectionDICOM": "COL",
  "InstitutionAddress": "Univeristy Ave. 197,Newark,North East,US,07102-1814",
  "InstitutionName": "RUBIC",
  "InstitutionalDepartmentName": "Department",
  "MRAcquisitionType": "2D",
  "MagneticFieldStrength": 3,
  "Manufacturer": "Siemens",
  "ManufacturersModelName": "TrioTim",
  "Modality": "MR",
  "MultibandAccelerationFactor": 8,
  "PartialFourier": 0.875,
  "PatientPosition": "HFS",
  "PercentPhaseFOV": 100,
  "PercentSampling": 100,
  "PhaseEncodingDirection": "j-",
  "PhaseEncodingSteps": 91,
  "PhaseResolution": 1,
  "PixelBandwidth": 1923,
  "ProcedureStepDescription": "Cole^Michael",
  "ProtocolName": "cmrr_mbep2d_bold_2mm_MB8_Task_8x",
  "PulseSequenceDetails": "%CustomerSeq%\\cmrr_mbep2d_bold",
  "ReceiveCoilName": "32Ch_Head",
  "ReconMatrixPE": 104,
  "RepetitionTime": 0.785,
  "SAR": 0.131075,
  "ScanOptions": "PFP\\FS",
  "ScanningSequence": "EP",
  "SequenceName": "epfid2d1_104",
  "SequenceVariant": "SK\\SS",
  "SeriesDescription": "cmrr_mbep2d_bold_2mm_MB8_Task_8x",
  "SeriesNumber": 25,
  "ShimSetting": [2106, -378, -7445, 330, 165, -610, -48, -61],
  "SliceThickness": 2,
  "SliceTiming": [0, 0.4375, 0.0875, 0.525, 0.175, 0.6125, 0.2625, 0.7, 0.35, 0, 0.4375, 0.0875, 0.525, 0.175, 0.6125, 0.2625, 0.7, 0.35, 0, 0.4375, 0.0875, 0.525, 0.175, 0.6125, 0.2625, 0.7, 0.35, 0, 0.4375, 0.0875, 0.525, 0.175, 0.6125, 0.2625, 0.7, 0.35, 0, 0.4375, 0.0875, 0.525, 0.175, 0.6125, 0.2625, 0.7, 0.35, 0, 0.4375, 0.0875, 0.525, 0.175, 0.6125, 0.2625, 0.7, 0.35, 0, 0.4375, 0.0875, 0.525, 0.175, 0.6125, 0.2625, 0.7, 0.35, 0, 0.4375, 0.0875, 0.525, 0.175, 0.6125, 0.2625, 0.7, 0.35],
  "SoftwareVersions": "syngo MR B19",
  "SpacingBetweenSlices": 2,
  "StationName": "MRC35450",
  "TaskName": "cpro",
  "TotalReadoutTime": 0.0710717,
  "TxRefAmp": 327.818,
  "dcmmeta_affine": [
    [-1.9999457597732544, -2.6240769557261956e-08, 0.01473156176507473, 104.90180206298828],
    [-0.004134681541472673, 1.9196107387542725, -0.5613178610801697, -66.14610290527344],
    [0.014139424078166485, 0.5613330602645874, 1.9195586442947388, -117.4531478881836],
    [0.0, 0.0, 0.0, 1.0]
],
  "dcmmeta_reorient_transform": [
    [0.0, -1.0, 0.0, 103.0],
    [1.0, 0.0, 0.0, 0.0],
    [0.0, 0.0, 1.0, 0.0],
    [0.0, 0.0, 0.0, 1.0]
],
  "dcmmeta_shape": [104, 104, 72, 581],
  "dcmmeta_slice_dim": 2,
  "dcmmeta_version": 0.6,
  "global": {
    "const": {
      "AcquisitionMatrix": [104, 0, 0, 104],
      "AngioFlag": "N",
      "BitsAllocated": 16,
      "BitsStored": 12,
      "Columns": 936,
      "EchoNumbers": 1,
      "EchoTime": 34.8,
      "EchoTrainLength": 1,
      "FlipAngle": 55.0,
      "HighBit": 11,
      "ImageOrientationPatient": [0.99997287226744, 0.00206734080563, 0.00706971224356, -1.3120385e-08, 0.95980534314461, -0.280666533935],
      "ImagePositionPatient": [-936.87921996812, -931.85186797455, 167.99671268859],
      "ImageType": [
        "ORIGINAL",
        "PRIMARY",
        "M",
        "MB",
        "ND",
        "MOSAIC"
],
      "ImagedNucleus": "1H",
      "ImagingFrequency": 123.23452,
      "InPlanePhaseEncodingDirection": "COL",
      "MRAcquisitionType": "2D",
      "MagneticFieldStrength": 3.0,
      "Manufacturer": "SIEMENS",
      "ManufacturerModelName": "TrioTim",
      "Modality": "MR",
      "NumberOfAverages": 1.0,
      "NumberOfPhaseEncodingSteps": 91,
      "PercentPhaseFieldOfView": 100.0,
      "PercentSampling": 100.0,
      "PerformedProcedureStepStartTime": "123910.390000",
      "PhotometricInterpretation": "MONOCHROME2",
      "PixelBandwidth": 1923.0,
      "PixelRepresentation": 0,
      "PixelSpacing": [2.0, 2.0],
      "ProtocolName": "cmrr_mbep2d_bold_2mm_MB8_Task_8x",
      "RepetitionTime": 785.0,
      "Rows": 936,
      "SAR": 0.13107531822232,
      "SamplesPerPixel": 1,
      "ScanOptions": [
        "PFP",
        "FS"
],
      "ScanningSequence": "EP",
      "SequenceName": "epfid2d1_104",
      "SequenceVariant": [
        "SK",
        "SS"
],
      "SeriesDescription": "cmrr_mbep2d_bold_2mm_MB8_Task_8x",
      "SeriesNumber": 25,
      "SeriesTime": "143156.265000",
      "SliceLocation": -93.391923451487,
      "SliceThickness": 2.0,
      "SmallestImagePixelValue": 0,
      "SoftwareVersions": "syngo MR B19",
      "SpacingBetweenSlices": 1.9999999977474,
      "SpecificCharacterSet": "ISO_IR 100",
      "StudyID": "1",
      "StudyTime": "123910.359000",
      "TransmitCoilName": "Body",
      "VariableFlipAngleFlag": "N",
      "WindowCenterWidthExplanation": "Algo1",
      "dBdt": 0.0},
    "slices": {}
  },
  "time": {
    "samples": {
      "AcquisitionNumber": [1, 2, 3, 4, 5, 6, 7, 8, 9, 10, 11, 12, 13, 14, 15, 16, 17, 18, 19, 20, 21, 22, 23, 24, 25, 26, 27, 28, 29, 30, 31, 32, 33, 34, 35, 36, 37, 38, 39, 40, 41, 42, 43, 44, 45, 46, 47, 48, 49, 50, 51, 52, 53, 54, 55, 56, 57, 58, 59, 60, 61, 62, 63, 64, 65, 66, 67, 68, 69, 70, 71, 72, 73, 74, 75, 76, 77, 78, 79, 80, 81, 82, 83, 84, 85, 86, 87, 88, 89, 90, 91, 92, 93, 94, 95, 96, 97, 98, 99, 100, 101, 102, 103, 104, 105, 106, 107, 108, 109, 110, 111, 112, 113, 114, 115, 116, 117, 118, 119, 120, 121, 122, 123, 124, 125, 126, 127, 128, 129, 130, 131, 132, 133, 134, 135, 136, 137, 138, 139, 140, 141, 142, 143, 144, 145, 146, 147, 148, 149, 150, 151, 152, 153, 154, 155, 156, 157, 158, 159, 160, 161, 162, 163, 164, 165, 166, 167, 168, 169, 170, 171, 172, 173, 174, 175, 176, 177, 178, 179, 180, 181, 182, 183, 184, 185, 186, 187, 188, 189, 190, 191, 192, 193, 194, 195, 196, 197, 198, 199, 200, 201, 202, 203, 204, 205, 206, 207, 208, 209, 210, 211, 212, 213, 214, 215, 216, 217, 218, 219, 220, 221, 222, 223, 224, 225, 226, 227, 228, 229, 230, 231, 232, 233, 234, 235, 236, 237, 238, 239, 240, 241, 242, 243, 244, 245, 246, 247, 248, 249, 250, 251, 252, 253, 254, 255, 256, 257, 258, 259, 260, 261, 262, 263, 264, 265, 266, 267, 268, 269, 270, 271, 272, 273, 274, 275, 276, 277, 278, 279, 280, 281, 282, 283, 284, 285, 286, 287, 288, 289, 290, 291, 292, 293, 294, 295, 296, 297, 298, 299, 300, 301, 302, 303, 304, 305, 306, 307, 308, 309, 310, 311, 312, 313, 314, 315, 316, 317, 318, 319, 320, 321, 322, 323, 324, 325, 326, 327, 328, 329, 330, 331, 332, 333, 334, 335, 336, 337, 338, 339, 340, 341, 342, 343, 344, 345, 346, 347, 348, 349, 350, 351, 352, 353, 354, 355, 356, 357, 358, 359, 360, 361, 362, 363, 364, 365, 366, 367, 368, 369, 370, 371, 372, 373, 374, 375, 376, 377, 378, 379, 380, 381, 382, 383, 384, 385, 386, 387, 388, 389, 390, 391, 392, 393, 394, 395, 396, 397, 398, 399, 400, 401, 402, 403, 404, 405, 406, 407, 408, 409, 410, 411, 412, 413, 414, 415, 416, 417, 418, 419, 420, 421, 422, 423, 424, 425, 426, 427, 428, 429, 430, 431, 432, 433, 434, 435, 436, 437, 438, 439, 440, 441, 442, 443, 444, 445, 446, 447, 448, 449, 450, 451, 452, 453, 454, 455, 456, 457, 458, 459, 460, 461, 462, 463, 464, 465, 466, 467, 468, 469, 470, 471, 472, 473, 474, 475, 476, 477, 478, 479, 480, 481, 482, 483, 484, 485, 486, 487, 488, 489, 490, 491, 492, 493, 494, 495, 496, 497, 498, 499, 500, 501, 502, 503, 504, 505, 506, 507, 508, 509, 510, 511, 512, 513, 514, 515, 516, 517, 518, 519, 520, 521, 522, 523, 524, 525, 526, 527, 528, 529, 530, 531, 532, 533, 534, 535, 536, 537, 538, 539, 540, 541, 542, 543, 544, 545, 546, 547, 548, 549, 550, 551, 552, 553, 554, 555, 556, 557, 558, 559, 560, 561, 562, 563, 564, 565, 566, 567, 568, 569, 570, 571, 572, 573, 574, 575, 576, 577, 578, 579, 580, 581],
      "AcquisitionTime": ["143121.692500", "143122.480000", "143123.267500", "143124.057500", "143124.845000", "143125.632500", "143126.420000", "143127.210000", "143127.997500", "143128.785000", "143129.575000", "143130.362500", "143131.150000", "143131.937500", "143132.727500", "143133.515000", "143134.302500", "143135.090000", "143135.880000", "143136.667500", "143137.455000", "143138.242500", "143139.032500", "143139.820000", "143140.607500", "143141.395000", "143142.185000", "143142.972500", "143143.760000", "143144.547500", "143145.337500", "143146.125000", "143146.912500", "143147.702500", "143148.490000", "143149.277500", "143150.065000", "143150.855000", "143151.642500", "143152.430000", "143153.217500", "143154.007500", "143154.795000", "143155.582500", "143156.370000", "143157.160000", "143157.947500", "143158.735000", "143159.522500", "143200.312500", "143201.100000", "143201.887500", "143202.675000", "143203.465000", "143204.252500", "143205.040000", "143205.830000", "143206.617500", "143207.405000", "143208.192500", "143208.982500", "143209.770000", "143210.557500", "143211.345000", "143212.135000", "143212.922500", "143213.710000", "143214.497500", "143215.287500", "143216.075000", "143216.862500", "143217.650000", "143218.440000", "143219.227500", "143220.015000", "143220.802500", "143221.592500", "143222.380000", "143223.167500", "143223.957500", "143224.745000", "143225.532500", "143226.320000", "143227.110000", "143227.897500", "143228.685000", "143229.472500", "143230.262500", "143231.050000", "143231.837500", "143232.625000", "143233.415000", "143234.202500", "143234.990000", "143235.777500", "143236.567500", "143237.355000", "143238.142500", "143238.930000", "143239.720000", "143240.507500", "143241.295000", "143242.085000", "143242.872500", "143243.660000", "143244.447500", "143245.237500", "143246.025000", "143246.812500", "143247.600000", "143248.390000", "143249.177500", "143249.965000", "143250.752500", "143251.542500", "143252.330000", "143253.117500", "143253.905000", "143254.695000", "143255.482500", "143256.270000", "143257.057500", "143257.847500", "143258.635000", "143259.422500", "143300.212500", "143301.000000", "143301.787500", "143302.575000", "143303.365000", "143304.152500", "143304.940000", "143305.727500", "143306.517500", "143307.305000", "143308.092500", "143308.880000", "143309.670000", "143310.457500", "143311.245000", "143312.032500", "143312.822500", "143313.610000", "143314.397500", "143315.185000", "143315.975000", "143316.762500", "143317.550000", "143318.340000", "143319.127500", "143319.915000", "143320.702500", "143321.492500", "143322.280000", "143323.067500", "143323.855000", "143324.645000", "143325.432500", "143326.220000", "143327.007500", "143327.797500", "143328.585000", "143329.372500", "143330.160000", "143330.950000", "143331.737500", "143332.525000", "143333.312500", "143334.102500", "143334.890000", "143335.677500", "143336.467500", "143337.255000", "143338.042500", "143338.830000", "143339.620000", "143340.407500", "143341.195000", "143341.982500", "143342.772500", "143343.560000", "143344.347500", "143345.135000", "143345.925000", "143346.712500", "143347.500000", "143348.287500", "143349.077500", "143349.865000", "143350.652500", "143351.442500", "143352.230000", "143353.017500", "143353.805000", "143354.595000", "143355.382500", "143356.170000", "143356.957500", "143357.747500", "143358.535000", "143359.322500", "143400.110000", "143400.900000", "143401.687500", "143402.475000", "143403.262500", "143404.052500", "143404.840000", "143405.627500", "143406.415000", "143407.205000", "143407.992500", "143408.780000", "143409.570000", "143410.357500", "143411.145000", "143411.932500", "143412.722500", "143413.510000", "143414.297500", "143415.085000", "143415.875000", "143416.662500", "143417.450000", "143418.237500", "143419.027500", "143419.815000", "143420.602500", "143421.390000", "143422.180000", "143422.967500", "143423.755000", "143424.542500", "143425.332500", "143426.120000", "143426.907500", "143427.697500", "143428.485000", "143429.272500", "143430.060000", "143430.850000", "143431.637500", "143432.425000", "143433.212500", "143434.002500", "143434.790000", "143435.577500", "143436.365000", "143437.155000", "143437.942500", "143438.730000", "143439.517500", "143440.307500", "143441.095000", "143441.882500", "143442.670000", "143443.460000", "143444.247500", "143445.035000", "143445.825000", "143446.612500", "143447.400000", "143448.187500", "143448.977500", "143449.765000", "143450.552500", "143451.340000", "143452.130000", "143452.917500", "143453.705000", "143454.492500", "143455.282500", "143456.070000", "143456.857500", "143457.645000", "143458.435000", "143459.222500", "143500.010000", "143500.797500", "143501.587500", "143502.375000", "143503.162500", "143503.952500", "143504.740000", "143505.527500", "143506.315000", "143507.105000", "143507.892500", "143508.680000", "143509.467500", "143510.257500", "143511.045000", "143511.832500", "143512.620000", "143513.410000", "143514.197500", "143514.985000", "143515.772500", "143516.562500", "143517.350000", "143518.137500", "143518.925000", "143519.715000", "143520.502500", "143521.290000", "143522.080000", "143522.867500", "143523.655000", "143524.442500", "143525.232500", "143526.020000", "143526.807500", "143527.595000", "143528.385000", "143529.172500", "143529.960000", "143530.747500", "143531.537500", "143532.325000", "143533.112500", "143533.900000", "143534.690000", "143535.477500", "143536.265000", "143537.052500", "143537.842500", "143538.630000", "143539.417500", "143540.207500", "143540.995000", "143541.782500", "143542.570000", "143543.360000", "143544.147500", "143544.935000", "143545.722500", "143546.512500", "143547.300000", "143548.087500", "143548.875000", "143549.665000", "143550.452500", "143551.240000", "143552.027500", "143552.817500", "143553.605000", "143554.392500", "143555.180000", "143555.970000", "143556.757500", "143557.545000", "143558.335000", "143559.122500", "143559.910000", "143600.697500", "143601.487500", "143602.275000", "143603.062500", "143603.850000", "143604.640000", "143605.427500", "143606.215000", "143607.002500", "143607.792500", "143608.580000", "143609.367500", "143610.155000", "143610.945000", "143611.732500", "143612.520000", "143613.307500", "143614.097500", "143614.885000", "143615.672500", "143616.462500", "143617.250000", "143618.037500", "143618.825000", "143619.615000", "143620.402500", "143621.190000", "143621.977500", "143622.767500", "143623.555000", "143624.342500", "143625.130000", "143625.920000", "143626.707500", "143627.495000", "143628.282500", "143629.072500", "143629.860000", "143630.647500", "143631.435000", "143632.225000", "143633.012500", "143633.800000", "143634.590000", "143635.377500", "143636.165000", "143636.952500", "143637.742500", "143638.530000", "143639.317500", "143640.105000", "143640.895000", "143641.682500", "143642.470000", "143643.257500", "143644.047500", "143644.835000", "143645.622500", "143646.410000", "143647.200000", "143647.987500", "143648.775000", "143649.562500", "143650.352500", "143651.140000", "143651.927500", "143652.717500", "143653.505000", "143654.292500", "143655.080000", "143655.870000", "143656.657500", "143657.445000", "143658.232500", "143659.022500", "143659.810000", "143700.597500", "143701.385000", "143702.175000", "143702.962500", "143703.750000", "143704.537500", "143705.327500", "143706.115000", "143706.902500", "143707.692500", "143708.480000", "143709.267500", "143710.055000", "143710.845000", "143711.632500", "143712.420000", "143713.207500", "143713.997500", "143714.785000", "143715.572500", "143716.360000", "143717.150000", "143717.937500", "143718.725000", "143719.512500", "143720.302500", "143721.090000", "143721.877500", "143722.665000", "143723.455000", "143724.242500", "143725.030000", "143725.820000", "143726.607500", "143727.395000", "143728.182500", "143728.972500", "143729.760000", "143730.547500", "143731.335000", "143732.125000", "143732.912500", "143733.700000", "143734.487500", "143735.277500", "143736.065000", "143736.852500", "143737.640000", "143738.430000", "143739.217500", "143740.005000", "143740.792500", "143741.582500", "143742.370000", "143743.157500", "143743.947500", "143744.735000", "143745.522500", "143746.310000", "143747.100000", "143747.887500", "143748.675000", "143749.462500", "143750.252500", "143751.040000", "143751.827500", "143752.615000", "143753.405000", "143754.192500", "143754.980000", "143755.767500", "143756.557500", "143757.345000", "143758.132500", "143758.920000", "143759.710000", "143800.497500", "143801.285000", "143802.075000", "143802.862500", "143803.650000", "143804.437500", "143805.227500", "143806.015000", "143806.802500", "143807.590000", "143808.380000", "143809.167500", "143809.955000", "143810.742500", "143811.532500", "143812.320000", "143813.107500", "143813.895000", "143814.685000", "143815.472500", "143816.260000", "143817.047500", "143817.837500", "143818.625000", "143819.412500", "143820.202500", "143820.990000", "143821.777500", "143822.565000", "143823.355000", "143824.142500", "143824.930000", "143825.717500", "143826.507500", "143827.295000", "143828.082500", "143828.870000", "143829.660000", "143830.447500", "143831.235000", "143832.022500", "143832.812500", "143833.600000", "143834.387500", "143835.175000", "143835.965000", "143836.752500", "143837.540000", "143838.330000", "143839.117500", "143839.905000", "143840.692500", "143841.482500", "143842.270000", "143843.057500", "143843.845000", "143844.635000", "143845.422500", "143846.210000", "143846.997500", "143847.787500", "143848.575000", "143849.362500", "143850.150000", "143850.940000", "143851.727500", "143852.515000", "143853.302500", "143854.092500", "143854.880000", "143855.667500", "143856.457500", "143857.245000", "143858.032500", "143858.820000"],
      "ContentTime": ["143156.281000", "143156.281000", "143156.281000", "143156.281000", "143156.281000", "143156.281000", "143156.296000", "143156.296000", "143156.296000", "143156.312000", "143156.312000", "143156.312000", "143156.312000", "143156.312000", "143156.328000", "143156.328000", "143156.328000", "143156.328000", "143156.328000", "143156.328000", "143156.343000", "143156.343000", "143156.343000", "143156.343000", "143156.359000", "143156.359000", "143156.359000", "143156.359000", "143156.359000", "143156.359000", "143156.359000", "143156.375000", "143156.375000", "143156.375000", "143156.375000", "143156.375000", "143156.375000", "143156.375000", "143156.390000", "143156.390000", "143216.250000", "143216.250000", "143216.250000", "143216.250000", "143216.265000", "143216.265000", "143216.265000", "143216.265000", "143216.265000", "143216.265000", "143216.265000", "143216.281000", "143216.281000", "143216.281000", "143216.281000", "143216.281000", "143216.281000", "143216.296000", "143216.296000", "143216.296000", "143216.296000", "143216.296000", "143216.312000", "143216.312000", "143216.312000", "143216.312000", "143236.250000", "143236.250000", "143236.250000", "143236.250000", "143236.265000", "143236.265000", "143236.265000", "143236.265000", "143236.265000", "143236.265000", "143236.265000", "143236.281000", "143236.281000", "143236.281000", "143236.281000", "143236.281000", "143236.281000", "143236.281000", "143236.296000", "143236.296000", "143236.296000", "143236.296000", "143236.296000", "143236.296000", "143236.312000", "143256.250000", "143256.250000", "143256.250000", "143256.250000", "143256.265000", "143256.265000", "143256.265000", "143256.265000", "143256.265000", "143256.265000", "143256.265000", "143256.281000", "143256.281000", "143256.281000", "143256.281000", "143256.281000", "143256.281000", "143256.281000", "143256.296000", "143256.296000", "143256.312000", "143256.312000", "143256.312000", "143256.312000", "143256.312000", "143256.328000", "143316.250000", "143316.250000", "143316.250000", "143316.250000", "143316.265000", "143316.265000", "143316.265000", "143316.265000", "143316.281000", "143316.281000", "143316.281000", "143316.281000", "143316.281000", "143316.281000", "143316.281000", "143316.296000", "143316.296000", "143316.296000", "143316.296000", "143316.296000", "143316.296000", "143316.296000", "143316.312000", "143316.312000", "143316.312000", "143336.250000", "143336.250000", "143336.250000", "143336.250000", "143336.265000", "143336.265000", "143336.265000", "143336.265000", "143336.265000", "143336.265000", "143336.265000", "143336.281000", "143336.281000", "143336.281000", "143336.281000", "143336.281000", "143336.281000", "143336.296000", "143336.296000", "143336.296000", "143336.296000", "143336.312000", "143336.312000", "143336.312000", "143336.312000", "143336.312000", "143356.250000", "143356.250000", "143356.250000", "143356.250000", "143356.265000", "143356.265000", "143356.265000", "143356.265000", "143356.265000", "143356.265000", "143356.265000", "143356.281000", "143356.281000", "143356.281000", "143356.281000", "143356.281000", "143356.281000", "143356.296000", "143356.296000", "143356.296000", "143356.296000", "143356.296000", "143356.312000", "143356.312000", "143356.312000", "143416.250000", "143416.250000", "143416.250000", "143416.250000", "143416.265000", "143416.265000", "143416.265000", "143416.265000", "143416.265000", "143416.265000", "143416.281000", "143416.281000", "143416.281000", "143416.281000", "143416.281000", "143416.296000", "143416.296000", "143416.296000", "143416.296000", "143416.296000", "143416.312000", "143416.312000", "143416.312000", "143416.312000", "143416.312000", "143416.328000", "143436.250000", "143436.250000", "143436.250000", "143436.250000", "143436.265000", "143436.265000", "143436.265000", "143436.265000", "143436.265000", "143436.265000", "143436.265000", "143436.281000", "143436.281000", "143436.281000", "143436.281000", "143436.281000", "143436.281000", "143436.281000", "143436.296000", "143436.296000", "143436.296000", "143436.296000", "143436.296000", "143436.296000", "143436.312000", "143456.250000", "143456.250000", "143456.250000", "143456.250000", "143456.265000", "143456.265000", "143456.265000", "143456.265000", "143456.265000", "143456.265000", "143456.265000", "143456.281000", "143456.281000", "143456.281000", "143456.281000", "143456.281000", "143456.296000", "143456.296000", "143456.296000", "143456.296000", "143456.296000", "143456.296000", "143456.296000", "143456.312000", "143456.312000", "143456.312000", "143516.250000", "143516.250000", "143516.250000", "143516.250000", "143516.265000", "143516.265000", "143516.265000", "143516.265000", "143516.265000", "143516.265000", "143516.265000", "143516.281000", "143516.281000", "143516.281000", "143516.281000", "143516.281000", "143516.281000", "143516.281000", "143516.296000", "143516.296000", "143516.296000", "143516.296000", "143516.296000", "143516.296000", "143516.296000", "143536.250000", "143536.250000", "143536.250000", "143536.250000", "143536.265000", "143536.265000", "143536.265000", "143536.265000", "143536.265000", "143536.281000", "143536.281000", "143536.281000", "143536.281000", "143536.281000", "143536.281000", "143536.296000", "143536.296000", "143536.296000", "143536.296000", "143536.296000", "143536.296000", "143536.296000", "143536.312000", "143536.312000", "143536.312000", "143536.312000", "143556.250000", "143556.250000", "143556.250000", "143556.250000", "143556.265000", "143556.265000", "143556.265000", "143556.265000", "143556.265000", "143556.265000", "143556.265000", "143556.281000", "143556.281000", "143556.281000", "143556.281000", "143556.296000", "143556.296000", "143556.296000", "143556.296000", "143556.296000", "143556.296000", "143556.312000", "143556.312000", "143556.312000", "143556.312000", "143616.250000", "143616.250000", "143616.250000", "143616.250000", "143616.265000", "143616.265000", "143616.265000", "143616.265000", "143616.265000", "143616.265000", "143616.265000", "143616.281000", "143616.281000", "143616.281000", "143616.281000", "143616.281000", "143616.281000", "143616.296000", "143616.296000", "143616.296000", "143616.296000", "143616.296000", "143616.312000", "143616.312000", "143616.312000", "143616.312000", "143636.250000", "143636.250000", "143636.250000", "143636.250000", "143636.265000", "143636.265000", "143636.265000", "143636.265000", "143636.265000", "143636.265000", "143636.265000", "143636.281000", "143636.281000", "143636.281000", "143636.281000", "143636.281000", "143636.281000", "143636.281000", "143636.296000", "143636.296000", "143636.296000", "143636.296000", "143636.296000", "143636.296000", "143636.312000", "143656.250000", "143656.250000", "143656.250000", "143656.250000", "143656.265000", "143656.265000", "143656.265000", "143656.265000", "143656.281000", "143656.281000", "143656.281000", "143656.281000", "143656.281000", "143656.281000", "143656.296000", "143656.296000", "143656.296000", "143656.296000", "143656.296000", "143656.312000", "143656.312000", "143656.312000", "143656.312000", "143656.312000", "143656.312000", "143656.312000", "143716.250000", "143716.250000", "143716.250000", "143716.250000", "143716.265000", "143716.265000", "143716.265000", "143716.265000", "143716.265000", "143716.281000", "143716.281000", "143716.281000", "143716.281000", "143716.281000", "143716.281000", "143716.281000", "143716.296000", "143716.296000", "143716.296000", "143716.296000", "143716.296000", "143716.296000", "143716.312000", "143716.312000", "143716.312000", "143736.250000", "143736.250000", "143736.250000", "143736.250000", "143736.265000", "143736.265000", "143736.265000", "143736.265000", "143736.265000", "143736.265000", "143736.265000", "143736.281000", "143736.281000", "143736.281000", "143736.281000", "143736.281000", "143736.281000", "143736.296000", "143736.296000", "143736.296000", "143736.296000", "143736.296000", "143736.312000", "143736.312000", "143736.312000", "143756.250000", "143756.250000", "143756.250000", "143756.250000", "143756.265000", "143756.265000", "143756.265000", "143756.265000", "143756.265000", "143756.265000", "143756.265000", "143756.281000", "143756.281000", "143756.281000", "143756.281000", "143756.281000", "143756.281000", "143756.296000", "143756.296000", "143756.296000", "143756.296000", "143756.296000", "143756.296000", "143756.296000", "143756.312000", "143756.312000", "143816.250000", "143816.250000", "143816.250000", "143816.250000", "143816.265000", "143816.265000", "143816.265000", "143816.265000", "143816.265000", "143816.265000", "143816.265000", "143816.281000", "143816.281000", "143816.296000", "143816.312000", "143816.312000", "143816.312000", "143816.312000", "143816.312000", "143816.312000", "143816.312000", "143816.328000", "143816.328000", "143816.328000", "143816.328000", "143836.250000", "143836.250000", "143836.250000", "143836.250000", "143836.265000", "143836.265000", "143836.265000", "143836.265000", "143836.265000", "143836.265000", "143836.265000", "143836.281000", "143836.281000", "143836.281000", "143836.281000", "143836.281000", "143836.281000", "143836.281000", "143836.296000", "143836.296000", "143836.296000", "143836.296000", "143836.296000", "143836.312000", "143836.312000", "143836.312000", "143856.250000", "143856.250000", "143856.250000", "143856.265000", "143856.265000", "143856.265000", "143856.265000", "143856.265000", "143856.265000", "143856.265000", "143856.281000", "143856.281000", "143856.281000", "143856.281000", "143856.281000", "143856.281000", "143856.296000", "143856.296000", "143856.296000", "143856.296000", "143856.296000", "143856.296000", "143856.312000", "143856.312000", "143856.312000", "143900.390000", "143900.390000", "143900.390000", "143900.390000", "143900.406000", "143900.406000"],
