{
  "AcquisitionMatrixPE": 104,
  "AcquisitionNumber": 1,
  "AcquisitionTime": "13:15:36.877500",
  "BandwidthPerPixelPhaseEncode": 13.935,
  "BaseResolution": 104,
  "CoilString": "C:HEA;HEP",
  "ConversionSoftware": "dcm2niix",
  "ConversionSoftwareVersion": "v1.0.20210317",
  "DerivedVendorReportedEchoSpacing": 0.000690017,
  "DeviceSerialNumber": "35450",
  "DwellTime": 2.5e-06,
  "EchoTime": 0.0348,
  "EffectiveEchoSpacing": 0.000690017,
  "FlipAngle": 55,
  "ImageComments": "Unaliased MB8/PE3 (remote)",
  "ImageOrientationPatientDICOM": [0.999973, 0.00206734, 0.00706971, -1.31204e-08, 0.959805, -0.280667],
  "ImageType": [
    "ORIGINAL",
    "PRIMARY",
    "M",
    "MB",
    "ND",
    "MOSAIC"
],
  "ImagingFrequency": 123.234,
  "InPlanePhaseEncodingDirectionDICOM": "COL",
  "InstitutionAddress": "Univeristy Ave. 197,Newark,North East,US,07102-1814",
  "InstitutionName": "RUBIC",
  "InstitutionalDepartmentName": "Department",
  "MRAcquisitionType": "2D",
  "MagneticFieldStrength": 3,
  "Manufacturer": "Siemens",
  "ManufacturersModelName": "TrioTim",
  "Modality": "MR",
  "MultibandAccelerationFactor": 8,
  "PartialFourier": 0.875,
  "PatientPosition": "HFS",
  "PercentPhaseFOV": 100,
  "PercentSampling": 100,
  "PhaseEncodingDirection": "j-",
  "PhaseEncodingSteps": 91,
  "PhaseResolution": 1,
  "PixelBandwidth": 1923,
  "ProcedureStepDescription": "Cole^Michael",
  "ProtocolName": "cmrr_mbep2d_bold_2mm_MB8_Rest",
  "PulseSequenceDetails": "%CustomerSeq%\\cmrr_mbep2d_bold",
  "ReceiveCoilName": "32Ch_Head",
  "ReconMatrixPE": 104,
  "RepetitionTime": 0.785,
  "SAR": 0.138755,
  "ScanOptions": "PFP\\FS",
  "ScanningSequence": "EP",
  "SequenceName": "epfid2d1_104",
  "SequenceVariant": "SK\\SS",
  "SeriesDescription": "cmrr_mbep2d_bold_2mm_MB8_Rest",
  "SeriesNumber": 9,
  "ShimSetting": [2106, -378, -7445, 330, 165, -610, -48, -61],
  "SliceThickness": 2,
  "SliceTiming": [0, 0.4375, 0.0875, 0.525, 0.175, 0.6125, 0.2625, 0.7, 0.35, 0, 0.4375, 0.0875, 0.525, 0.175, 0.6125, 0.2625, 0.7, 0.35, 0, 0.4375, 0.0875, 0.525, 0.175, 0.6125, 0.2625, 0.7, 0.35, 0, 0.4375, 0.0875, 0.525, 0.175, 0.6125, 0.2625, 0.7, 0.35, 0, 0.4375, 0.0875, 0.525, 0.175, 0.6125, 0.2625, 0.7, 0.35, 0, 0.4375, 0.0875, 0.525, 0.175, 0.6125, 0.2625, 0.7, 0.35, 0, 0.4375, 0.0875, 0.525, 0.175, 0.6125, 0.2625, 0.7, 0.35, 0, 0.4375, 0.0875, 0.525, 0.175, 0.6125, 0.2625, 0.7, 0.35],
  "SoftwareVersions": "syngo MR B19",
  "SpacingBetweenSlices": 2,
  "StationName": "MRC35450",
  "TaskName": "rest",
  "TotalReadoutTime": 0.0710717,
  "TxRefAmp": 327.818,
  "dcmmeta_affine": [
    [-1.9999457597732544, -2.6240769557261956e-08, 0.01473156176507473, 104.90180206298828],
    [-0.004134681541472673, 1.9196107387542725, -0.5613178610801697, -66.14610290527344],
    [0.014139424078166485, 0.5613330602645874, 1.9195586442947388, -117.4531478881836],
    [0.0, 0.0, 0.0, 1.0]
],
  "dcmmeta_reorient_transform": [
    [0.0, -1.0, 0.0, 103.0],
    [1.0, 0.0, 0.0, 0.0],
    [0.0, 0.0, 1.0, 0.0],
    [0.0, 0.0, 0.0, 1.0]
],
  "dcmmeta_shape": [104, 104, 72, 1070],
  "dcmmeta_slice_dim": 2,
  "dcmmeta_version": 0.6,
  "global": {
    "const": {
      "AcquisitionMatrix": [104, 0, 0, 104],
      "AngioFlag": "N",
      "BitsAllocated": 16,
      "BitsStored": 12,
      "Columns": 936,
      "EchoNumbers": 1,
      "EchoTime": 34.8,
      "EchoTrainLength": 1,
      "FlipAngle": 55.0,
      "HighBit": 11,
      "ImageOrientationPatient": [0.99997287226744, 0.00206734080563, 0.00706971224356, -1.3120385e-08, 0.95980534314461, -0.280666533935],
      "ImagePositionPatient": [-936.87921996812, -931.85186797455, 167.99671268859],
      "ImageType": [
        "ORIGINAL",
        "PRIMARY",
        "M",
        "MB",
        "ND",
        "MOSAIC"
],
      "ImagedNucleus": "1H",
      "ImagingFrequency": 123.23446,
      "InPlanePhaseEncodingDirection": "COL",
      "MRAcquisitionType": "2D",
      "MagneticFieldStrength": 3.0,
      "Manufacturer": "SIEMENS",
      "ManufacturerModelName": "TrioTim",
      "Modality": "MR",
      "NumberOfAverages": 1.0,
      "NumberOfPhaseEncodingSteps": 91,
      "PercentPhaseFieldOfView": 100.0,
      "PercentSampling": 100.0,
      "PerformedProcedureStepStartTime": "123910.390000",
      "PhotometricInterpretation": "MONOCHROME2",
      "PixelBandwidth": 1923.0,
      "PixelRepresentation": 0,
      "PixelSpacing": [2.0, 2.0],
      "ProtocolName": "cmrr_mbep2d_bold_2mm_MB8_Rest",
      "RepetitionTime": 785.0,
      "Rows": 936,
      "SAR": 0.13875526815522,
      "SamplesPerPixel": 1,
      "ScanOptions": [
        "PFP",
        "FS"
],
      "ScanningSequence": "EP",
      "SequenceName": "epfid2d1_104",
      "SequenceVariant": [
        "SK",
        "SS"
],
      "SeriesDescription": "cmrr_mbep2d_bold_2mm_MB8_Rest",
      "SeriesNumber": 9,
      "SeriesTime": "131555.937000",
      "SliceLocation": -93.391923451487,
      "SliceThickness": 2.0,
      "SmallestImagePixelValue": 0,
      "SoftwareVersions": "syngo MR B19",
      "SpacingBetweenSlices": 1.9999999977474,
      "SpecificCharacterSet": "ISO_IR 100",
      "StudyID": "1",
      "StudyTime": "123910.359000",
      "TransmitCoilName": "Body",
      "VariableFlipAngleFlag": "N",
      "WindowCenterWidthExplanation": "Algo1",
      "dBdt": 0.0},
    "slices": {}
  },
  "time": {
    "samples": {
      "AcquisitionNumber": [1, 2, 3, 4, 5, 6, 7, 8, 9, 10, 11, 12, 13, 14, 15, 16, 17, 18, 19, 20, 21, 22, 23, 24, 25, 26, 27, 28, 29, 30, 31, 32, 33, 34, 35, 36, 37, 38, 39, 40, 41, 42, 43, 44, 45, 46, 47, 48, 49, 50, 51, 52, 53, 54, 55, 56, 57, 58, 59, 60, 61, 62, 63, 64, 65, 66, 67, 68, 69, 70, 71, 72, 73, 74, 75, 76, 77, 78, 79, 80, 81, 82, 83, 84, 85, 86, 87, 88, 89, 90, 91, 92, 93, 94, 95, 96, 97, 98, 99, 100, 101, 102, 103, 104, 105, 106, 107, 108, 109, 110, 111, 112, 113, 114, 115, 116, 117, 118, 119, 120, 121, 122, 123, 124, 125, 126, 127, 128, 129, 130, 131, 132, 133, 134, 135, 136, 137, 138, 139, 140, 141, 142, 143, 144, 145, 146, 147, 148, 149, 150, 151, 152, 153, 154, 155, 156, 157, 158, 159, 160, 161, 162, 163, 164, 165, 166, 167, 168, 169, 170, 171, 172, 173, 174, 175, 176, 177, 178, 179, 180, 181, 182, 183, 184, 185, 186, 187, 188, 189, 190, 191, 192, 193, 194, 195, 196, 197, 198, 199, 200, 201, 202, 203, 204, 205, 206, 207, 208, 209, 210, 211, 212, 213, 214, 215, 216, 217, 218, 219, 220, 221, 222, 223, 224, 225, 226, 227, 228, 229, 230, 231, 232, 233, 234, 235, 236, 237, 238, 239, 240, 241, 242, 243, 244, 245, 246, 247, 248, 249, 250, 251, 252, 253, 254, 255, 256, 257, 258, 259, 260, 261, 262, 263, 264, 265, 266, 267, 268, 269, 270, 271, 272, 273, 274, 275, 276, 277, 278, 279, 280, 281, 282, 283, 284, 285, 286, 287, 288, 289, 290, 291, 292, 293, 294, 295, 296, 297, 298, 299, 300, 301, 302, 303, 304, 305, 306, 307, 308, 309, 310, 311, 312, 313, 314, 315, 316, 317, 318, 319, 320, 321, 322, 323, 324, 325, 326, 327, 328, 329, 330, 331, 332, 333, 334, 335, 336, 337, 338, 339, 340, 341, 342, 343, 344, 345, 346, 347, 348, 349, 350, 351, 352, 353, 354, 355, 356, 357, 358, 359, 360, 361, 362, 363, 364, 365, 366, 367, 368, 369, 370, 371, 372, 373, 374, 375, 376, 377, 378, 379, 380, 381, 382, 383, 384, 385, 386, 387, 388, 389, 390, 391, 392, 393, 394, 395, 396, 397, 398, 399, 400, 401, 402, 403, 404, 405, 406, 407, 408, 409, 410, 411, 412, 413, 414, 415, 416, 417, 418, 419, 420, 421, 422, 423, 424, 425, 426, 427, 428, 429, 430, 431, 432, 433, 434, 435, 436, 437, 438, 439, 440, 441, 442, 443, 444, 445, 446, 447, 448, 449, 450, 451, 452, 453, 454, 455, 456, 457, 458, 459, 460, 461, 462, 463, 464, 465, 466, 467, 468, 469, 470, 471, 472, 473, 474, 475, 476, 477, 478, 479, 480, 481, 482, 483, 484, 485, 486, 487, 488, 489, 490, 491, 492, 493, 494, 495, 496, 497, 498, 499, 500, 501, 502, 503, 504, 505, 506, 507, 508, 509, 510, 511, 512, 513, 514, 515, 516, 517, 518, 519, 520, 521, 522, 523, 524, 525, 526, 527, 528, 529, 530, 531, 532, 533, 534, 535, 536, 537, 538, 539, 540, 541, 542, 543, 544, 545, 546, 547, 548, 549, 550, 551, 552, 553, 554, 555, 556, 557, 558, 559, 560, 561, 562, 563, 564, 565, 566, 567, 568, 569, 570, 571, 572, 573, 574, 575, 576, 577, 578, 579, 580, 581, 582, 583, 584, 585, 586, 587, 588, 589, 590, 591, 592, 593, 594, 595, 596, 597, 598, 599, 600, 601, 602, 603, 604, 605, 606, 607, 608, 609, 610, 611, 612, 613, 614, 615, 616, 617, 618, 619, 620, 621, 622, 623, 624, 625, 626, 627, 628, 629, 630, 631, 632, 633, 634, 635, 636, 637, 638, 639, 640, 641, 642, 643, 644, 645, 646, 647, 648, 649, 650, 651, 652, 653, 654, 655, 656, 657, 658, 659, 660, 661, 662, 663, 664, 665, 666, 667, 668, 669, 670, 671, 672, 673, 674, 675, 676, 677, 678, 679, 680, 681, 682, 683, 684, 685, 686, 687, 688, 689, 690, 691, 692, 693, 694, 695, 696, 697, 698, 699, 700, 701, 702, 703, 704, 705, 706, 707, 708, 709, 710, 711, 712, 713, 714, 715, 716, 717, 718, 719, 720, 721, 722, 723, 724, 725, 726, 727, 728, 729, 730, 731, 732, 733, 734, 735, 736, 737, 738, 739, 740, 741, 742, 743, 744, 745, 746, 747, 748, 749, 750, 751, 752, 753, 754, 755, 756, 757, 758, 759, 760, 761, 762, 763, 764, 765, 766, 767, 768, 769, 770, 771, 772, 773, 774, 775, 776, 777, 778, 779, 780, 781, 782, 783, 784, 785, 786, 787, 788, 789, 790, 791, 792, 793, 794, 795, 796, 797, 798, 799, 800, 801, 802, 803, 804, 805, 806, 807, 808, 809, 810, 811, 812, 813, 814, 815, 816, 817, 818, 819, 820, 821, 822, 823, 824, 825, 826, 827, 828, 829, 830, 831, 832, 833, 834, 835, 836, 837, 838, 839, 840, 841, 842, 843, 844, 845, 846, 847, 848, 849, 850, 851, 852, 853, 854, 855, 856, 857, 858, 859, 860, 861, 862, 863, 864, 865, 866, 867, 868, 869, 870, 871, 872, 873, 874, 875, 876, 877, 878, 879, 880, 881, 882, 883, 884, 885, 886, 887, 888, 889, 890, 891, 892, 893, 894, 895, 896, 897, 898, 899, 900, 901, 902, 903, 904, 905, 906, 907, 908, 909, 910, 911, 912, 913, 914, 915, 916, 917, 918, 919, 920, 921, 922, 923, 924, 925, 926, 927, 928, 929, 930, 931, 932, 933, 934, 935, 936, 937, 938, 939, 940, 941, 942, 943, 944, 945, 946, 947, 948, 949, 950, 951, 952, 953, 954, 955, 956, 957, 958, 959, 960, 961, 962, 963, 964, 965, 966, 967, 968, 969, 970, 971, 972, 973, 974, 975, 976, 977, 978, 979, 980, 981, 982, 983, 984, 985, 986, 987, 988, 989, 990, 991, 992, 993, 994, 995, 996, 997, 998, 999, 1000, 1001, 1002, 1003, 1004, 1005, 1006, 1007, 1008, 1009, 1010, 1011, 1012, 1013, 1014, 1015, 1016, 1017, 1018, 1019, 1020, 1021, 1022, 1023, 1024, 1025, 1026, 1027, 1028, 1029, 1030, 1031, 1032, 1033, 1034, 1035, 1036, 1037, 1038, 1039, 1040, 1041, 1042, 1043, 1044, 1045, 1046, 1047, 1048, 1049, 1050, 1051, 1052, 1053, 1054, 1055, 1056, 1057, 1058, 1059, 1060, 1061, 1062, 1063, 1064, 1065, 1066, 1067, 1068, 1069, 1070],
      "AcquisitionTime": ["131536.877500", "131537.665000", "131538.455000", "131539.242500", "131540.030000", "131540.820000", "131541.607500", "131542.395000", "131543.182500", "131543.972500", "131544.760000", "131545.547500", "131546.335000", "131547.125000", "131547.912500", "131548.700000", "131549.487500", "131550.277500", "131551.065000", "131551.852500", "131552.640000", "131553.430000", "131554.217500", "131555.005000", "131555.792500", "131556.582500", "131557.370000", "131558.157500", "131558.947500", "131559.735000", "131600.522500", "131601.310000", "131602.100000", "131602.887500", "131603.675000", "131604.462500", "131605.252500", "131606.040000", "131606.827500", "131607.615000", "131608.405000", "131609.192500", "131609.980000", "131610.767500", "131611.557500", "131612.345000", "131613.132500", "131613.920000", "131614.710000", "131615.497500", "131616.285000", "131617.075000", "131617.862500", "131618.650000", "131619.437500", "131620.227500", "131621.015000", "131621.802500", "131622.590000", "131623.380000", "131624.167500", "131624.955000", "131625.742500", "131626.532500", "131627.320000", "131628.107500", "131628.895000", "131629.685000", "131630.472500", "131631.260000", "131632.047500", "131632.837500", "131633.625000", "131634.412500", "131635.202500", "131635.990000", "131636.777500", "131637.565000", "131638.355000", "131639.142500", "131639.930000", "131640.717500", "131641.507500", "131642.295000", "131643.082500", "131643.870000", "131644.660000", "131645.447500", "131646.235000", "131647.022500", "131647.812500", "131648.600000", "131649.387500", "131650.177500", "131650.965000", "131651.752500", "131652.540000", "131653.330000", "131654.117500", "131654.905000", "131655.692500", "131656.482500", "131657.270000", "131658.057500", "131658.845000", "131659.635000", "131700.422500", "131701.210000", "131701.997500", "131702.787500", "131703.575000", "131704.362500", "131705.150000", "131705.940000", "131706.727500", "131707.515000", "131708.305000", "131709.092500", "131709.880000", "131710.667500", "131711.457500", "131712.245000", "131713.032500", "131713.820000", "131714.610000", "131715.397500", "131716.185000", "131716.972500", "131717.762500", "131718.550000", "131719.337500", "131720.125000", "131720.915000", "131721.702500", "131722.490000", "131723.277500", "131724.067500", "131724.855000", "131725.642500", "131726.432500", "131727.220000", "131728.007500", "131728.795000", "131729.585000", "131730.372500", "131731.160000", "131731.947500", "131732.737500", "131733.525000", "131734.312500", "131735.100000", "131735.890000", "131736.677500", "131737.465000", "131738.252500", "131739.042500", "131739.830000", "131740.617500", "131741.405000", "131742.195000", "131742.982500", "131743.770000", "131744.560000", "131745.347500", "131746.135000", "131746.922500", "131747.712500", "131748.500000", "131749.287500", "131750.075000", "131750.865000", "131751.652500", "131752.440000", "131753.227500", "131754.017500", "131754.805000", "131755.592500", "131756.380000", "131757.170000", "131757.957500", "131758.745000", "131759.532500", "131800.322500", "131801.110000", "131801.897500", "131802.687500", "131803.475000", "131804.262500", "131805.050000", "131805.840000", "131806.627500", "131807.415000", "131808.202500", "131808.992500", "131809.780000", "131810.567500", "131811.355000", "131812.145000", "131812.932500", "131813.720000", "131814.507500", "131815.297500", "131816.085000", "131816.872500", "131817.660000", "131818.450000", "131819.237500", "131820.025000", "131820.815000", "131821.602500", "131822.390000", "131823.177500", "131823.967500", "131824.755000", "131825.542500", "131826.330000", "131827.120000", "131827.907500", "131828.695000", "131829.482500", "131830.272500", "131831.060000", "131831.847500", "131832.635000", "131833.425000", "131834.212500", "131835.000000", "131835.787500", "131836.577500", "131837.365000", "131838.152500", "131838.942500", "131839.730000", "131840.517500", "131841.305000", "131842.095000", "131842.882500", "131843.670000", "131844.457500", "131845.247500", "131846.035000", "131846.822500", "131847.610000", "131848.400000", "131849.187500", "131849.975000", "131850.762500", "131851.552500", "131852.340000", "131853.127500", "131853.915000", "131854.705000", "131855.492500", "131856.280000", "131857.070000", "131857.857500", "131858.645000", "131859.432500", "131900.222500", "131901.010000", "131901.797500", "131902.585000", "131903.375000", "131904.162500", "131904.950000", "131905.737500", "131906.527500", "131907.315000", "131908.102500", "131908.890000", "131909.680000", "131910.467500", "131911.255000", "131912.042500", "131912.832500", "131913.620000", "131914.407500", "131915.197500", "131915.985000", "131916.772500", "131917.560000", "131918.350000", "131919.137500", "131919.925000", "131920.712500", "131921.502500", "131922.290000", "131923.077500", "131923.865000", "131924.655000", "131925.442500", "131926.230000", "131927.017500", "131927.807500", "131928.595000", "131929.382500", "131930.170000", "131930.960000", "131931.747500", "131932.535000", "131933.325000", "131934.112500", "131934.900000", "131935.687500", "131936.477500", "131937.265000", "131938.052500", "131938.840000", "131939.630000", "131940.417500", "131941.205000", "131941.992500", "131942.782500", "131943.570000", "131944.357500", "131945.145000", "131945.935000", "131946.722500", "131947.510000", "131948.297500", "131949.087500", "131949.875000", "131950.662500", "131951.452500", "131952.240000", "131953.027500", "131953.815000", "131954.605000", "131955.392500", "131956.180000", "131956.967500", "131957.757500", "131958.545000", "131959.332500", "132000.120000", "132000.910000", "132001.697500", "132002.485000", "132003.272500", "132004.062500", "132004.850000", "132005.637500", "132006.427500", "132007.215000", "132008.002500", "132008.790000", "132009.580000", "132010.367500", "132011.155000", "132011.942500", "132012.732500", "132013.520000", "132014.307500", "132015.095000", "132015.885000", "132016.672500", "132017.460000", "132018.247500", "132019.037500", "132019.825000", "132020.612500", "132021.400000", "132022.190000", "132022.977500", "132023.765000", "132024.555000", "132025.342500", "132026.130000", "132026.917500", "132027.707500", "132028.495000", "132029.282500", "132030.070000", "132030.860000", "132031.647500", "132032.435000", "132033.222500", "132034.012500", "132034.800000", "132035.587500", "132036.375000", "132037.165000", "132037.952500", "132038.740000", "132039.527500", "132040.317500", "132041.105000", "132041.892500", "132042.682500", "132043.470000", "132044.257500", "132045.045000", "132045.835000", "132046.622500", "132047.410000", "132048.197500", "132048.987500", "132049.775000", "132050.562500", "132051.350000", "132052.140000", "132052.927500", "132053.715000", "132054.502500", "132055.292500", "132056.080000", "132056.867500", "132057.655000", "132058.445000", "132059.232500", "132100.020000", "132100.810000", "132101.597500", "132102.385000", "132103.172500", "132103.962500", "132104.750000", "132105.537500", "132106.325000", "132107.115000", "132107.902500", "132108.690000", "132109.477500", "132110.267500", "132111.055000", "132111.842500", "132112.630000", "132113.420000", "132114.207500", "132114.995000", "132115.782500", "132116.572500", "132117.360000", "132118.147500", "132118.937500", "132119.725000", "132120.512500", "132121.300000", "132122.090000", "132122.877500", "132123.665000", "132124.452500", "132125.242500", "132126.030000", "132126.817500", "132127.605000", "132128.395000", "132129.182500", "132129.970000", "132130.757500", "132131.547500", "132132.335000", "132133.122500", "132133.910000", "132134.700000", "132135.487500", "132136.275000", "132137.065000", "132137.852500", "132138.640000", "132139.427500", "132140.217500", "132141.005000", "132141.792500", "132142.580000", "132143.370000", "132144.157500", "132144.945000", "132145.732500", "132146.522500", "132147.310000", "132148.097500", "132148.885000", "132149.675000", "132150.462500", "132151.250000", "132152.037500", "132152.827500", "132153.615000", "132154.402500", "132155.192500", "132155.980000", "132156.767500", "132157.555000", "132158.345000", "132159.132500", "132159.920000", "132200.707500", "132201.497500", "132202.285000", "132203.072500", "132203.860000", "132204.650000", "132205.437500", "132206.225000", "132207.012500", "132207.802500", "132208.590000", "132209.377500", "132210.165000", "132210.955000", "132211.742500", "132212.530000", "132213.320000", "132214.107500", "132214.895000", "132215.682500", "132216.472500", "132217.260000", "132218.047500", "132218.835000", "132219.625000", "132220.412500", "132221.200000", "132221.987500", "132222.777500", "132223.565000", "132224.352500", "132225.140000", "132225.930000", "132226.717500", "132227.505000", "132228.292500", "132229.082500", "132229.870000", "132230.657500", "132231.447500", "132232.235000", "132233.022500", "132233.810000", "132234.600000", "132235.387500", "132236.175000", "132236.962500", "132237.752500", "132238.540000", "132239.327500", "132240.115000", "132240.905000", "132241.692500", "132242.480000", "132243.267500", "132244.057500", "132244.845000", "132245.632500", "132246.420000", "132247.210000", "132247.997500", "132248.785000", "132249.575000", "132250.362500", "132251.150000", "132251.937500", "132252.727500", "132253.515000", "132254.302500", "132255.090000", "132255.880000", "132256.667500", "132257.455000", "132258.242500", "132259.032500", "132259.820000", "132300.607500", "132301.395000", "132302.185000", "132302.972500", "132303.760000", "132304.547500", "132305.337500", "132306.125000", "132306.912500", "132307.702500", "132308.490000", "132309.277500", "132310.065000", "132310.855000", "132311.642500", "132312.430000", "132313.217500", "132314.007500", "132314.795000", "132315.582500", "132316.370000", "132317.160000", "132317.947500", "132318.735000", "132319.522500", "132320.312500", "132321.100000", "132321.887500", "132322.677500", "132323.465000", "132324.252500", "132325.040000", "132325.830000", "132326.617500", "132327.405000", "132328.192500", "132328.982500", "132329.770000", "132330.557500", "132331.345000", "132332.135000", "132332.922500", "132333.710000", "132334.497500", "132335.287500", "132336.075000", "132336.862500", "132337.650000", "132338.440000", "132339.227500", "132340.015000", "132340.805000", "132341.592500", "132342.380000", "132343.167500", "132343.957500", "132344.745000", "132345.532500", "132346.320000", "132347.110000", "132347.897500", "132348.685000", "132349.472500", "132350.262500", "132351.050000", "132351.837500", "132352.625000", "132353.415000", "132354.202500", "132354.990000", "132355.777500", "132356.567500", "132357.355000", "132358.142500", "132358.932500", "132359.720000", "132400.507500", "132401.295000", "132402.085000", "132402.872500", "132403.660000", "132404.447500", "132405.237500", "132406.025000", "132406.812500", "132407.600000", "132408.390000", "132409.177500", "132409.965000", "132410.752500", "132411.542500", "132412.330000", "132413.117500", "132413.905000", "132414.695000", "132415.482500", "132416.270000", "132417.060000", "132417.847500", "132418.635000", "132419.422500", "132420.212500", "132421.000000", "132421.787500", "132422.575000", "132423.365000", "132424.152500", "132424.940000", "132425.727500", "132426.517500", "132427.305000", "132428.092500", "132428.880000", "132429.670000", "132430.457500", "132431.245000", "132432.032500", "132432.822500", "132433.610000", "132434.397500", "132435.187500", "132435.975000", "132436.762500", "132437.550000", "132438.340000", "132439.127500", "132439.915000", "132440.702500", "132441.492500", "132442.280000", "132443.067500", "132443.855000", "132444.645000", "132445.432500", "132446.220000", "132447.007500", "132447.797500", "132448.585000", "132449.372500", "132450.160000", "132450.950000", "132451.737500", "132452.525000", "132453.315000", "132454.102500", "132454.890000", "132455.677500", "132456.467500", "132457.255000", "132458.042500", "132458.830000", "132459.620000", "132500.407500", "132501.195000", "132501.982500", "132502.772500", "132503.560000", "132504.347500", "132505.135000", "132505.925000", "132506.712500", "132507.500000", "132508.287500", "132509.077500", "132509.865000", "132510.652500", "132511.442500", "132512.230000", "132513.017500", "132513.805000", "132514.595000", "132515.382500", "132516.170000", "132516.957500", "132517.747500", "132518.535000", "132519.322500", "132520.110000", "132520.900000", "132521.687500", "132522.475000", "132523.262500", "132524.052500", "132524.840000", "132525.627500", "132526.415000", "132527.205000", "132527.992500", "132528.780000", "132529.570000", "132530.357500", "132531.145000", "132531.932500", "132532.722500", "132533.510000", "132534.297500", "132535.085000", "132535.875000", "132536.662500", "132537.450000", "132538.237500", "132539.027500", "132539.815000", "132540.602500", "132541.390000", "132542.180000", "132542.967500", "132543.755000", "132544.542500", "132545.332500", "132546.120000", "132546.907500", "132547.697500", "132548.485000", "132549.272500", "132550.060000", "132550.850000", "132551.637500", "132552.425000", "132553.212500", "132554.002500", "132554.790000", "132555.577500", "132556.365000", "132557.155000", "132557.942500", "132558.730000", "132559.517500", "132600.307500", "132601.095000", "132601.882500", "132602.670000", "132603.460000", "132604.247500", "132605.035000", "132605.825000", "132606.612500", "132607.400000", "132608.187500", "132608.977500", "132609.765000", "132610.552500", "132611.340000", "132612.130000", "132612.917500", "132613.705000", "132614.492500", "132615.282500", "132616.070000", "132616.857500", "132617.645000", "132618.435000", "132619.222500", "132620.010000", "132620.797500", "132621.587500", "132622.375000", "132623.162500", "132623.952500", "132624.740000", "132625.527500", "132626.315000", "132627.105000", "132627.892500", "132628.680000", "132629.467500", "132630.257500", "132631.045000", "132631.832500", "132632.620000", "132633.410000", "132634.197500", "132634.985000", "132635.772500", "132636.562500", "132637.350000", "132638.137500", "132638.927500", "132639.715000", "132640.502500", "132641.290000", "132642.080000", "132642.867500", "132643.655000", "132644.442500", "132645.232500", "132646.020000", "132646.807500", "132647.595000", "132648.385000", "132649.172500", "132649.960000", "132650.747500", "132651.537500", "132652.325000", "132653.112500", "132653.900000", "132654.690000", "132655.477500", "132656.265000", "132657.055000", "132657.842500", "132658.630000", "132659.417500", "132700.207500", "132700.995000", "132701.782500", "132702.570000", "132703.360000", "132704.147500", "132704.935000", "132705.722500", "132706.512500", "132707.300000", "132708.087500", "132708.875000", "132709.665000", "132710.452500", "132711.240000", "132712.027500", "132712.817500", "132713.605000", "132714.392500", "132715.182500", "132715.970000", "132716.757500", "132717.545000", "132718.335000", "132719.122500", "132719.910000", "132720.697500", "132721.487500", "132722.275000", "132723.062500", "132723.850000", "132724.640000", "132725.427500", "132726.215000", "132727.002500", "132727.792500", "132728.580000", "132729.367500", "132730.155000", "132730.945000", "132731.732500", "132732.520000", "132733.310000", "132734.097500", "132734.885000", "132735.672500", "132736.462500", "132737.250000", "132738.037500", "132738.825000", "132739.615000", "132740.402500", "132741.190000", "132741.977500", "132742.767500", "132743.555000", "132744.342500", "132745.130000", "132745.920000", "132746.707500", "132747.495000", "132748.282500", "132749.072500", "132749.860000", "132750.647500", "132751.437500", "132752.225000", "132753.012500", "132753.800000", "132754.590000", "132755.377500", "132756.165000", "132756.952500", "132757.742500", "132758.530000", "132759.317500", "132800.105000", "132800.895000", "132801.682500", "132802.470000", "132803.257500", "132804.047500", "132804.835000", "132805.622500", "132806.410000", "132807.200000", "132807.987500", "132808.775000", "132809.565000", "132810.352500", "132811.140000", "132811.927500", "132812.717500", "132813.505000", "132814.292500", "132815.080000", "132815.870000", "132816.657500", "132817.445000", "132818.232500", "132819.022500", "132819.810000", "132820.597500", "132821.385000", "132822.175000", "132822.962500", "132823.750000", "132824.537500", "132825.327500", "132826.115000", "132826.902500", "132827.692500", "132828.480000", "132829.267500", "132830.055000", "132830.845000", "132831.632500", "132832.420000", "132833.207500", "132833.997500", "132834.785000", "132835.572500", "132836.360000", "132837.150000", "132837.937500", "132838.725000", "132839.512500", "132840.302500", "132841.090000", "132841.877500", "132842.665000", "132843.455000", "132844.242500", "132845.030000", "132845.820000", "132846.607500", "132847.395000", "132848.182500", "132848.972500", "132849.760000", "132850.547500", "132851.335000", "132852.125000", "132852.912500", "132853.700000", "132854.487500", "132855.277500", "132856.065000", "132856.852500", "132857.640000", "132858.430000", "132859.217500", "132900.005000", "132900.792500", "132901.582500", "132902.370000", "132903.157500", "132903.947500", "132904.735000", "132905.522500", "132906.310000", "132907.100000", "132907.887500", "132908.675000", "132909.462500", "132910.252500", "132911.040000", "132911.827500", "132912.615000", "132913.405000", "132914.192500", "132914.980000", "132915.767500", "132916.557500", "132917.345000", "132918.132500", "132918.920000", "132919.710000", "132920.497500", "132921.285000", "132922.075000", "132922.862500", "132923.650000", "132924.437500", "132925.227500", "132926.015000", "132926.802500", "132927.590000", "132928.380000", "132929.167500", "132929.955000", "132930.742500", "132931.532500", "132932.320000", "132933.107500", "132933.895000", "132934.685000", "132935.472500", "132936.260000", "132937.047500", "132937.837500", "132938.625000", "132939.412500"],
