{
  "AcquisitionMatrixPE": 104,
  "AcquisitionNumber": 1,
  "AcquisitionTime": "13:56:30.722500",
  "BandwidthPerPixelPhaseEncode": 13.935,
  "BaseResolution": 104,
  "CoilString": "C:HEA;HEP",
  "ConversionSoftware": "dcm2niix",
  "ConversionSoftwareVersion": "v1.0.20210317",
  "DerivedVendorReportedEchoSpacing": 0.000690017,
  "DeviceSerialNumber": "35450",
  "DwellTime": 2.5e-06,
  "EchoTime": 0.0348,
  "EffectiveEchoSpacing": 0.000690017,
  "FlipAngle": 55,
  "ImageComments": "Unaliased MB8/PE3 (remote)",
  "ImageOrientationPatientDICOM": [0.999973, 0.00206734, 0.00706971, -1.31204e-08, 0.959805, -0.280667],
  "ImageType": [
    "ORIGINAL",
    "PRIMARY",
    "M",
    "MB",
    "ND",
    "MOSAIC"
],
  "ImagingFrequency": 123.235,
  "InPlanePhaseEncodingDirectionDICOM": "COL",
  "InstitutionAddress": "Univeristy Ave. 197,Newark,North East,US,07102-1814",
  "InstitutionName": "RUBIC",
  "InstitutionalDepartmentName": "Department",
  "MRAcquisitionType": "2D",
  "MagneticFieldStrength": 3,
  "Manufacturer": "Siemens",
  "ManufacturersModelName": "TrioTim",
  "Modality": "MR",
  "MultibandAccelerationFactor": 8,
  "PartialFourier": 0.875,
  "PatientPosition": "HFS",
  "PercentPhaseFOV": 100,
  "PercentSampling": 100,
  "PhaseEncodingDirection": "j-",
  "PhaseEncodingSteps": 91,
  "PhaseResolution": 1,
  "PixelBandwidth": 1923,
  "ProcedureStepDescription": "Cole^Michael",
  "ProtocolName": "cmrr_mbep2d_bold_2mm_MB8_Task_8x",
  "PulseSequenceDetails": "%CustomerSeq%\\cmrr_mbep2d_bold",
  "ReceiveCoilName": "32Ch_Head",
  "ReconMatrixPE": 104,
  "RepetitionTime": 0.785,
  "SAR": 0.131075,
  "ScanOptions": "PFP\\FS",
  "ScanningSequence": "EP",
  "SequenceName": "epfid2d1_104",
  "SequenceVariant": "SK\\SS",
  "SeriesDescription": "cmrr_mbep2d_bold_2mm_MB8_Task_8x",
  "SeriesNumber": 17,
  "ShimSetting": [2106, -378, -7445, 330, 165, -610, -48, -61],
  "SliceThickness": 2,
  "SliceTiming": [0, 0.4375, 0.0875, 0.525, 0.175, 0.6125, 0.2625, 0.7, 0.35, 0, 0.4375, 0.0875, 0.525, 0.175, 0.6125, 0.2625, 0.7, 0.35, 0, 0.4375, 0.0875, 0.525, 0.175, 0.6125, 0.2625, 0.7, 0.35, 0, 0.4375, 0.0875, 0.525, 0.175, 0.6125, 0.2625, 0.7, 0.35, 0, 0.4375, 0.0875, 0.525, 0.175, 0.6125, 0.2625, 0.7, 0.35, 0, 0.4375, 0.0875, 0.525, 0.175, 0.6125, 0.2625, 0.7, 0.35, 0, 0.4375, 0.0875, 0.525, 0.175, 0.6125, 0.2625, 0.7, 0.35, 0, 0.4375, 0.0875, 0.525, 0.175, 0.6125, 0.2625, 0.7, 0.35],
  "SoftwareVersions": "syngo MR B19",
  "SpacingBetweenSlices": 2,
  "StationName": "MRC35450",
  "TaskName": "cpro",
  "TotalReadoutTime": 0.0710717,
  "TxRefAmp": 327.818,
  "dcmmeta_affine": [
    [-1.9999457597732544, -2.6240769557261956e-08, 0.01473156176507473, 104.90180206298828],
    [-0.004134681541472673, 1.9196107387542725, -0.5613178610801697, -66.14610290527344],
    [0.014139424078166485, 0.5613330602645874, 1.9195586442947388, -117.4531478881836],
    [0.0, 0.0, 0.0, 1.0]
],
  "dcmmeta_reorient_transform": [
    [0.0, -1.0, 0.0, 103.0],
    [1.0, 0.0, 0.0, 0.0],
    [0.0, 0.0, 1.0, 0.0],
    [0.0, 0.0, 0.0, 1.0]
],
  "dcmmeta_shape": [104, 104, 72, 581],
  "dcmmeta_slice_dim": 2,
  "dcmmeta_version": 0.6,
  "global": {
    "const": {
      "AcquisitionMatrix": [104, 0, 0, 104],
      "AngioFlag": "N",
      "BitsAllocated": 16,
      "BitsStored": 12,
      "Columns": 936,
      "EchoNumbers": 1,
      "EchoTime": 34.8,
      "EchoTrainLength": 1,
      "FlipAngle": 55.0,
      "HighBit": 11,
      "ImageOrientationPatient": [0.99997287226744, 0.00206734080563, 0.00706971224356, -1.3120385e-08, 0.95980534314461, -0.280666533935],
      "ImagePositionPatient": [-936.87921996812, -931.85186797455, 167.99671268859],
      "ImageType": [
        "ORIGINAL",
        "PRIMARY",
        "M",
        "MB",
        "ND",
        "MOSAIC"
],
      "ImagedNucleus": "1H",
      "ImagingFrequency": 123.23452,
      "InPlanePhaseEncodingDirection": "COL",
      "MRAcquisitionType": "2D",
      "MagneticFieldStrength": 3.0,
      "Manufacturer": "SIEMENS",
      "ManufacturerModelName": "TrioTim",
      "Modality": "MR",
      "NumberOfAverages": 1.0,
      "NumberOfPhaseEncodingSteps": 91,
      "PercentPhaseFieldOfView": 100.0,
      "PercentSampling": 100.0,
      "PerformedProcedureStepStartTime": "123910.390000",
      "PhotometricInterpretation": "MONOCHROME2",
      "PixelBandwidth": 1923.0,
      "PixelRepresentation": 0,
      "PixelSpacing": [2.0, 2.0],
      "ProtocolName": "cmrr_mbep2d_bold_2mm_MB8_Task_8x",
      "RepetitionTime": 785.0,
      "Rows": 936,
      "SAR": 0.13107531822232,
      "SamplesPerPixel": 1,
      "ScanOptions": [
        "PFP",
        "FS"
],
      "ScanningSequence": "EP",
      "SequenceName": "epfid2d1_104",
      "SequenceVariant": [
        "SK",
        "SS"
],
      "SeriesDescription": "cmrr_mbep2d_bold_2mm_MB8_Task_8x",
      "SeriesNumber": 17,
      "SeriesTime": "135655.953000",
      "SliceLocation": -93.391923451487,
      "SliceThickness": 2.0,
      "SmallestImagePixelValue": 0,
      "SoftwareVersions": "syngo MR B19",
      "SpacingBetweenSlices": 1.9999999977474,
      "SpecificCharacterSet": "ISO_IR 100",
      "StudyID": "1",
      "StudyTime": "123910.359000",
      "TransmitCoilName": "Body",
      "VariableFlipAngleFlag": "N",
      "WindowCenterWidthExplanation": "Algo1",
      "dBdt": 0.0},
    "slices": {}
  },
  "time": {
    "samples": {
      "AcquisitionNumber": [1, 2, 3, 4, 5, 6, 7, 8, 9, 10, 11, 12, 13, 14, 15, 16, 17, 18, 19, 20, 21, 22, 23, 24, 25, 26, 27, 28, 29, 30, 31, 32, 33, 34, 35, 36, 37, 38, 39, 40, 41, 42, 43, 44, 45, 46, 47, 48, 49, 50, 51, 52, 53, 54, 55, 56, 57, 58, 59, 60, 61, 62, 63, 64, 65, 66, 67, 68, 69, 70, 71, 72, 73, 74, 75, 76, 77, 78, 79, 80, 81, 82, 83, 84, 85, 86, 87, 88, 89, 90, 91, 92, 93, 94, 95, 96, 97, 98, 99, 100, 101, 102, 103, 104, 105, 106, 107, 108, 109, 110, 111, 112, 113, 114, 115, 116, 117, 118, 119, 120, 121, 122, 123, 124, 125, 126, 127, 128, 129, 130, 131, 132, 133, 134, 135, 136, 137, 138, 139, 140, 141, 142, 143, 144, 145, 146, 147, 148, 149, 150, 151, 152, 153, 154, 155, 156, 157, 158, 159, 160, 161, 162, 163, 164, 165, 166, 167, 168, 169, 170, 171, 172, 173, 174, 175, 176, 177, 178, 179, 180, 181, 182, 183, 184, 185, 186, 187, 188, 189, 190, 191, 192, 193, 194, 195, 196, 197, 198, 199, 200, 201, 202, 203, 204, 205, 206, 207, 208, 209, 210, 211, 212, 213, 214, 215, 216, 217, 218, 219, 220, 221, 222, 223, 224, 225, 226, 227, 228, 229, 230, 231, 232, 233, 234, 235, 236, 237, 238, 239, 240, 241, 242, 243, 244, 245, 246, 247, 248, 249, 250, 251, 252, 253, 254, 255, 256, 257, 258, 259, 260, 261, 262, 263, 264, 265, 266, 267, 268, 269, 270, 271, 272, 273, 274, 275, 276, 277, 278, 279, 280, 281, 282, 283, 284, 285, 286, 287, 288, 289, 290, 291, 292, 293, 294, 295, 296, 297, 298, 299, 300, 301, 302, 303, 304, 305, 306, 307, 308, 309, 310, 311, 312, 313, 314, 315, 316, 317, 318, 319, 320, 321, 322, 323, 324, 325, 326, 327, 328, 329, 330, 331, 332, 333, 334, 335, 336, 337, 338, 339, 340, 341, 342, 343, 344, 345, 346, 347, 348, 349, 350, 351, 352, 353, 354, 355, 356, 357, 358, 359, 360, 361, 362, 363, 364, 365, 366, 367, 368, 369, 370, 371, 372, 373, 374, 375, 376, 377, 378, 379, 380, 381, 382, 383, 384, 385, 386, 387, 388, 389, 390, 391, 392, 393, 394, 395, 396, 397, 398, 399, 400, 401, 402, 403, 404, 405, 406, 407, 408, 409, 410, 411, 412, 413, 414, 415, 416, 417, 418, 419, 420, 421, 422, 423, 424, 425, 426, 427, 428, 429, 430, 431, 432, 433, 434, 435, 436, 437, 438, 439, 440, 441, 442, 443, 444, 445, 446, 447, 448, 449, 450, 451, 452, 453, 454, 455, 456, 457, 458, 459, 460, 461, 462, 463, 464, 465, 466, 467, 468, 469, 470, 471, 472, 473, 474, 475, 476, 477, 478, 479, 480, 481, 482, 483, 484, 485, 486, 487, 488, 489, 490, 491, 492, 493, 494, 495, 496, 497, 498, 499, 500, 501, 502, 503, 504, 505, 506, 507, 508, 509, 510, 511, 512, 513, 514, 515, 516, 517, 518, 519, 520, 521, 522, 523, 524, 525, 526, 527, 528, 529, 530, 531, 532, 533, 534, 535, 536, 537, 538, 539, 540, 541, 542, 543, 544, 545, 546, 547, 548, 549, 550, 551, 552, 553, 554, 555, 556, 557, 558, 559, 560, 561, 562, 563, 564, 565, 566, 567, 568, 569, 570, 571, 572, 573, 574, 575, 576, 577, 578, 579, 580, 581],
      "AcquisitionTime": ["135630.722500", "135631.510000", "135632.300000", "135633.087500", "135633.875000", "135634.662500", "135635.452500", "135636.240000", "135637.027500", "135637.815000", "135638.605000", "135639.392500", "135640.180000", "135640.967500", "135641.757500", "135642.545000", "135643.332500", "135644.122500", "135644.910000", "135645.697500", "135646.485000", "135647.275000", "135648.062500", "135648.850000", "135649.637500", "135650.427500", "135651.215000", "135652.002500", "135652.790000", "135653.580000", "135654.367500", "135655.155000", "135655.942500", "135656.732500", "135657.520000", "135658.307500", "135659.097500", "135659.885000", "135700.672500", "135701.460000", "135702.250000", "135703.037500", "135703.825000", "135704.612500", "135705.402500", "135706.190000", "135706.977500", "135707.765000", "135708.555000", "135709.342500", "135710.130000", "135710.917500", "135711.707500", "135712.495000", "135713.282500", "135714.070000", "135714.860000", "135715.647500", "135716.435000", "135717.225000", "135718.012500", "135718.800000", "135719.587500", "135720.377500", "135721.165000", "135721.952500", "135722.740000", "135723.530000", "135724.317500", "135725.105000", "135725.892500", "135726.682500", "135727.470000", "135728.257500", "135729.045000", "135729.835000", "135730.622500", "135731.410000", "135732.197500", "135732.987500", "135733.775000", "135734.562500", "135735.352500", "135736.140000", "135736.927500", "135737.715000", "135738.505000", "135739.292500", "135740.080000", "135740.867500", "135741.657500", "135742.445000", "135743.232500", "135744.020000", "135744.810000", "135745.597500", "135746.385000", "135747.172500", "135747.962500", "135748.750000", "135749.537500", "135750.325000", "135751.115000", "135751.902500", "135752.690000", "135753.480000", "135754.267500", "135755.055000", "135755.842500", "135756.632500", "135757.420000", "135758.207500", "135758.995000", "135759.785000", "135800.572500", "135801.360000", "135802.147500", "135802.937500", "135803.725000", "135804.512500", "135805.300000", "135806.090000", "135806.877500", "135807.665000", "135808.452500", "135809.242500", "135810.030000", "135810.817500", "135811.607500", "135812.395000", "135813.182500", "135813.970000", "135814.760000", "135815.547500", "135816.335000", "135817.122500", "135817.912500", "135818.700000", "135819.487500", "135820.275000", "135821.065000", "135821.852500", "135822.640000", "135823.427500", "135824.217500", "135825.005000", "135825.792500", "135826.580000", "135827.370000", "135828.157500", "135828.945000", "135829.735000", "135830.522500", "135831.310000", "135832.097500", "135832.887500", "135833.675000", "135834.462500", "135835.250000", "135836.040000", "135836.827500", "135837.615000", "135838.402500", "135839.192500", "135839.980000", "135840.767500", "135841.555000", "135842.345000", "135843.132500", "135843.920000", "135844.707500", "135845.497500", "135846.285000", "135847.072500", "135847.862500", "135848.650000", "135849.437500", "135850.225000", "135851.015000", "135851.802500", "135852.590000", "135853.377500", "135854.167500", "135854.955000", "135855.742500", "135856.530000", "135857.320000", "135858.107500", "135858.895000", "135859.682500", "135900.472500", "135901.260000", "135902.047500", "135902.835000", "135903.625000", "135904.412500", "135905.200000", "135905.990000", "135906.777500", "135907.565000", "135908.352500", "135909.142500", "135909.930000", "135910.717500", "135911.505000", "135912.295000", "135913.082500", "135913.870000", "135914.657500", "135915.447500", "135916.235000", "135917.022500", "135917.810000", "135918.600000", "135919.387500", "135920.175000", "135920.962500", "135921.752500", "135922.540000", "135923.327500", "135924.117500", "135924.905000", "135925.692500", "135926.480000", "135927.270000", "135928.057500", "135928.845000", "135929.632500", "135930.422500", "135931.210000", "135931.997500", "135932.785000", "135933.575000", "135934.362500", "135935.150000", "135935.937500", "135936.727500", "135937.515000", "135938.302500", "135939.090000", "135939.880000", "135940.667500", "135941.455000", "135942.245000", "135943.032500", "135943.820000", "135944.607500", "135945.397500", "135946.185000", "135946.972500", "135947.760000", "135948.550000", "135949.337500", "135950.125000", "135950.912500", "135951.702500", "135952.490000", "135953.277500", "135954.065000", "135954.855000", "135955.642500", "135956.430000", "135957.217500", "135958.007500", "135958.795000", "135959.582500", "140000.372500", "140001.160000", "140001.947500", "140002.735000", "140003.525000", "140004.312500", "140005.100000", "140005.887500", "140006.677500", "140007.465000", "140008.252500", "140009.040000", "140009.830000", "140010.617500", "140011.405000", "140012.192500", "140012.982500", "140013.770000", "140014.557500", "140015.347500", "140016.135000", "140016.922500", "140017.710000", "140018.500000", "140019.287500", "140020.075000", "140020.862500", "140021.652500", "140022.440000", "140023.227500", "140024.015000", "140024.805000", "140025.592500", "140026.380000", "140027.167500", "140027.957500", "140028.745000", "140029.532500", "140030.320000", "140031.110000", "140031.897500", "140032.685000", "140033.475000", "140034.262500", "140035.050000", "140035.837500", "140036.627500", "140037.415000", "140038.202500", "140038.990000", "140039.780000", "140040.567500", "140041.355000", "140042.142500", "140042.932500", "140043.720000", "140044.507500", "140045.295000", "140046.085000", "140046.872500", "140047.660000", "140048.447500", "140049.237500", "140050.025000", "140050.812500", "140051.602500", "140052.390000", "140053.177500", "140053.965000", "140054.755000", "140055.542500", "140056.330000", "140057.117500", "140057.907500", "140058.695000", "140059.482500", "140100.270000", "140101.060000", "140101.847500", "140102.635000", "140103.422500", "140104.212500", "140105.000000", "140105.787500", "140106.575000", "140107.365000", "140108.152500", "140108.940000", "140109.730000", "140110.517500", "140111.305000", "140112.092500", "140112.882500", "140113.670000", "140114.457500", "140115.245000", "140116.035000", "140116.822500", "140117.610000", "140118.397500", "140119.187500", "140119.975000", "140120.762500", "140121.550000", "140122.340000", "140123.127500", "140123.915000", "140124.702500", "140125.492500", "140126.280000", "140127.067500", "140127.857500", "140128.645000", "140129.432500", "140130.220000", "140131.010000", "140131.797500", "140132.585000", "140133.372500", "140134.162500", "140134.950000", "140135.737500", "140136.525000", "140137.315000", "140138.102500", "140138.890000", "140139.677500", "140140.467500", "140141.255000", "140142.042500", "140142.830000", "140143.620000", "140144.407500", "140145.195000", "140145.985000", "140146.772500", "140147.560000", "140148.347500", "140149.137500", "140149.925000", "140150.712500", "140151.500000", "140152.290000", "140153.077500", "140153.865000", "140154.652500", "140155.442500", "140156.230000", "140157.017500", "140157.805000", "140158.595000", "140159.382500", "140200.170000", "140200.957500", "140201.747500", "140202.535000", "140203.322500", "140204.112500", "140204.900000", "140205.687500", "140206.475000", "140207.265000", "140208.052500", "140208.840000", "140209.627500", "140210.417500", "140211.205000", "140211.992500", "140212.780000", "140213.570000", "140214.357500", "140215.145000", "140215.932500", "140216.722500", "140217.510000", "140218.297500", "140219.085000", "140219.875000", "140220.662500", "140221.450000", "140222.240000", "140223.027500", "140223.815000", "140224.602500", "140225.392500", "140226.180000", "140226.967500", "140227.755000", "140228.545000", "140229.332500", "140230.120000", "140230.907500", "140231.697500", "140232.485000", "140233.272500", "140234.060000", "140234.850000", "140235.637500", "140236.425000", "140237.212500", "140238.002500", "140238.790000", "140239.577500", "140240.367500", "140241.155000", "140241.942500", "140242.730000", "140243.520000", "140244.307500", "140245.095000", "140245.882500", "140246.672500", "140247.460000", "140248.247500", "140249.035000", "140249.825000", "140250.612500", "140251.400000", "140252.187500", "140252.977500", "140253.765000", "140254.552500", "140255.340000", "140256.130000", "140256.917500", "140257.705000", "140258.495000", "140259.282500", "140300.070000", "140300.857500", "140301.647500", "140302.435000", "140303.222500", "140304.010000", "140304.800000", "140305.587500", "140306.375000", "140307.162500", "140307.952500", "140308.740000", "140309.527500", "140310.315000", "140311.105000", "140311.892500", "140312.680000", "140313.467500", "140314.257500", "140315.045000", "140315.832500", "140316.622500", "140317.410000", "140318.197500", "140318.985000", "140319.775000", "140320.562500", "140321.350000", "140322.137500", "140322.927500", "140323.715000", "140324.502500", "140325.290000", "140326.080000", "140326.867500", "140327.655000", "140328.442500", "140329.232500", "140330.020000", "140330.807500", "140331.597500", "140332.385000", "140333.172500", "140333.960000", "140334.750000", "140335.537500", "140336.325000", "140337.112500", "140337.902500", "140338.690000", "140339.477500", "140340.265000", "140341.055000", "140341.842500", "140342.630000", "140343.417500", "140344.207500", "140344.995000", "140345.782500", "140346.570000", "140347.360000", "140348.147500", "140348.935000", "140349.725000", "140350.512500", "140351.300000", "140352.087500", "140352.877500", "140353.665000", "140354.452500", "140355.240000", "140356.030000", "140356.817500", "140357.605000", "140358.392500", "140359.182500", "140359.970000", "140400.757500", "140401.545000", "140402.335000", "140403.122500", "140403.910000", "140404.697500", "140405.487500", "140406.275000", "140407.062500", "140407.852500"],
      "ContentTime": ["135655.953000", "135655.953000", "135655.953000", "135655.953000", "135655.953000", "135655.968000", "135655.968000", "135655.968000", "135655.968000", "135655.968000", "135655.968000", "135655.968000", "135655.984000", "135655.984000", "135655.984000", "135655.984000", "135655.984000", "135655.984000", "135655.984000", "135656.000000", "135656.000000", "135656.000000", "135656.000000", "135656.000000", "135656.000000", "135656.000000", "135656.015000", "135656.015000", "135656.015000", "135715.921000", "135715.921000", "135715.921000", "135715.921000", "135715.937000", "135715.937000", "135715.937000", "135715.937000", "135715.937000", "135715.937000", "135715.937000", "135715.953000", "135715.953000", "135715.953000", "135715.953000", "135715.953000", "135715.953000", "135715.953000", "135715.968000", "135715.968000", "135715.968000", "135715.968000", "135715.968000", "135715.984000", "135715.984000", "135715.984000", "135735.921000", "135735.921000", "135735.921000", "135735.921000", "135735.937000", "135735.937000", "135735.937000", "135735.937000", "135735.937000", "135735.937000", "135735.937000", "135735.953000", "135735.953000", "135735.953000", "135735.953000", "135735.953000", "135735.953000", "135735.953000", "135735.968000", "135735.968000", "135735.968000", "135735.968000", "135735.968000", "135735.968000", "135735.984000", "135755.921000", "135755.921000", "135755.921000", "135755.921000", "135755.937000", "135755.937000", "135755.937000", "135755.937000", "135755.937000", "135755.937000", "135755.953000", "135755.953000", "135755.953000", "135755.953000", "135755.953000", "135755.953000", "135755.953000", "135755.968000", "135755.968000", "135755.968000", "135755.968000", "135755.968000", "135755.968000", "135755.984000", "135755.984000", "135755.984000", "135815.921000", "135815.921000", "135815.921000", "135815.921000", "135815.937000", "135815.937000", "135815.937000", "135815.937000", "135815.937000", "135815.937000", "135815.937000", "135815.953000", "135815.953000", "135815.953000", "135815.953000", "135815.953000", "135815.953000", "135815.968000", "135815.968000", "135815.968000", "135815.968000", "135815.968000", "135815.968000", "135815.968000", "135815.984000", "135835.921000", "135835.921000", "135835.921000", "135835.921000", "135835.937000", "135835.937000", "135835.937000", "135835.937000", "135835.937000", "135835.937000", "135835.937000", "135835.953000", "135835.953000", "135835.953000", "135835.953000", "135835.953000", "135835.953000", "135835.953000", "135835.968000", "135835.968000", "135835.968000", "135835.968000", "135835.968000", "135835.984000", "135835.984000", "135835.984000", "135855.921000", "135855.921000", "135855.921000", "135855.921000", "135855.937000", "135855.937000", "135855.937000", "135855.937000", "135855.937000", "135855.937000", "135855.937000", "135855.953000", "135855.953000", "135855.953000", "135855.953000", "135855.953000", "135855.953000", "135855.953000", "135855.968000", "135855.968000", "135855.968000", "135855.968000", "135855.968000", "135855.968000", "135855.968000", "135915.921000", "135915.921000", "135915.921000", "135915.921000", "135915.937000", "135915.937000", "135915.937000", "135915.937000", "135915.937000", "135915.937000", "135915.953000", "135915.953000", "135915.953000", "135915.953000", "135915.953000", "135915.953000", "135915.953000", "135915.968000", "135915.968000", "135915.968000", "135915.968000", "135915.968000", "135915.968000", "135915.968000", "135915.984000", "135915.984000", "135935.921000", "135935.921000", "135935.921000", "135935.937000", "135935.937000", "135935.937000", "135935.937000", "135935.937000", "135935.937000", "135935.953000", "135935.953000", "135935.953000", "135935.953000", "135935.953000", "135935.953000", "135935.953000", "135935.968000", "135935.968000", "135935.968000", "135935.968000", "135935.968000", "135935.968000", "135935.968000", "135935.984000", "135935.984000", "135955.921000", "135955.921000", "135955.921000", "135955.921000", "135955.937000", "135955.937000", "135955.937000", "135955.937000", "135955.937000", "135955.937000", "135955.937000", "135955.953000", "135955.953000", "135955.953000", "135955.953000", "135955.953000", "135955.953000", "135955.953000", "135955.968000", "135955.968000", "135955.968000", "135955.968000", "135955.968000", "135955.968000", "135955.968000", "135955.984000", "140015.921000", "140015.921000", "140015.921000", "140015.921000", "140015.937000", "140015.937000", "140015.937000", "140015.937000", "140015.937000", "140015.937000", "140015.937000", "140015.953000", "140015.953000", "140015.953000", "140015.953000", "140015.953000", "140015.953000", "140015.953000", "140015.968000", "140015.968000", "140015.968000", "140015.968000", "140015.968000", "140015.984000", "140015.984000", "140035.921000", "140035.921000", "140035.921000", "140035.921000", "140035.937000", "140035.937000", "140035.937000", "140035.937000", "140035.937000", "140035.937000", "140035.937000", "140035.953000", "140035.953000", "140035.953000", "140035.953000", "140035.953000", "140035.953000", "140035.968000", "140035.968000", "140035.968000", "140035.968000", "140035.968000", "140035.968000", "140035.968000", "140035.984000", "140035.984000", "140055.921000", "140055.921000", "140055.921000", "140055.921000", "140055.937000", "140055.937000", "140055.937000", "140055.937000", "140055.937000", "140055.937000", "140055.937000", "140055.953000", "140055.953000", "140055.953000", "140055.953000", "140055.953000", "140055.953000", "140055.968000", "140055.968000", "140055.968000", "140055.968000", "140055.968000", "140055.968000", "140055.968000", "140055.984000", "140115.921000", "140115.921000", "140115.921000", "140115.921000", "140115.937000", "140115.937000", "140115.937000", "140115.937000", "140115.937000", "140115.937000", "140115.937000", "140115.953000", "140115.953000", "140115.953000", "140115.953000", "140115.953000", "140115.953000", "140115.953000", "140115.968000", "140115.968000", "140115.968000", "140115.968000", "140115.968000", "140115.984000", "140115.984000", "140115.984000", "140135.921000", "140135.921000", "140135.921000", "140135.921000", "140135.937000", "140135.937000", "140135.937000", "140135.937000", "140135.937000", "140135.937000", "140135.937000", "140135.953000", "140135.953000", "140135.953000", "140135.953000", "140135.953000", "140135.953000", "140135.953000", "140135.968000", "140135.968000", "140135.968000", "140135.968000", "140135.984000", "140135.984000", "140135.984000", "140155.921000", "140155.921000", "140155.921000", "140155.921000", "140155.937000", "140155.937000", "140155.937000", "140155.937000", "140155.937000", "140155.937000", "140155.937000", "140155.953000", "140155.953000", "140155.953000", "140155.953000", "140155.953000", "140155.953000", "140155.953000", "140155.968000", "140155.968000", "140155.968000", "140155.968000", "140155.968000", "140155.984000", "140155.984000", "140215.921000", "140215.921000", "140215.921000", "140215.921000", "140215.937000", "140215.937000", "140215.937000", "140215.937000", "140215.937000", "140215.937000", "140215.953000", "140215.953000", "140215.953000", "140215.953000", "140215.953000", "140215.953000", "140215.968000", "140215.968000", "140215.968000", "140215.968000", "140215.968000", "140215.968000", "140215.968000", "140215.984000", "140215.984000", "140215.984000", "140235.921000", "140235.921000", "140235.921000", "140235.921000", "140235.937000", "140235.937000", "140235.937000", "140235.937000", "140235.953000", "140235.953000", "140235.953000", "140235.953000", "140235.953000", "140235.953000", "140235.953000", "140235.968000", "140235.968000", "140235.968000", "140235.968000", "140235.968000", "140235.968000", "140235.968000", "140235.984000", "140235.984000", "140235.984000", "140255.921000", "140255.921000", "140255.921000", "140255.921000", "140255.937000", "140255.937000", "140255.937000", "140255.937000", "140255.937000", "140255.937000", "140255.937000", "140255.953000", "140255.953000", "140255.953000", "140255.953000", "140255.953000", "140255.953000", "140255.953000", "140255.968000", "140255.968000", "140255.968000", "140255.968000", "140255.968000", "140255.968000", "140255.968000", "140255.984000", "140315.921000", "140315.921000", "140315.921000", "140315.921000", "140315.937000", "140315.937000", "140315.937000", "140315.937000", "140315.937000", "140315.953000", "140315.953000", "140315.953000", "140315.953000", "140315.953000", "140315.953000", "140315.968000", "140315.968000", "140315.968000", "140315.968000", "140315.968000", "140315.968000", "140315.984000", "140315.984000", "140315.984000", "140315.984000", "140335.921000", "140335.921000", "140335.921000", "140335.921000", "140335.937000", "140335.937000", "140335.937000", "140335.937000", "140335.937000", "140335.937000", "140335.937000", "140335.953000", "140335.953000", "140335.953000", "140335.953000", "140335.953000", "140335.953000", "140335.953000", "140335.968000", "140335.968000", "140335.968000", "140335.968000", "140335.968000", "140335.984000", "140335.984000", "140335.984000", "140355.921000", "140355.921000", "140355.921000", "140355.921000", "140355.937000", "140355.937000", "140355.937000", "140355.937000", "140355.937000", "140355.937000", "140355.937000", "140355.953000", "140355.953000", "140355.953000", "140355.953000", "140355.953000", "140355.953000", "140355.968000", "140355.968000", "140355.968000", "140355.968000", "140355.968000", "140355.968000", "140355.968000", "140355.984000", "140408.703000", "140408.703000", "140408.703000", "140408.703000", "140408.703000", "140408.718000", "140408.718000", "140408.718000", "140408.718000", "140408.718000", "140408.718000", "140408.718000", "140408.734000", "140408.734000", "140408.734000", "140408.734000", "140408.734000"],
