{
  "AcquisitionMatrixPE": 104,
  "AcquisitionNumber": 1,
  "AcquisitionTime": "17:02:32.750000",
  "BandwidthPerPixelPhaseEncode": 13.935,
  "BaseResolution": 104,
  "CoilString": "C:HEA;HEP",
  "ConversionSoftware": "dcm2niix",
  "ConversionSoftwareVersion": "v1.0.20210317",
  "DerivedVendorReportedEchoSpacing": 0.000690017,
  "DeviceSerialNumber": "35450",
  "DwellTime": 2.5e-06,
  "EchoTime": 0.0348,
  "EffectiveEchoSpacing": 0.000690017,
  "FlipAngle": 55,
  "ImageComments": "Unaliased MB8/PE3 (remote)",
  "ImageOrientationPatientDICOM": [1, 0, 0, 0, 0.997185, -0.0749787],
  "ImageType": [
    "ORIGINAL",
    "PRIMARY",
    "M",
    "MB",
    "ND",
    "MOSAIC"
],
  "ImagingFrequency": 123.235,
  "InPlanePhaseEncodingDirectionDICOM": "COL",
  "InstitutionAddress": "Univeristy Ave. 197,Newark,North East,US,07102-1814",
  "InstitutionName": "RUBIC",
  "InstitutionalDepartmentName": "Department",
  "MRAcquisitionType": "2D",
  "MagneticFieldStrength": 3,
  "Manufacturer": "Siemens",
  "ManufacturersModelName": "TrioTim",
  "Modality": "MR",
  "MultibandAccelerationFactor": 8,
  "PartialFourier": 0.875,
  "PatientPosition": "HFS",
  "PercentPhaseFOV": 100,
  "PercentSampling": 100,
  "PhaseEncodingDirection": "j-",
  "PhaseEncodingSteps": 91,
  "PhaseResolution": 1,
  "PixelBandwidth": 1923,
  "ProcedureStepDescription": "Cole^Michael",
  "ProtocolName": "cmrr_mbep2d_bold_2mm_MB8_Task_8x",
  "PulseSequenceDetails": "%CustomerSeq%\\cmrr_mbep2d_bold",
  "ReceiveCoilName": "32Ch_Head",
  "ReconMatrixPE": 104,
  "RepetitionTime": 0.785,
  "SAR": 0.13314,
  "ScanOptions": "PFP\\FS",
  "ScanningSequence": "EP",
  "SequenceName": "epfid2d1_104",
  "SequenceVariant": "SK\\SS",
  "SeriesDescription": "cmrr_mbep2d_bold_2mm_MB8_Task_8x",
  "SeriesNumber": 25,
  "ShimSetting": [2078, -355, -7378, 494, -16, 134, 85, 92],
  "SliceThickness": 2,
  "SliceTiming": [0, 0.4375, 0.0875, 0.525, 0.175, 0.6125, 0.2625, 0.7, 0.35, 0, 0.4375, 0.0875, 0.525, 0.175, 0.6125, 0.2625, 0.7, 0.35, 0, 0.4375, 0.0875, 0.525, 0.175, 0.6125, 0.2625, 0.7, 0.35, 0, 0.4375, 0.0875, 0.525, 0.175, 0.6125, 0.2625, 0.7, 0.35, 0, 0.4375, 0.0875, 0.525, 0.175, 0.6125, 0.2625, 0.7, 0.35, 0, 0.4375, 0.0875, 0.525, 0.175, 0.6125, 0.2625, 0.7, 0.35, 0, 0.4375, 0.0875, 0.525, 0.175, 0.6125, 0.2625, 0.7, 0.35, 0, 0.4375, 0.0875, 0.525, 0.175, 0.6125, 0.2625, 0.7, 0.35],
  "SoftwareVersions": "syngo MR B19",
  "SpacingBetweenSlices": 2,
  "StationName": "MRC35450",
  "TaskName": "cpro",
  "TotalReadoutTime": 0.0710717,
  "TxRefAmp": 324.938,
  "dcmmeta_affine": [
    [-2.0, 0.0, 0.0, 105.3559341430664],
    [0.0, 1.9943702220916748, -0.14995744824409485, -71.33765411376953],
    [0.0, 0.14995744824409485, 1.9943702220916748, -97.89212799072266],
    [0.0, 0.0, 0.0, 1.0]
],
  "dcmmeta_reorient_transform": [
    [0.0, -1.0, 0.0, 103.0],
    [1.0, 0.0, 0.0, 0.0],
    [0.0, 0.0, 1.0, 0.0],
    [0.0, 0.0, 0.0, 1.0]
],
  "dcmmeta_shape": [104, 104, 72, 581],
  "dcmmeta_slice_dim": 2,
  "dcmmeta_version": 0.6,
  "global": {
    "const": {
      "AcquisitionMatrix": [104, 0, 0, 104],
      "AngioFlag": "N",
      "BitsAllocated": 16,
      "BitsStored": 12,
      "Columns": 936,
      "EchoNumbers": 1,
      "EchoTime": 34.8,
      "EchoTrainLength": 1,
      "FlipAngle": 55.0,
      "HighBit": 11,
      "ImageOrientationPatient": [1.0, 0.0, 0.0, 0.0, 0.99718513348179, -0.0749787274025],
      "ImagePositionPatient": [-937.35593223572, -963.74051191344, -20.064211993505],
      "ImageType": [
        "ORIGINAL",
        "PRIMARY",
        "M",
        "MB",
        "ND",
        "MOSAIC"
],
      "ImagedNucleus": "1H",
      "ImagingFrequency": 123.234511,
      "InPlanePhaseEncodingDirection": "COL",
      "MRAcquisitionType": "2D",
      "MagneticFieldStrength": 3.0,
      "Manufacturer": "SIEMENS",
      "ManufacturerModelName": "TrioTim",
      "Modality": "MR",
      "NumberOfAverages": 1.0,
      "NumberOfPhaseEncodingSteps": 91,
      "PercentPhaseFieldOfView": 100.0,
      "PercentSampling": 100.0,
      "PerformedProcedureStepStartTime": "150854.796000",
      "PhotometricInterpretation": "MONOCHROME2",
      "PixelBandwidth": 1923.0,
      "PixelRepresentation": 0,
      "PixelSpacing": [2.0, 2.0],
      "ProtocolName": "cmrr_mbep2d_bold_2mm_MB8_Task_8x",
      "RepetitionTime": 785.0,
      "Rows": 936,
      "SAR": 0.13314031572677,
      "SamplesPerPixel": 1,
      "ScanOptions": [
        "PFP",
        "FS"
],
      "ScanningSequence": "EP",
      "SequenceName": "epfid2d1_104",
      "SequenceVariant": [
        "SK",
        "SS"
],
      "SeriesDescription": "cmrr_mbep2d_bold_2mm_MB8_Task_8x",
      "SeriesNumber": 25,
      "SeriesTime": "170304.859000",
      "SliceLocation": -92.267771044495,
      "SliceThickness": 2.0,
      "SmallestImagePixelValue": 0,
      "SoftwareVersions": "syngo MR B19",
      "SpacingBetweenSlices": 1.9999999931387,
      "SpecificCharacterSet": "ISO_IR 100",
      "StudyID": "1",
      "StudyTime": "150854.718000",
      "TransmitCoilName": "Body",
      "VariableFlipAngleFlag": "N",
      "WindowCenterWidthExplanation": "Algo1",
      "dBdt": 0.0},
    "slices": {}
  },
  "time": {
    "samples": {
      "AcquisitionNumber": [1, 2, 3, 4, 5, 6, 7, 8, 9, 10, 11, 12, 13, 14, 15, 16, 17, 18, 19, 20, 21, 22, 23, 24, 25, 26, 27, 28, 29, 30, 31, 32, 33, 34, 35, 36, 37, 38, 39, 40, 41, 42, 43, 44, 45, 46, 47, 48, 49, 50, 51, 52, 53, 54, 55, 56, 57, 58, 59, 60, 61, 62, 63, 64, 65, 66, 67, 68, 69, 70, 71, 72, 73, 74, 75, 76, 77, 78, 79, 80, 81, 82, 83, 84, 85, 86, 87, 88, 89, 90, 91, 92, 93, 94, 95, 96, 97, 98, 99, 100, 101, 102, 103, 104, 105, 106, 107, 108, 109, 110, 111, 112, 113, 114, 115, 116, 117, 118, 119, 120, 121, 122, 123, 124, 125, 126, 127, 128, 129, 130, 131, 132, 133, 134, 135, 136, 137, 138, 139, 140, 141, 142, 143, 144, 145, 146, 147, 148, 149, 150, 151, 152, 153, 154, 155, 156, 157, 158, 159, 160, 161, 162, 163, 164, 165, 166, 167, 168, 169, 170, 171, 172, 173, 174, 175, 176, 177, 178, 179, 180, 181, 182, 183, 184, 185, 186, 187, 188, 189, 190, 191, 192, 193, 194, 195, 196, 197, 198, 199, 200, 201, 202, 203, 204, 205, 206, 207, 208, 209, 210, 211, 212, 213, 214, 215, 216, 217, 218, 219, 220, 221, 222, 223, 224, 225, 226, 227, 228, 229, 230, 231, 232, 233, 234, 235, 236, 237, 238, 239, 240, 241, 242, 243, 244, 245, 246, 247, 248, 249, 250, 251, 252, 253, 254, 255, 256, 257, 258, 259, 260, 261, 262, 263, 264, 265, 266, 267, 268, 269, 270, 271, 272, 273, 274, 275, 276, 277, 278, 279, 280, 281, 282, 283, 284, 285, 286, 287, 288, 289, 290, 291, 292, 293, 294, 295, 296, 297, 298, 299, 300, 301, 302, 303, 304, 305, 306, 307, 308, 309, 310, 311, 312, 313, 314, 315, 316, 317, 318, 319, 320, 321, 322, 323, 324, 325, 326, 327, 328, 329, 330, 331, 332, 333, 334, 335, 336, 337, 338, 339, 340, 341, 342, 343, 344, 345, 346, 347, 348, 349, 350, 351, 352, 353, 354, 355, 356, 357, 358, 359, 360, 361, 362, 363, 364, 365, 366, 367, 368, 369, 370, 371, 372, 373, 374, 375, 376, 377, 378, 379, 380, 381, 382, 383, 384, 385, 386, 387, 388, 389, 390, 391, 392, 393, 394, 395, 396, 397, 398, 399, 400, 401, 402, 403, 404, 405, 406, 407, 408, 409, 410, 411, 412, 413, 414, 415, 416, 417, 418, 419, 420, 421, 422, 423, 424, 425, 426, 427, 428, 429, 430, 431, 432, 433, 434, 435, 436, 437, 438, 439, 440, 441, 442, 443, 444, 445, 446, 447, 448, 449, 450, 451, 452, 453, 454, 455, 456, 457, 458, 459, 460, 461, 462, 463, 464, 465, 466, 467, 468, 469, 470, 471, 472, 473, 474, 475, 476, 477, 478, 479, 480, 481, 482, 483, 484, 485, 486, 487, 488, 489, 490, 491, 492, 493, 494, 495, 496, 497, 498, 499, 500, 501, 502, 503, 504, 505, 506, 507, 508, 509, 510, 511, 512, 513, 514, 515, 516, 517, 518, 519, 520, 521, 522, 523, 524, 525, 526, 527, 528, 529, 530, 531, 532, 533, 534, 535, 536, 537, 538, 539, 540, 541, 542, 543, 544, 545, 546, 547, 548, 549, 550, 551, 552, 553, 554, 555, 556, 557, 558, 559, 560, 561, 562, 563, 564, 565, 566, 567, 568, 569, 570, 571, 572, 573, 574, 575, 576, 577, 578, 579, 580, 581],
      "AcquisitionTime": ["170232.750000", "170233.537500", "170234.327500", "170235.115000", "170235.902500", "170236.690000", "170237.480000", "170238.267500", "170239.055000", "170239.842500", "170240.632500", "170241.420000", "170242.207500", "170242.997500", "170243.785000", "170244.572500", "170245.360000", "170246.150000", "170246.937500", "170247.725000", "170248.512500", "170249.302500", "170250.090000", "170250.877500", "170251.665000", "170252.455000", "170253.242500", "170254.030000", "170254.817500", "170255.607500", "170256.395000", "170257.182500", "170257.970000", "170258.760000", "170259.547500", "170300.335000", "170301.125000", "170301.912500", "170302.700000", "170303.487500", "170304.277500", "170305.065000", "170305.852500", "170306.640000", "170307.430000", "170308.217500", "170309.005000", "170309.792500", "170310.582500", "170311.370000", "170312.157500", "170312.945000", "170313.735000", "170314.522500", "170315.310000", "170316.097500", "170316.887500", "170317.675000", "170318.462500", "170319.252500", "170320.040000", "170320.827500", "170321.615000", "170322.405000", "170323.192500", "170323.980000", "170324.767500", "170325.557500", "170326.345000", "170327.132500", "170327.920000", "170328.710000", "170329.497500", "170330.285000", "170331.072500", "170331.862500", "170332.650000", "170333.437500", "170334.225000", "170335.015000", "170335.802500", "170336.590000", "170337.380000", "170338.167500", "170338.955000", "170339.742500", "170340.532500", "170341.320000", "170342.107500", "170342.895000", "170343.685000", "170344.472500", "170345.260000", "170346.047500", "170346.837500", "170347.625000", "170348.412500", "170349.200000", "170349.990000", "170350.777500", "170351.565000", "170352.352500", "170353.142500", "170353.930000", "170354.717500", "170355.507500", "170356.295000", "170357.082500", "170357.870000", "170358.660000", "170359.447500", "170400.235000", "170401.022500", "170401.812500", "170402.600000", "170403.387500", "170404.175000", "170404.965000", "170405.752500", "170406.540000", "170407.327500", "170408.117500", "170408.905000", "170409.692500", "170410.480000", "170411.270000", "170412.057500", "170412.845000", "170413.635000", "170414.422500", "170415.210000", "170415.997500", "170416.787500", "170417.575000", "170418.362500", "170419.150000", "170419.940000", "170420.727500", "170421.515000", "170422.302500", "170423.092500", "170423.880000", "170424.667500", "170425.455000", "170426.245000", "170427.032500", "170427.820000", "170428.607500", "170429.397500", "170430.185000", "170430.972500", "170431.762500", "170432.550000", "170433.337500", "170434.125000", "170434.915000", "170435.702500", "170436.490000", "170437.277500", "170438.067500", "170438.855000", "170439.642500", "170440.430000", "170441.220000", "170442.007500", "170442.795000", "170443.582500", "170444.372500", "170445.160000", "170445.947500", "170446.735000", "170447.525000", "170448.312500", "170449.100000", "170449.890000", "170450.677500", "170451.465000", "170452.252500", "170453.042500", "170453.830000", "170454.617500", "170455.405000", "170456.195000", "170456.982500", "170457.770000", "170458.557500", "170459.347500", "170500.135000", "170500.922500", "170501.710000", "170502.500000", "170503.287500", "170504.075000", "170504.862500", "170505.652500", "170506.440000", "170507.227500", "170508.017500", "170508.805000", "170509.592500", "170510.380000", "170511.170000", "170511.957500", "170512.745000", "170513.532500", "170514.322500", "170515.110000", "170515.897500", "170516.685000", "170517.475000", "170518.262500", "170519.050000", "170519.837500", "170520.627500", "170521.415000", "170522.202500", "170522.992500", "170523.780000", "170524.567500", "170525.355000", "170526.145000", "170526.932500", "170527.720000", "170528.507500", "170529.297500", "170530.085000", "170530.872500", "170531.660000", "170532.450000", "170533.237500", "170534.025000", "170534.812500", "170535.602500", "170536.390000", "170537.177500", "170537.965000", "170538.755000", "170539.542500", "170540.330000", "170541.120000", "170541.907500", "170542.695000", "170543.482500", "170544.272500", "170545.060000", "170545.847500", "170546.635000", "170547.425000", "170548.212500", "170549.000000", "170549.787500", "170550.577500", "170551.365000", "170552.152500", "170552.940000", "170553.730000", "170554.517500", "170555.305000", "170556.092500", "170556.882500", "170557.670000", "170558.457500", "170559.247500", "170600.035000", "170600.822500", "170601.610000", "170602.400000", "170603.187500", "170603.975000", "170604.762500", "170605.552500", "170606.340000", "170607.127500", "170607.915000", "170608.705000", "170609.492500", "170610.280000", "170611.067500", "170611.857500", "170612.645000", "170613.432500", "170614.220000", "170615.010000", "170615.797500", "170616.585000", "170617.375000", "170618.162500", "170618.950000", "170619.737500", "170620.527500", "170621.315000", "170622.102500", "170622.890000", "170623.680000", "170624.467500", "170625.255000", "170626.042500", "170626.832500", "170627.620000", "170628.407500", "170629.195000", "170629.985000", "170630.772500", "170631.560000", "170632.347500", "170633.137500", "170633.925000", "170634.712500", "170635.502500", "170636.290000", "170637.077500", "170637.865000", "170638.655000", "170639.442500", "170640.230000", "170641.017500", "170641.807500", "170642.595000", "170643.382500", "170644.170000", "170644.960000", "170645.747500", "170646.535000", "170647.322500", "170648.112500", "170648.900000", "170649.687500", "170650.475000", "170651.265000", "170652.052500", "170652.840000", "170653.630000", "170654.417500", "170655.205000", "170655.992500", "170656.782500", "170657.570000", "170658.357500", "170659.145000", "170659.935000", "170700.722500", "170701.510000", "170702.297500", "170703.087500", "170703.875000", "170704.662500", "170705.450000", "170706.240000", "170707.027500", "170707.815000", "170708.602500", "170709.392500", "170710.180000", "170710.967500", "170711.757500", "170712.545000", "170713.332500", "170714.120000", "170714.910000", "170715.697500", "170716.485000", "170717.272500", "170718.062500", "170718.850000", "170719.637500", "170720.425000", "170721.215000", "170722.002500", "170722.790000", "170723.577500", "170724.367500", "170725.155000", "170725.942500", "170726.730000", "170727.520000", "170728.307500", "170729.095000", "170729.885000", "170730.672500", "170731.460000", "170732.247500", "170733.037500", "170733.825000", "170734.612500", "170735.400000", "170736.190000", "170736.977500", "170737.765000", "170738.552500", "170739.342500", "170740.130000", "170740.917500", "170741.705000", "170742.495000", "170743.282500", "170744.070000", "170744.857500", "170745.647500", "170746.435000", "170747.222500", "170748.012500", "170748.800000", "170749.587500", "170750.375000", "170751.165000", "170751.952500", "170752.740000", "170753.527500", "170754.317500", "170755.105000", "170755.892500", "170756.680000", "170757.470000", "170758.257500", "170759.045000", "170759.832500", "170800.622500", "170801.410000", "170802.197500", "170802.985000", "170803.775000", "170804.562500", "170805.350000", "170806.140000", "170806.927500", "170807.715000", "170808.502500", "170809.292500", "170810.080000", "170810.867500", "170811.655000", "170812.445000", "170813.232500", "170814.020000", "170814.807500", "170815.597500", "170816.385000", "170817.172500", "170817.960000", "170818.750000", "170819.537500", "170820.325000", "170821.112500", "170821.902500", "170822.690000", "170823.477500", "170824.267500", "170825.055000", "170825.842500", "170826.630000", "170827.420000", "170828.207500", "170828.995000", "170829.782500", "170830.572500", "170831.360000", "170832.147500", "170832.935000", "170833.725000", "170834.512500", "170835.300000", "170836.087500", "170836.877500", "170837.665000", "170838.452500", "170839.242500", "170840.030000", "170840.817500", "170841.605000", "170842.395000", "170843.182500", "170843.970000", "170844.757500", "170845.547500", "170846.335000", "170847.122500", "170847.910000", "170848.700000", "170849.487500", "170850.275000", "170851.062500", "170851.852500", "170852.640000", "170853.427500", "170854.215000", "170855.005000", "170855.792500", "170856.580000", "170857.370000", "170858.157500", "170858.945000", "170859.732500", "170900.522500", "170901.310000", "170902.097500", "170902.885000", "170903.675000", "170904.462500", "170905.250000", "170906.037500", "170906.827500", "170907.615000", "170908.402500", "170909.190000", "170909.980000", "170910.767500", "170911.555000", "170912.342500", "170913.132500", "170913.920000", "170914.707500", "170915.497500", "170916.285000", "170917.072500", "170917.860000", "170918.650000", "170919.437500", "170920.225000", "170921.012500", "170921.802500", "170922.590000", "170923.377500", "170924.165000", "170924.955000", "170925.742500", "170926.530000", "170927.317500", "170928.107500", "170928.895000", "170929.682500", "170930.470000", "170931.260000", "170932.047500", "170932.835000", "170933.625000", "170934.412500", "170935.200000", "170935.987500", "170936.777500", "170937.565000", "170938.352500", "170939.140000", "170939.930000", "170940.717500", "170941.505000", "170942.292500", "170943.082500", "170943.870000", "170944.657500", "170945.445000", "170946.235000", "170947.022500", "170947.810000", "170948.597500", "170949.387500", "170950.175000", "170950.962500", "170951.752500", "170952.540000", "170953.327500", "170954.115000", "170954.905000", "170955.692500", "170956.480000", "170957.267500", "170958.057500", "170958.845000", "170959.632500", "171000.420000", "171001.210000", "171001.997500", "171002.785000", "171003.572500", "171004.362500", "171005.150000", "171005.937500", "171006.725000", "171007.515000", "171008.302500", "171009.090000", "171009.880000"],
      "ContentTime": ["170304.859000", "170304.859000", "170304.875000", "170304.875000", "170304.875000", "170304.875000", "170304.875000", "170304.875000", "170304.875000", "170304.890000", "170304.890000", "170304.890000", "170304.890000", "170304.890000", "170304.906000", "170304.906000", "170304.906000", "170304.906000", "170304.906000", "170304.906000", "170304.921000", "170304.921000", "170304.921000", "170304.921000", "170304.921000", "170304.937000", "170304.937000", "170304.937000", "170304.937000", "170304.937000", "170304.937000", "170304.937000", "170304.953000", "170304.953000", "170304.953000", "170304.953000", "170304.953000", "170304.953000", "170324.843000", "170324.843000", "170324.843000", "170324.843000", "170324.859000", "170324.859000", "170324.859000", "170324.859000", "170324.859000", "170324.859000", "170324.875000", "170324.875000", "170324.875000", "170324.875000", "170324.875000", "170324.875000", "170324.875000", "170324.890000", "170324.890000", "170324.890000", "170324.890000", "170324.890000", "170324.890000", "170324.890000", "170324.906000", "170344.843000", "170344.843000", "170344.843000", "170344.843000", "170344.843000", "170344.859000", "170344.859000", "170344.859000", "170344.859000", "170344.859000", "170344.859000", "170344.859000", "170344.875000", "170344.875000", "170344.875000", "170344.875000", "170344.875000", "170344.875000", "170344.875000", "170344.890000", "170344.890000", "170344.890000", "170344.890000", "170344.890000", "170344.890000", "170344.890000", "170404.843000", "170404.843000", "170404.843000", "170404.859000", "170404.859000", "170404.859000", "170404.859000", "170404.859000", "170404.859000", "170404.859000", "170404.875000", "170404.875000", "170404.875000", "170404.875000", "170404.875000", "170404.875000", "170404.890000", "170404.890000", "170404.890000", "170404.890000", "170404.890000", "170404.906000", "170404.906000", "170404.906000", "170404.906000", "170424.843000", "170424.843000", "170424.843000", "170424.843000", "170424.859000", "170424.859000", "170424.859000", "170424.859000", "170424.859000", "170424.859000", "170424.859000", "170424.875000", "170424.875000", "170424.875000", "170424.875000", "170424.875000", "170424.875000", "170424.875000", "170424.890000", "170424.890000", "170424.890000", "170424.890000", "170424.890000", "170424.890000", "170424.890000", "170424.906000", "170444.843000", "170444.843000", "170444.859000", "170444.859000", "170444.859000", "170444.859000", "170444.859000", "170444.859000", "170444.875000", "170444.875000", "170444.875000", "170444.875000", "170444.875000", "170444.875000", "170444.875000", "170444.890000", "170444.890000", "170444.890000", "170444.890000", "170444.890000", "170444.890000", "170444.890000", "170444.906000", "170444.906000", "170444.906000", "170504.843000", "170504.843000", "170504.843000", "170504.859000", "170504.859000", "170504.859000", "170504.859000", "170504.859000", "170504.859000", "170504.859000", "170504.875000", "170504.875000", "170504.875000", "170504.875000", "170504.875000", "170504.875000", "170504.875000", "170504.890000", "170504.890000", "170504.890000", "170504.890000", "170504.890000", "170504.890000", "170504.890000", "170504.906000", "170504.906000", "170524.843000", "170524.843000", "170524.843000", "170524.859000", "170524.859000", "170524.859000", "170524.859000", "170524.859000", "170524.859000", "170524.859000", "170524.875000", "170524.875000", "170524.875000", "170524.875000", "170524.875000", "170524.875000", "170524.875000", "170524.890000", "170524.890000", "170524.890000", "170524.890000", "170524.890000", "170524.890000", "170524.890000", "170524.906000", "170544.843000", "170544.843000", "170544.843000", "170544.843000", "170544.843000", "170544.843000", "170544.859000", "170544.859000", "170544.859000", "170544.859000", "170544.859000", "170544.859000", "170544.875000", "170544.875000", "170544.875000", "170544.875000", "170544.875000", "170544.875000", "170544.875000", "170544.890000", "170544.890000", "170544.890000", "170544.890000", "170544.890000", "170544.890000", "170544.890000", "170604.843000", "170604.843000", "170604.843000", "170604.859000", "170604.859000", "170604.859000", "170604.859000", "170604.859000", "170604.859000", "170604.875000", "170604.875000", "170604.875000", "170604.875000", "170604.875000", "170604.875000", "170604.890000", "170604.890000", "170604.890000", "170604.890000", "170604.890000", "170604.906000", "170604.906000", "170604.906000", "170604.906000", "170604.906000", "170624.843000", "170624.859000", "170624.875000", "170624.875000", "170624.875000", "170624.875000", "170624.875000", "170624.890000", "170624.890000", "170624.890000", "170624.890000", "170624.890000", "170624.890000", "170624.890000", "170624.906000", "170624.906000", "170624.906000", "170624.906000", "170624.921000", "170624.921000", "170624.921000", "170624.921000", "170624.921000", "170624.921000", "170624.921000", "170644.843000", "170644.843000", "170644.843000", "170644.843000", "170644.843000", "170644.843000", "170644.859000", "170644.859000", "170644.859000", "170644.859000", "170644.859000", "170644.859000", "170644.859000", "170644.875000", "170644.875000", "170644.875000", "170644.875000", "170644.875000", "170644.875000", "170644.875000", "170644.890000", "170644.890000", "170644.890000", "170644.890000", "170644.890000", "170644.890000", "170704.843000", "170704.843000", "170704.843000", "170704.843000", "170704.843000", "170704.843000", "170704.859000", "170704.859000", "170704.859000", "170704.859000", "170704.859000", "170704.859000", "170704.875000", "170704.875000", "170704.875000", "170704.875000", "170704.875000", "170704.875000", "170704.875000", "170704.890000", "170704.890000", "170704.890000", "170704.890000", "170704.890000", "170704.890000", "170724.843000", "170724.843000", "170724.843000", "170724.843000", "170724.843000", "170724.843000", "170724.859000", "170724.859000", "170724.859000", "170724.859000", "170724.859000", "170724.859000", "170724.859000", "170724.875000", "170724.875000", "170724.875000", "170724.875000", "170724.875000", "170724.875000", "170724.890000", "170724.890000", "170724.890000", "170724.906000", "170724.906000", "170724.906000", "170724.906000", "170744.843000", "170744.843000", "170744.843000", "170744.843000", "170744.843000", "170744.843000", "170744.859000", "170744.859000", "170744.859000", "170744.859000", "170744.859000", "170744.875000", "170744.875000", "170744.875000", "170744.875000", "170744.890000", "170744.890000", "170744.890000", "170744.890000", "170744.890000", "170744.890000", "170744.890000", "170744.906000", "170744.906000", "170744.906000", "170804.843000", "170804.843000", "170804.843000", "170804.843000", "170804.843000", "170804.843000", "170804.859000", "170804.859000", "170804.859000", "170804.859000", "170804.859000", "170804.859000", "170804.875000", "170804.875000", "170804.875000", "170804.875000", "170804.875000", "170804.875000", "170804.890000", "170804.890000", "170804.890000", "170804.890000", "170804.890000", "170804.890000", "170804.906000", "170804.906000", "170824.843000", "170824.843000", "170824.843000", "170824.843000", "170824.843000", "170824.843000", "170824.859000", "170824.859000", "170824.859000", "170824.859000", "170824.875000", "170824.875000", "170824.875000", "170824.875000", "170824.875000", "170824.875000", "170824.875000", "170824.890000", "170824.890000", "170824.890000", "170824.890000", "170824.890000", "170824.906000", "170824.906000", "170824.906000", "170844.843000", "170844.843000", "170844.843000", "170844.843000", "170844.843000", "170844.843000", "170844.859000", "170844.859000", "170844.859000", "170844.859000", "170844.859000", "170844.859000", "170844.859000", "170844.875000", "170844.875000", "170844.875000", "170844.875000", "170844.875000", "170844.875000", "170844.875000", "170844.890000", "170844.890000", "170844.890000", "170844.890000", "170844.890000", "170844.890000", "170904.843000", "170904.843000", "170904.843000", "170904.843000", "170904.843000", "170904.843000", "170904.859000", "170904.859000", "170904.859000", "170904.859000", "170904.859000", "170904.859000", "170904.859000", "170904.875000", "170904.875000", "170904.875000", "170904.875000", "170904.875000", "170904.875000", "170904.890000", "170904.890000", "170904.890000", "170904.890000", "170904.890000", "170904.906000", "170924.843000", "170924.843000", "170924.843000", "170924.843000", "170924.843000", "170924.843000", "170924.859000", "170924.859000", "170924.859000", "170924.859000", "170924.875000", "170924.875000", "170924.875000", "170924.875000", "170924.875000", "170924.875000", "170924.875000", "170924.890000", "170924.890000", "170924.890000", "170924.890000", "170924.890000", "170924.890000", "170924.890000", "170924.906000", "170924.906000", "170944.843000", "170944.843000", "170944.843000", "170944.843000", "170944.843000", "170944.843000", "170944.859000", "170944.859000", "170944.859000", "170944.859000", "170944.859000", "170944.859000", "170944.859000", "170944.875000", "170944.875000", "170944.875000", "170944.875000", "170944.875000", "170944.875000", "170944.875000", "170944.890000", "170944.890000", "170944.890000", "170944.890000", "170944.890000", "171004.843000", "171004.843000", "171004.843000", "171004.843000", "171004.843000", "171004.843000", "171004.859000", "171004.859000", "171004.859000", "171004.859000", "171004.859000", "171004.859000", "171004.859000", "171004.875000", "171004.875000", "171004.875000", "171004.875000", "171004.890000", "171004.890000", "171004.890000", "171004.890000", "171004.890000", "171004.890000", "171004.906000", "171004.906000", "171004.906000", "171010.968000", "171010.984000", "171010.984000", "171010.984000", "171010.984000", "171010.984000", "171010.984000", "171011.000000"],
      "DataSetTrailingPadding": [
        "\u0000\u0000\u0000\u0000\u0000\u0000\u0000\u0000\u0000\u0000\u0000\u0000\u0000\u0000\u0000\u0000\u0000\u0000\u0000\u0000\u0000\u0000\u0000\u0000\u0000\u0000\u0000\u0000\u0000\u0000\u0000\u0000\u0000\u0000\u0000\u0000\u0000\u0000\u0000\u0000\u0000\u0000\u0000\u0000\u0000\u0000\u0000\u0000\u0000\u0000\u0000\u0000\u0000\u0000\u0000\u0000\u0000\u0000\u0000\u0000\u0000\u0000\u0000\u0000\u0000\u0000\u0000\u0000\u0000\u0000\u0000\u0000\u0000\u0000\u0000\u0000\u0000\u0000\u0000\u0000\u0000\u0000\u0000\u0000\u0000\u0000\u0000\u0000\u0000\u0000\u0000\u0000\u0000\u0000\u0000\u0000\u0000\u0000\u0000\u0000\u0000\u0000\u0000\u0000\u0000\u0000\u0000\u0000\u0000\u0000\u0000\u0000\u0000\u0000\u0000\u0000\u0000\u0000\u0000\u0000\u0000\u0000\u0000\u0000\u0000\u0000\u0000\u0000\u0000\u0000\u0000\u0000\u0000\u0000\u0000\u0000\u0000\u0000\u0000\u0000\u0000\u0000\u0000\u0000\u0000\u0000\u0000\u0000\u0000\u0000\u0000\u0000\u0000\u0000\u0000\u0000\u0000\u0000\u0000\u0000\u0000\u0000\u0000\u0000\u0000\u0000\u0000\u0000\u0000\u0000\u0000\u0000\u0000\u0000\u0000\u0000\u0000\u0000\u0000\u0000\u0000\u0000\u0000\u0000\u0000\u0000\u0000\u0000\u0000\u0000\u0000\u0000\u0000\u0000\u0000\u0000\u0000\u0000\u0000\u0000\u0000\u0000\u0000\u0000\u0000\u0000\u0000\u0000\u0000\u0000",
