{
  "AcquisitionMatrixPE": 104,
  "AcquisitionNumber": 1,
  "AcquisitionTime": "16:28:12.740000",
  "BandwidthPerPixelPhaseEncode": 13.935,
  "BaseResolution": 104,
  "CoilString": "C:HEA;HEP",
  "ConversionSoftware": "dcm2niix",
  "ConversionSoftwareVersion": "v1.0.20210317",
  "DerivedVendorReportedEchoSpacing": 0.000690017,
  "DeviceSerialNumber": "35450",
  "DwellTime": 2.5e-06,
  "EchoTime": 0.0348,
  "EffectiveEchoSpacing": 0.000690017,
  "FlipAngle": 55,
  "ImageComments": "Unaliased MB8/PE3 (remote)",
  "ImageOrientationPatientDICOM": [1, 0, 0, 0, 0.997185, -0.0749787],
  "ImageType": [
    "ORIGINAL",
    "PRIMARY",
    "M",
    "MB",
    "ND",
    "MOSAIC"
],
  "ImagingFrequency": 123.235,
  "InPlanePhaseEncodingDirectionDICOM": "COL",
  "InstitutionAddress": "Univeristy Ave. 197,Newark,North East,US,07102-1814",
  "InstitutionName": "RUBIC",
  "InstitutionalDepartmentName": "Department",
  "MRAcquisitionType": "2D",
  "MagneticFieldStrength": 3,
  "Manufacturer": "Siemens",
  "ManufacturersModelName": "TrioTim",
  "Modality": "MR",
  "MultibandAccelerationFactor": 8,
  "PartialFourier": 0.875,
  "PatientPosition": "HFS",
  "PercentPhaseFOV": 100,
  "PercentSampling": 100,
  "PhaseEncodingDirection": "j-",
  "PhaseEncodingSteps": 91,
  "PhaseResolution": 1,
  "PixelBandwidth": 1923,
  "ProcedureStepDescription": "Cole^Michael",
  "ProtocolName": "cmrr_mbep2d_bold_2mm_MB8_Task_8x",
  "PulseSequenceDetails": "%CustomerSeq%\\cmrr_mbep2d_bold",
  "ReceiveCoilName": "32Ch_Head",
  "ReconMatrixPE": 104,
  "RepetitionTime": 0.785,
  "SAR": 0.13314,
  "ScanOptions": "PFP\\FS",
  "ScanningSequence": "EP",
  "SequenceName": "epfid2d1_104",
  "SequenceVariant": "SK\\SS",
  "SeriesDescription": "cmrr_mbep2d_bold_2mm_MB8_Task_8x",
  "SeriesNumber": 17,
  "ShimSetting": [2078, -355, -7378, 494, -16, 134, 85, 92],
  "SliceThickness": 2,
  "SliceTiming": [0, 0.4375, 0.0875, 0.525, 0.175, 0.6125, 0.2625, 0.7, 0.35, 0, 0.4375, 0.0875, 0.525, 0.175, 0.6125, 0.2625, 0.7, 0.35, 0, 0.4375, 0.0875, 0.525, 0.175, 0.6125, 0.2625, 0.7, 0.35, 0, 0.4375, 0.0875, 0.525, 0.175, 0.6125, 0.2625, 0.7, 0.35, 0, 0.4375, 0.0875, 0.525, 0.175, 0.6125, 0.2625, 0.7, 0.35, 0, 0.4375, 0.0875, 0.525, 0.175, 0.6125, 0.2625, 0.7, 0.35, 0, 0.4375, 0.0875, 0.525, 0.175, 0.6125, 0.2625, 0.7, 0.35, 0, 0.4375, 0.0875, 0.525, 0.175, 0.6125, 0.2625, 0.7, 0.35],
  "SoftwareVersions": "syngo MR B19",
  "SpacingBetweenSlices": 2,
  "StationName": "MRC35450",
  "TaskName": "cpro",
  "TotalReadoutTime": 0.0710717,
  "TxRefAmp": 324.938,
  "dcmmeta_affine": [
    [-2.0, 0.0, 0.0, 105.3559341430664],
    [0.0, 1.9943702220916748, -0.14995744824409485, -71.33765411376953],
    [0.0, 0.14995744824409485, 1.9943702220916748, -97.89212799072266],
    [0.0, 0.0, 0.0, 1.0]
],
  "dcmmeta_reorient_transform": [
    [0.0, -1.0, 0.0, 103.0],
    [1.0, 0.0, 0.0, 0.0],
    [0.0, 0.0, 1.0, 0.0],
    [0.0, 0.0, 0.0, 1.0]
],
  "dcmmeta_shape": [104, 104, 72, 581],
  "dcmmeta_slice_dim": 2,
  "dcmmeta_version": 0.6,
  "global": {
    "const": {
      "AcquisitionMatrix": [104, 0, 0, 104],
      "AngioFlag": "N",
      "BitsAllocated": 16,
      "BitsStored": 12,
      "Columns": 936,
      "EchoNumbers": 1,
      "EchoTime": 34.8,
      "EchoTrainLength": 1,
      "FlipAngle": 55.0,
      "HighBit": 11,
      "ImageOrientationPatient": [1.0, 0.0, 0.0, 0.0, 0.99718513348179, -0.0749787274025],
      "ImagePositionPatient": [-937.35593223572, -963.74051191344, -20.064211993505],
      "ImageType": [
        "ORIGINAL",
        "PRIMARY",
        "M",
        "MB",
        "ND",
        "MOSAIC"
],
      "ImagedNucleus": "1H",
      "ImagingFrequency": 123.234511,
      "InPlanePhaseEncodingDirection": "COL",
      "MRAcquisitionType": "2D",
      "MagneticFieldStrength": 3.0,
      "Manufacturer": "SIEMENS",
      "ManufacturerModelName": "TrioTim",
      "Modality": "MR",
      "NumberOfAverages": 1.0,
      "NumberOfPhaseEncodingSteps": 91,
      "PercentPhaseFieldOfView": 100.0,
      "PercentSampling": 100.0,
      "PerformedProcedureStepStartTime": "150854.796000",
      "PhotometricInterpretation": "MONOCHROME2",
      "PixelBandwidth": 1923.0,
      "PixelRepresentation": 0,
      "PixelSpacing": [2.0, 2.0],
      "ProtocolName": "cmrr_mbep2d_bold_2mm_MB8_Task_8x",
      "RepetitionTime": 785.0,
      "Rows": 936,
      "SAR": 0.13314031572677,
      "SamplesPerPixel": 1,
      "ScanOptions": [
        "PFP",
        "FS"
],
      "ScanningSequence": "EP",
      "SequenceName": "epfid2d1_104",
      "SequenceVariant": [
        "SK",
        "SS"
],
      "SeriesDescription": "cmrr_mbep2d_bold_2mm_MB8_Task_8x",
      "SeriesNumber": 17,
      "SeriesTime": "162843.312000",
      "SliceLocation": -92.267771044495,
      "SliceThickness": 2.0,
      "SmallestImagePixelValue": 0,
      "SoftwareVersions": "syngo MR B19",
      "SpacingBetweenSlices": 1.9999999931387,
      "SpecificCharacterSet": "ISO_IR 100",
      "StudyID": "1",
      "StudyTime": "150854.718000",
      "TransmitCoilName": "Body",
      "VariableFlipAngleFlag": "N",
      "WindowCenterWidthExplanation": "Algo1",
      "dBdt": 0.0},
    "slices": {}
  },
  "time": {
    "samples": {
      "AcquisitionNumber": [1, 2, 3, 4, 5, 6, 7, 8, 9, 10, 11, 12, 13, 14, 15, 16, 17, 18, 19, 20, 21, 22, 23, 24, 25, 26, 27, 28, 29, 30, 31, 32, 33, 34, 35, 36, 37, 38, 39, 40, 41, 42, 43, 44, 45, 46, 47, 48, 49, 50, 51, 52, 53, 54, 55, 56, 57, 58, 59, 60, 61, 62, 63, 64, 65, 66, 67, 68, 69, 70, 71, 72, 73, 74, 75, 76, 77, 78, 79, 80, 81, 82, 83, 84, 85, 86, 87, 88, 89, 90, 91, 92, 93, 94, 95, 96, 97, 98, 99, 100, 101, 102, 103, 104, 105, 106, 107, 108, 109, 110, 111, 112, 113, 114, 115, 116, 117, 118, 119, 120, 121, 122, 123, 124, 125, 126, 127, 128, 129, 130, 131, 132, 133, 134, 135, 136, 137, 138, 139, 140, 141, 142, 143, 144, 145, 146, 147, 148, 149, 150, 151, 152, 153, 154, 155, 156, 157, 158, 159, 160, 161, 162, 163, 164, 165, 166, 167, 168, 169, 170, 171, 172, 173, 174, 175, 176, 177, 178, 179, 180, 181, 182, 183, 184, 185, 186, 187, 188, 189, 190, 191, 192, 193, 194, 195, 196, 197, 198, 199, 200, 201, 202, 203, 204, 205, 206, 207, 208, 209, 210, 211, 212, 213, 214, 215, 216, 217, 218, 219, 220, 221, 222, 223, 224, 225, 226, 227, 228, 229, 230, 231, 232, 233, 234, 235, 236, 237, 238, 239, 240, 241, 242, 243, 244, 245, 246, 247, 248, 249, 250, 251, 252, 253, 254, 255, 256, 257, 258, 259, 260, 261, 262, 263, 264, 265, 266, 267, 268, 269, 270, 271, 272, 273, 274, 275, 276, 277, 278, 279, 280, 281, 282, 283, 284, 285, 286, 287, 288, 289, 290, 291, 292, 293, 294, 295, 296, 297, 298, 299, 300, 301, 302, 303, 304, 305, 306, 307, 308, 309, 310, 311, 312, 313, 314, 315, 316, 317, 318, 319, 320, 321, 322, 323, 324, 325, 326, 327, 328, 329, 330, 331, 332, 333, 334, 335, 336, 337, 338, 339, 340, 341, 342, 343, 344, 345, 346, 347, 348, 349, 350, 351, 352, 353, 354, 355, 356, 357, 358, 359, 360, 361, 362, 363, 364, 365, 366, 367, 368, 369, 370, 371, 372, 373, 374, 375, 376, 377, 378, 379, 380, 381, 382, 383, 384, 385, 386, 387, 388, 389, 390, 391, 392, 393, 394, 395, 396, 397, 398, 399, 400, 401, 402, 403, 404, 405, 406, 407, 408, 409, 410, 411, 412, 413, 414, 415, 416, 417, 418, 419, 420, 421, 422, 423, 424, 425, 426, 427, 428, 429, 430, 431, 432, 433, 434, 435, 436, 437, 438, 439, 440, 441, 442, 443, 444, 445, 446, 447, 448, 449, 450, 451, 452, 453, 454, 455, 456, 457, 458, 459, 460, 461, 462, 463, 464, 465, 466, 467, 468, 469, 470, 471, 472, 473, 474, 475, 476, 477, 478, 479, 480, 481, 482, 483, 484, 485, 486, 487, 488, 489, 490, 491, 492, 493, 494, 495, 496, 497, 498, 499, 500, 501, 502, 503, 504, 505, 506, 507, 508, 509, 510, 511, 512, 513, 514, 515, 516, 517, 518, 519, 520, 521, 522, 523, 524, 525, 526, 527, 528, 529, 530, 531, 532, 533, 534, 535, 536, 537, 538, 539, 540, 541, 542, 543, 544, 545, 546, 547, 548, 549, 550, 551, 552, 553, 554, 555, 556, 557, 558, 559, 560, 561, 562, 563, 564, 565, 566, 567, 568, 569, 570, 571, 572, 573, 574, 575, 576, 577, 578, 579, 580, 581],
      "AcquisitionTime": ["162812.740000", "162813.530000", "162814.317500", "162815.105000", "162815.892500", "162816.682500", "162817.470000", "162818.257500", "162819.045000", "162819.835000", "162820.622500", "162821.410000", "162822.197500", "162822.987500", "162823.775000", "162824.562500", "162825.350000", "162826.140000", "162826.927500", "162827.715000", "162828.505000", "162829.292500", "162830.080000", "162830.867500", "162831.657500", "162832.445000", "162833.232500", "162834.020000", "162834.810000", "162835.597500", "162836.385000", "162837.172500", "162837.962500", "162838.750000", "162839.537500", "162840.325000", "162841.115000", "162841.902500", "162842.690000", "162843.477500", "162844.267500", "162845.055000", "162845.842500", "162846.632500", "162847.420000", "162848.207500", "162848.995000", "162849.785000", "162850.572500", "162851.360000", "162852.147500", "162852.937500", "162853.725000", "162854.512500", "162855.300000", "162856.090000", "162856.877500", "162857.665000", "162858.452500", "162859.242500", "162900.030000", "162900.817500", "162901.605000", "162902.395000", "162903.182500", "162903.970000", "162904.760000", "162905.547500", "162906.335000", "162907.122500", "162907.912500", "162908.700000", "162909.487500", "162910.275000", "162911.065000", "162911.852500", "162912.640000", "162913.427500", "162914.217500", "162915.005000", "162915.792500", "162916.580000", "162917.370000", "162918.157500", "162918.945000", "162919.732500", "162920.522500", "162921.310000", "162922.097500", "162922.887500", "162923.675000", "162924.462500", "162925.250000", "162926.040000", "162926.827500", "162927.615000", "162928.402500", "162929.192500", "162929.980000", "162930.767500", "162931.555000", "162932.345000", "162933.132500", "162933.920000", "162934.707500", "162935.497500", "162936.285000", "162937.072500", "162937.862500", "162938.650000", "162939.437500", "162940.225000", "162941.015000", "162941.802500", "162942.590000", "162943.377500", "162944.167500", "162944.955000", "162945.742500", "162946.530000", "162947.320000", "162948.107500", "162948.895000", "162949.682500", "162950.472500", "162951.260000", "162952.047500", "162952.835000", "162953.625000", "162954.412500", "162955.200000", "162955.990000", "162956.777500", "162957.565000", "162958.352500", "162959.142500", "162959.930000", "163000.717500", "163001.505000", "163002.295000", "163003.082500", "163003.870000", "163004.657500", "163005.447500", "163006.235000", "163007.022500", "163007.810000", "163008.600000", "163009.387500", "163010.175000", "163010.962500", "163011.752500", "163012.540000", "163013.327500", "163014.117500", "163014.905000", "163015.692500", "163016.480000", "163017.270000", "163018.057500", "163018.845000", "163019.632500", "163020.422500", "163021.210000", "163021.997500", "163022.785000", "163023.575000", "163024.362500", "163025.150000", "163025.937500", "163026.727500", "163027.515000", "163028.302500", "163029.090000", "163029.880000", "163030.667500", "163031.455000", "163032.245000", "163033.032500", "163033.820000", "163034.607500", "163035.397500", "163036.185000", "163036.972500", "163037.760000", "163038.550000", "163039.337500", "163040.125000", "163040.912500", "163041.702500", "163042.490000", "163043.277500", "163044.065000", "163044.855000", "163045.642500", "163046.430000", "163047.217500", "163048.007500", "163048.795000", "163049.582500", "163050.372500", "163051.160000", "163051.947500", "163052.735000", "163053.525000", "163054.312500", "163055.100000", "163055.887500", "163056.677500", "163057.465000", "163058.252500", "163059.040000", "163059.830000", "163100.617500", "163101.405000", "163102.192500", "163102.982500", "163103.770000", "163104.557500", "163105.345000", "163106.135000", "163106.922500", "163107.710000", "163108.500000", "163109.287500", "163110.075000", "163110.862500", "163111.652500", "163112.440000", "163113.227500", "163114.015000", "163114.805000", "163115.592500", "163116.380000", "163117.167500", "163117.957500", "163118.745000", "163119.532500", "163120.320000", "163121.110000", "163121.897500", "163122.685000", "163123.472500", "163124.262500", "163125.050000", "163125.837500", "163126.627500", "163127.415000", "163128.202500", "163128.990000", "163129.780000", "163130.567500", "163131.355000", "163132.142500", "163132.932500", "163133.720000", "163134.507500", "163135.295000", "163136.085000", "163136.872500", "163137.660000", "163138.447500", "163139.237500", "163140.025000", "163140.812500", "163141.600000", "163142.390000", "163143.177500", "163143.965000", "163144.755000", "163145.542500", "163146.330000", "163147.117500", "163147.907500", "163148.695000", "163149.482500", "163150.270000", "163151.060000", "163151.847500", "163152.635000", "163153.422500", "163154.212500", "163155.000000", "163155.787500", "163156.575000", "163157.365000", "163158.152500", "163158.940000", "163159.727500", "163200.517500", "163201.305000", "163202.092500", "163202.882500", "163203.670000", "163204.457500", "163205.245000", "163206.035000", "163206.822500", "163207.610000", "163208.397500", "163209.187500", "163209.975000", "163210.762500", "163211.550000", "163212.340000", "163213.127500", "163213.915000", "163214.702500", "163215.492500", "163216.280000", "163217.067500", "163217.855000", "163218.645000", "163219.432500", "163220.220000", "163221.010000", "163221.797500", "163222.585000", "163223.372500", "163224.162500", "163224.950000", "163225.737500", "163226.525000", "163227.315000", "163228.102500", "163228.890000", "163229.677500", "163230.467500", "163231.255000", "163232.042500", "163232.830000", "163233.620000", "163234.407500", "163235.195000", "163235.982500", "163236.772500", "163237.560000", "163238.347500", "163239.137500", "163239.925000", "163240.712500", "163241.500000", "163242.290000", "163243.077500", "163243.865000", "163244.652500", "163245.442500", "163246.230000", "163247.017500", "163247.805000", "163248.595000", "163249.382500", "163250.170000", "163250.957500", "163251.747500", "163252.535000", "163253.322500", "163254.112500", "163254.900000", "163255.687500", "163256.475000", "163257.265000", "163258.052500", "163258.840000", "163259.627500", "163300.417500", "163301.205000", "163301.992500", "163302.780000", "163303.570000", "163304.357500", "163305.145000", "163305.932500", "163306.722500", "163307.510000", "163308.297500", "163309.085000", "163309.875000", "163310.662500", "163311.450000", "163312.240000", "163313.027500", "163313.815000", "163314.602500", "163315.392500", "163316.180000", "163316.967500", "163317.755000", "163318.545000", "163319.332500", "163320.120000", "163320.907500", "163321.697500", "163322.485000", "163323.272500", "163324.060000", "163324.850000", "163325.637500", "163326.425000", "163327.212500", "163328.002500", "163328.790000", "163329.577500", "163330.367500", "163331.155000", "163331.942500", "163332.730000", "163333.520000", "163334.307500", "163335.095000", "163335.882500", "163336.672500", "163337.460000", "163338.247500", "163339.035000", "163339.825000", "163340.612500", "163341.400000", "163342.187500", "163342.977500", "163343.765000", "163344.552500", "163345.340000", "163346.130000", "163346.917500", "163347.705000", "163348.495000", "163349.282500", "163350.070000", "163350.857500", "163351.647500", "163352.435000", "163353.222500", "163354.010000", "163354.800000", "163355.587500", "163356.375000", "163357.162500", "163357.952500", "163358.740000", "163359.527500", "163400.315000", "163401.105000", "163401.892500", "163402.680000", "163403.467500", "163404.257500", "163405.045000", "163405.832500", "163406.622500", "163407.410000", "163408.197500", "163408.985000", "163409.775000", "163410.562500", "163411.350000", "163412.137500", "163412.927500", "163413.715000", "163414.502500", "163415.290000", "163416.080000", "163416.867500", "163417.655000", "163418.442500", "163419.232500", "163420.020000", "163420.807500", "163421.595000", "163422.385000", "163423.172500", "163423.960000", "163424.750000", "163425.537500", "163426.325000", "163427.112500", "163427.902500", "163428.690000", "163429.477500", "163430.265000", "163431.055000", "163431.842500", "163432.630000", "163433.417500", "163434.207500", "163434.995000", "163435.782500", "163436.570000", "163437.360000", "163438.147500", "163438.935000", "163439.722500", "163440.512500", "163441.300000", "163442.087500", "163442.877500", "163443.665000", "163444.452500", "163445.240000", "163446.030000", "163446.817500", "163447.605000", "163448.392500", "163449.182500", "163449.970000", "163450.757500", "163451.545000", "163452.335000", "163453.122500", "163453.910000", "163454.697500", "163455.487500", "163456.275000", "163457.062500", "163457.850000", "163458.640000", "163459.427500", "163500.215000", "163501.005000", "163501.792500", "163502.580000", "163503.367500", "163504.157500", "163504.945000", "163505.732500", "163506.520000", "163507.310000", "163508.097500", "163508.885000", "163509.672500", "163510.462500", "163511.250000", "163512.037500", "163512.825000", "163513.615000", "163514.402500", "163515.190000", "163515.977500", "163516.767500", "163517.555000", "163518.342500", "163519.132500", "163519.920000", "163520.707500", "163521.495000", "163522.285000", "163523.072500", "163523.860000", "163524.647500", "163525.437500", "163526.225000", "163527.012500", "163527.800000", "163528.590000", "163529.377500", "163530.165000", "163530.952500", "163531.742500", "163532.530000", "163533.317500", "163534.105000", "163534.895000", "163535.682500", "163536.470000", "163537.260000", "163538.047500", "163538.835000", "163539.622500", "163540.412500", "163541.200000", "163541.987500", "163542.775000", "163543.565000", "163544.352500", "163545.140000", "163545.927500", "163546.717500", "163547.505000", "163548.292500", "163549.080000", "163549.870000"],
      "ContentTime": ["162843.312000", "162843.312000", "162843.312000", "162843.312000", "162843.312000", "162843.312000", "162843.328000", "162843.328000", "162843.328000", "162843.328000", "162843.328000", "162843.343000", "162843.343000", "162843.343000", "162843.343000", "162843.343000", "162843.343000", "162843.343000", "162843.359000", "162843.359000", "162843.359000", "162843.359000", "162843.359000", "162843.359000", "162843.375000", "162843.375000", "162843.375000", "162843.375000", "162843.375000", "162843.375000", "162843.375000", "162843.390000", "162843.390000", "162843.390000", "162843.390000", "162843.390000", "162903.281000", "162903.281000", "162903.281000", "162903.281000", "162903.281000", "162903.281000", "162903.296000", "162903.296000", "162903.296000", "162903.296000", "162903.296000", "162903.296000", "162903.296000", "162903.312000", "162903.312000", "162903.312000", "162903.312000", "162903.312000", "162903.312000", "162903.312000", "162903.328000", "162903.328000", "162903.328000", "162903.328000", "162903.328000", "162923.281000", "162923.281000", "162923.281000", "162923.281000", "162923.281000", "162923.281000", "162923.296000", "162923.296000", "162923.296000", "162923.296000", "162923.296000", "162923.296000", "162923.296000", "162923.312000", "162923.312000", "162923.312000", "162923.312000", "162923.312000", "162923.312000", "162923.312000", "162923.328000", "162923.328000", "162923.328000", "162923.328000", "162923.328000", "162923.328000", "162943.281000", "162943.281000", "162943.281000", "162943.281000", "162943.281000", "162943.281000", "162943.296000", "162943.296000", "162943.296000", "162943.296000", "162943.296000", "162943.296000", "162943.296000", "162943.312000", "162943.312000", "162943.312000", "162943.312000", "162943.312000", "162943.312000", "162943.312000", "162943.328000", "162943.328000", "162943.328000", "162943.328000", "162943.328000", "163003.281000", "163003.281000", "163003.281000", "163003.281000", "163003.281000", "163003.281000", "163003.296000", "163003.296000", "163003.296000", "163003.296000", "163003.296000", "163003.296000", "163003.296000", "163003.312000", "163003.312000", "163003.312000", "163003.312000", "163003.312000", "163003.312000", "163003.312000", "163003.328000", "163003.328000", "163003.328000", "163003.328000", "163003.328000", "163003.328000", "163023.281000", "163023.281000", "163023.281000", "163023.281000", "163023.281000", "163023.281000", "163023.296000", "163023.296000", "163023.296000", "163023.296000", "163023.296000", "163023.296000", "163023.296000", "163023.312000", "163023.312000", "163023.312000", "163023.312000", "163023.312000", "163023.312000", "163023.312000", "163023.328000", "163023.328000", "163023.328000", "163023.328000", "163023.328000", "163043.281000", "163043.281000", "163043.281000", "163043.281000", "163043.281000", "163043.281000", "163043.296000", "163043.296000", "163043.296000", "163043.296000", "163043.296000", "163043.296000", "163043.296000", "163043.312000", "163043.312000", "163043.312000", "163043.312000", "163043.312000", "163043.312000", "163043.312000", "163043.328000", "163043.328000", "163043.328000", "163043.328000", "163043.328000", "163043.328000", "163103.281000", "163103.281000", "163103.281000", "163103.281000", "163103.281000", "163103.281000", "163103.296000", "163103.296000", "163103.296000", "163103.296000", "163103.296000", "163103.312000", "163103.312000", "163103.312000", "163103.312000", "163103.312000", "163103.328000", "163103.328000", "163103.328000", "163103.328000", "163103.328000", "163103.328000", "163103.343000", "163103.343000", "163103.343000", "163123.281000", "163123.281000", "163123.281000", "163123.281000", "163123.281000", "163123.281000", "163123.296000", "163123.296000", "163123.296000", "163123.296000", "163123.296000", "163123.296000", "163123.296000", "163123.312000", "163123.312000", "163123.312000", "163123.312000", "163123.312000", "163123.312000", "163123.312000", "163123.328000", "163123.328000", "163123.328000", "163123.328000", "163123.328000", "163123.328000", "163143.281000", "163143.281000", "163143.281000", "163143.281000", "163143.281000", "163143.281000", "163143.296000", "163143.296000", "163143.296000", "163143.296000", "163143.296000", "163143.296000", "163143.296000", "163143.312000", "163143.312000", "163143.312000", "163143.312000", "163143.312000", "163143.312000", "163143.312000", "163143.328000", "163143.328000", "163143.328000", "163143.328000", "163143.328000", "163203.281000", "163203.281000", "163203.281000", "163203.281000", "163203.281000", "163203.281000", "163203.296000", "163203.296000", "163203.296000", "163203.296000", "163203.296000", "163203.296000", "163203.296000", "163203.312000", "163203.312000", "163203.312000", "163203.312000", "163203.328000", "163203.328000", "163203.328000", "163203.328000", "163203.328000", "163203.328000", "163203.343000", "163203.343000", "163203.343000", "163223.281000", "163223.281000", "163223.281000", "163223.281000", "163223.281000", "163223.281000", "163223.296000", "163223.296000", "163223.296000", "163223.296000", "163223.296000", "163223.296000", "163223.296000", "163223.312000", "163223.312000", "163223.312000", "163223.312000", "163223.312000", "163223.312000", "163223.328000", "163223.328000", "163223.328000", "163223.328000", "163223.328000", "163223.328000", "163243.281000", "163243.281000", "163243.281000", "163243.281000", "163243.281000", "163243.281000", "163243.296000", "163243.296000", "163243.296000", "163243.296000", "163243.296000", "163243.296000", "163243.296000", "163243.312000", "163243.312000", "163243.312000", "163243.312000", "163243.312000", "163243.312000", "163243.312000", "163243.328000", "163243.328000", "163243.328000", "163243.328000", "163243.328000", "163303.281000", "163303.281000", "163303.281000", "163303.296000", "163303.296000", "163303.296000", "163303.296000", "163303.296000", "163303.296000", "163303.296000", "163303.312000", "163303.312000", "163303.312000", "163303.312000", "163303.312000", "163303.312000", "163303.312000", "163303.328000", "163303.328000", "163303.328000", "163303.328000", "163303.328000", "163303.328000", "163303.328000", "163303.343000", "163303.343000", "163323.281000", "163323.281000", "163323.281000", "163323.281000", "163323.281000", "163323.281000", "163323.296000", "163323.296000", "163323.296000", "163323.296000", "163323.296000", "163323.296000", "163323.312000", "163323.312000", "163323.312000", "163323.312000", "163323.312000", "163323.312000", "163323.312000", "163323.328000", "163323.328000", "163323.328000", "163323.328000", "163323.328000", "163323.328000", "163343.281000", "163343.281000", "163343.281000", "163343.281000", "163343.281000", "163343.281000", "163343.296000", "163343.296000", "163343.296000", "163343.296000", "163343.296000", "163343.296000", "163343.296000", "163343.312000", "163343.312000", "163343.312000", "163343.312000", "163343.312000", "163343.328000", "163343.328000", "163343.328000", "163343.328000", "163343.343000", "163343.343000", "163343.343000", "163343.343000", "163403.281000", "163403.281000", "163403.281000", "163403.281000", "163403.281000", "163403.281000", "163403.296000", "163403.296000", "163403.296000", "163403.296000", "163403.296000", "163403.296000", "163403.312000", "163403.312000", "163403.312000", "163403.312000", "163403.312000", "163403.312000", "163403.312000", "163403.328000", "163403.328000", "163403.328000", "163403.328000", "163403.343000", "163403.343000", "163423.281000", "163423.281000", "163423.281000", "163423.281000", "163423.281000", "163423.281000", "163423.296000", "163423.296000", "163423.296000", "163423.296000", "163423.296000", "163423.296000", "163423.296000", "163423.312000", "163423.312000", "163423.312000", "163423.312000", "163423.312000", "163423.312000", "163423.312000", "163423.328000", "163423.328000", "163423.328000", "163423.328000", "163423.328000", "163423.328000", "163443.281000", "163443.281000", "163443.281000", "163443.281000", "163443.281000", "163443.281000", "163443.296000", "163443.296000", "163443.296000", "163443.296000", "163443.296000", "163443.296000", "163443.296000", "163443.312000", "163443.312000", "163443.312000", "163443.312000", "163443.312000", "163443.312000", "163443.312000", "163443.328000", "163443.328000", "163443.328000", "163443.328000", "163443.328000", "163503.281000", "163503.281000", "163503.281000", "163503.281000", "163503.281000", "163503.281000", "163503.296000", "163503.296000", "163503.296000", "163503.296000", "163503.296000", "163503.296000", "163503.296000", "163503.312000", "163503.312000", "163503.312000", "163503.312000", "163503.312000", "163503.312000", "163503.312000", "163503.328000", "163503.328000", "163503.328000", "163503.328000", "163503.328000", "163503.328000", "163523.281000", "163523.281000", "163523.281000", "163523.281000", "163523.281000", "163523.281000", "163523.296000", "163523.296000", "163523.296000", "163523.296000", "163523.296000", "163523.296000", "163523.312000", "163523.312000", "163523.312000", "163523.312000", "163523.312000", "163523.312000", "163523.312000", "163523.328000", "163523.328000", "163523.328000", "163523.328000", "163523.328000", "163523.328000", "163543.281000", "163543.281000", "163543.281000", "163543.281000", "163543.281000", "163543.281000", "163543.296000", "163543.296000", "163543.296000", "163543.296000", "163543.296000", "163543.296000", "163543.296000", "163543.312000", "163543.312000", "163543.312000", "163543.312000", "163543.312000", "163543.312000", "163543.312000", "163543.328000", "163543.328000", "163543.328000", "163543.328000", "163543.328000", "163543.328000", "163550.953000", "163550.953000", "163550.968000", "163550.968000", "163550.968000", "163550.968000", "163550.968000", "163550.968000", "163550.968000", "163550.984000"],
      "DataSetTrailingPadding": [
        "\u0000\u0000\u0000\u0000\u0000\u0000\u0000\u0000\u0000\u0000\u0000\u0000\u0000\u0000\u0000\u0000\u0000\u0000\u0000\u0000\u0000\u0000\u0000\u0000\u0000\u0000\u0000\u0000\u0000\u0000\u0000\u0000\u0000\u0000\u0000\u0000\u0000\u0000\u0000\u0000\u0000\u0000\u0000\u0000\u0000\u0000\u0000\u0000\u0000\u0000\u0000\u0000\u0000\u0000\u0000\u0000\u0000\u0000\u0000\u0000\u0000\u0000\u0000\u0000\u0000\u0000\u0000\u0000\u0000\u0000\u0000\u0000\u0000\u0000\u0000\u0000\u0000\u0000\u0000\u0000\u0000\u0000\u0000\u0000\u0000\u0000\u0000\u0000\u0000\u0000\u0000\u0000\u0000\u0000\u0000\u0000\u0000\u0000\u0000\u0000\u0000\u0000\u0000\u0000\u0000\u0000\u0000\u0000\u0000\u0000\u0000\u0000\u0000\u0000\u0000\u0000\u0000\u0000\u0000\u0000\u0000\u0000\u0000\u0000\u0000\u0000\u0000\u0000\u0000\u0000\u0000\u0000\u0000\u0000\u0000\u0000\u0000\u0000\u0000\u0000\u0000\u0000\u0000\u0000\u0000\u0000\u0000\u0000\u0000\u0000\u0000\u0000\u0000\u0000\u0000\u0000\u0000\u0000\u0000\u0000\u0000\u0000\u0000\u0000\u0000\u0000\u0000\u0000\u0000\u0000\u0000\u0000\u0000\u0000\u0000\u0000\u0000\u0000\u0000\u0000\u0000\u0000\u0000\u0000\u0000\u0000\u0000\u0000\u0000\u0000\u0000\u0000\u0000\u0000\u0000\u0000\u0000\u0000\u0000\u0000\u0000\u0000\u0000\u0000\u0000\u0000\u0000\u0000\u0000\u0000",
