{
  "AcquisitionMatrixPE": 104,
  "AcquisitionNumber": 1,
  "AcquisitionTime": "15:44:30.390000",
  "BandwidthPerPixelPhaseEncode": 13.935,
  "BaseResolution": 104,
  "CoilString": "C:HEA;HEP",
  "ConversionSoftware": "dcm2niix",
  "ConversionSoftwareVersion": "v1.0.20210317",
  "DerivedVendorReportedEchoSpacing": 0.000690017,
  "DeviceSerialNumber": "35450",
  "DwellTime": 2.5e-06,
  "EchoTime": 0.0348,
  "EffectiveEchoSpacing": 0.000690017,
  "FlipAngle": 55,
  "ImageComments": "Unaliased MB8/PE3 (remote)",
  "ImageOrientationPatientDICOM": [1, 0, 0, 0, 0.997185, -0.0749787],
  "ImageType": [
    "ORIGINAL",
    "PRIMARY",
    "M",
    "MB",
    "ND",
    "MOSAIC"
],
  "ImagingFrequency": 123.234,
  "InPlanePhaseEncodingDirectionDICOM": "COL",
  "InstitutionAddress": "Univeristy Ave. 197,Newark,North East,US,07102-1814",
  "InstitutionName": "RUBIC",
  "InstitutionalDepartmentName": "Department",
  "MRAcquisitionType": "2D",
  "MagneticFieldStrength": 3,
  "Manufacturer": "Siemens",
  "ManufacturersModelName": "TrioTim",
  "Modality": "MR",
  "MultibandAccelerationFactor": 8,
  "PartialFourier": 0.875,
  "PatientPosition": "HFS",
  "PercentPhaseFOV": 100,
  "PercentSampling": 100,
  "PhaseEncodingDirection": "j-",
  "PhaseEncodingSteps": 91,
  "PhaseResolution": 1,
  "PixelBandwidth": 1923,
  "ProcedureStepDescription": "Cole^Michael",
  "ProtocolName": "cmrr_mbep2d_bold_2mm_MB8_Rest",
  "PulseSequenceDetails": "%CustomerSeq%\\cmrr_mbep2d_bold",
  "ReceiveCoilName": "32Ch_Head",
  "ReconMatrixPE": 104,
  "RepetitionTime": 0.785,
  "SAR": 0.125289,
  "ScanOptions": "PFP\\FS",
  "ScanningSequence": "EP",
  "SequenceName": "epfid2d1_104",
  "SequenceVariant": "SK\\SS",
  "SeriesDescription": "cmrr_mbep2d_bold_2mm_MB8_Rest",
  "SeriesNumber": 9,
  "ShimSetting": [2078, -355, -7378, 494, -16, 134, 85, 92],
  "SliceThickness": 2,
  "SliceTiming": [0, 0.4375, 0.0875, 0.525, 0.175, 0.6125, 0.2625, 0.7, 0.35, 0, 0.4375, 0.0875, 0.525, 0.175, 0.6125, 0.2625, 0.7, 0.35, 0, 0.4375, 0.0875, 0.525, 0.175, 0.6125, 0.2625, 0.7, 0.35, 0, 0.4375, 0.0875, 0.525, 0.175, 0.6125, 0.2625, 0.7, 0.35, 0, 0.4375, 0.0875, 0.525, 0.175, 0.6125, 0.2625, 0.7, 0.35, 0, 0.4375, 0.0875, 0.525, 0.175, 0.6125, 0.2625, 0.7, 0.35, 0, 0.4375, 0.0875, 0.525, 0.175, 0.6125, 0.2625, 0.7, 0.35, 0, 0.4375, 0.0875, 0.525, 0.175, 0.6125, 0.2625, 0.7, 0.35],
  "SoftwareVersions": "syngo MR B19",
  "SpacingBetweenSlices": 2,
  "StationName": "MRC35450",
  "TaskName": "rest",
  "TotalReadoutTime": 0.0710717,
  "TxRefAmp": 324.938,
  "dcmmeta_affine": [
    [-2.0, 0.0, 0.0, 105.3559341430664],
    [0.0, 1.9943702220916748, -0.14995744824409485, -71.33765411376953],
    [0.0, 0.14995744824409485, 1.9943702220916748, -97.89212799072266],
    [0.0, 0.0, 0.0, 1.0]
],
  "dcmmeta_reorient_transform": [
    [0.0, -1.0, 0.0, 103.0],
    [1.0, 0.0, 0.0, 0.0],
    [0.0, 0.0, 1.0, 0.0],
    [0.0, 0.0, 0.0, 1.0]
],
  "dcmmeta_shape": [104, 104, 72, 1070],
  "dcmmeta_slice_dim": 2,
  "dcmmeta_version": 0.6,
  "global": {
    "const": {
      "AcquisitionMatrix": [104, 0, 0, 104],
      "AngioFlag": "N",
      "BitsAllocated": 16,
      "BitsStored": 12,
      "Columns": 936,
      "EchoNumbers": 1,
      "EchoTime": 34.8,
      "EchoTrainLength": 1,
      "FlipAngle": 55.0,
      "HighBit": 11,
      "ImageOrientationPatient": [1.0, 0.0, 0.0, 0.0, 0.99718513348179, -0.0749787274025],
      "ImagePositionPatient": [-937.35593223572, -963.74051191344, -20.064211993505],
      "ImageType": [
        "ORIGINAL",
        "PRIMARY",
        "M",
        "MB",
        "ND",
        "MOSAIC"
],
      "ImagedNucleus": "1H",
      "ImagingFrequency": 123.234445,
      "InPlanePhaseEncodingDirection": "COL",
      "MRAcquisitionType": "2D",
      "MagneticFieldStrength": 3.0,
      "Manufacturer": "SIEMENS",
      "ManufacturerModelName": "TrioTim",
      "Modality": "MR",
      "NumberOfAverages": 1.0,
      "NumberOfPhaseEncodingSteps": 91,
      "PercentPhaseFieldOfView": 100.0,
      "PercentSampling": 100.0,
      "PerformedProcedureStepStartTime": "150854.796000",
      "PhotometricInterpretation": "MONOCHROME2",
      "PixelBandwidth": 1923.0,
      "PixelRepresentation": 0,
      "PixelSpacing": [2.0, 2.0],
      "ProtocolName": "cmrr_mbep2d_bold_2mm_MB8_Rest",
      "RepetitionTime": 785.0,
      "Rows": 936,
      "SAR": 0.12528897051319,
      "SamplesPerPixel": 1,
      "ScanOptions": [
        "PFP",
        "FS"
],
      "ScanningSequence": "EP",
      "SequenceName": "epfid2d1_104",
      "SequenceVariant": [
        "SK",
        "SS"
],
      "SeriesDescription": "cmrr_mbep2d_bold_2mm_MB8_Rest",
      "SeriesNumber": 9,
      "SeriesTime": "154503.328000",
      "SliceLocation": -92.267771044495,
      "SliceThickness": 2.0,
      "SmallestImagePixelValue": 0,
      "SoftwareVersions": "syngo MR B19",
      "SpacingBetweenSlices": 1.9999999931387,
      "SpecificCharacterSet": "ISO_IR 100",
      "StudyID": "1",
      "StudyTime": "150854.718000",
      "TransmitCoilName": "Body",
      "VariableFlipAngleFlag": "N",
      "WindowCenterWidthExplanation": "Algo1",
      "dBdt": 0.0},
    "slices": {}
  },
  "time": {
    "samples": {
      "AcquisitionNumber": [1, 2, 3, 4, 5, 6, 7, 8, 9, 10, 11, 12, 13, 14, 15, 16, 17, 18, 19, 20, 21, 22, 23, 24, 25, 26, 27, 28, 29, 30, 31, 32, 33, 34, 35, 36, 37, 38, 39, 40, 41, 42, 43, 44, 45, 46, 47, 48, 49, 50, 51, 52, 53, 54, 55, 56, 57, 58, 59, 60, 61, 62, 63, 64, 65, 66, 67, 68, 69, 70, 71, 72, 73, 74, 75, 76, 77, 78, 79, 80, 81, 82, 83, 84, 85, 86, 87, 88, 89, 90, 91, 92, 93, 94, 95, 96, 97, 98, 99, 100, 101, 102, 103, 104, 105, 106, 107, 108, 109, 110, 111, 112, 113, 114, 115, 116, 117, 118, 119, 120, 121, 122, 123, 124, 125, 126, 127, 128, 129, 130, 131, 132, 133, 134, 135, 136, 137, 138, 139, 140, 141, 142, 143, 144, 145, 146, 147, 148, 149, 150, 151, 152, 153, 154, 155, 156, 157, 158, 159, 160, 161, 162, 163, 164, 165, 166, 167, 168, 169, 170, 171, 172, 173, 174, 175, 176, 177, 178, 179, 180, 181, 182, 183, 184, 185, 186, 187, 188, 189, 190, 191, 192, 193, 194, 195, 196, 197, 198, 199, 200, 201, 202, 203, 204, 205, 206, 207, 208, 209, 210, 211, 212, 213, 214, 215, 216, 217, 218, 219, 220, 221, 222, 223, 224, 225, 226, 227, 228, 229, 230, 231, 232, 233, 234, 235, 236, 237, 238, 239, 240, 241, 242, 243, 244, 245, 246, 247, 248, 249, 250, 251, 252, 253, 254, 255, 256, 257, 258, 259, 260, 261, 262, 263, 264, 265, 266, 267, 268, 269, 270, 271, 272, 273, 274, 275, 276, 277, 278, 279, 280, 281, 282, 283, 284, 285, 286, 287, 288, 289, 290, 291, 292, 293, 294, 295, 296, 297, 298, 299, 300, 301, 302, 303, 304, 305, 306, 307, 308, 309, 310, 311, 312, 313, 314, 315, 316, 317, 318, 319, 320, 321, 322, 323, 324, 325, 326, 327, 328, 329, 330, 331, 332, 333, 334, 335, 336, 337, 338, 339, 340, 341, 342, 343, 344, 345, 346, 347, 348, 349, 350, 351, 352, 353, 354, 355, 356, 357, 358, 359, 360, 361, 362, 363, 364, 365, 366, 367, 368, 369, 370, 371, 372, 373, 374, 375, 376, 377, 378, 379, 380, 381, 382, 383, 384, 385, 386, 387, 388, 389, 390, 391, 392, 393, 394, 395, 396, 397, 398, 399, 400, 401, 402, 403, 404, 405, 406, 407, 408, 409, 410, 411, 412, 413, 414, 415, 416, 417, 418, 419, 420, 421, 422, 423, 424, 425, 426, 427, 428, 429, 430, 431, 432, 433, 434, 435, 436, 437, 438, 439, 440, 441, 442, 443, 444, 445, 446, 447, 448, 449, 450, 451, 452, 453, 454, 455, 456, 457, 458, 459, 460, 461, 462, 463, 464, 465, 466, 467, 468, 469, 470, 471, 472, 473, 474, 475, 476, 477, 478, 479, 480, 481, 482, 483, 484, 485, 486, 487, 488, 489, 490, 491, 492, 493, 494, 495, 496, 497, 498, 499, 500, 501, 502, 503, 504, 505, 506, 507, 508, 509, 510, 511, 512, 513, 514, 515, 516, 517, 518, 519, 520, 521, 522, 523, 524, 525, 526, 527, 528, 529, 530, 531, 532, 533, 534, 535, 536, 537, 538, 539, 540, 541, 542, 543, 544, 545, 546, 547, 548, 549, 550, 551, 552, 553, 554, 555, 556, 557, 558, 559, 560, 561, 562, 563, 564, 565, 566, 567, 568, 569, 570, 571, 572, 573, 574, 575, 576, 577, 578, 579, 580, 581, 582, 583, 584, 585, 586, 587, 588, 589, 590, 591, 592, 593, 594, 595, 596, 597, 598, 599, 600, 601, 602, 603, 604, 605, 606, 607, 608, 609, 610, 611, 612, 613, 614, 615, 616, 617, 618, 619, 620, 621, 622, 623, 624, 625, 626, 627, 628, 629, 630, 631, 632, 633, 634, 635, 636, 637, 638, 639, 640, 641, 642, 643, 644, 645, 646, 647, 648, 649, 650, 651, 652, 653, 654, 655, 656, 657, 658, 659, 660, 661, 662, 663, 664, 665, 666, 667, 668, 669, 670, 671, 672, 673, 674, 675, 676, 677, 678, 679, 680, 681, 682, 683, 684, 685, 686, 687, 688, 689, 690, 691, 692, 693, 694, 695, 696, 697, 698, 699, 700, 701, 702, 703, 704, 705, 706, 707, 708, 709, 710, 711, 712, 713, 714, 715, 716, 717, 718, 719, 720, 721, 722, 723, 724, 725, 726, 727, 728, 729, 730, 731, 732, 733, 734, 735, 736, 737, 738, 739, 740, 741, 742, 743, 744, 745, 746, 747, 748, 749, 750, 751, 752, 753, 754, 755, 756, 757, 758, 759, 760, 761, 762, 763, 764, 765, 766, 767, 768, 769, 770, 771, 772, 773, 774, 775, 776, 777, 778, 779, 780, 781, 782, 783, 784, 785, 786, 787, 788, 789, 790, 791, 792, 793, 794, 795, 796, 797, 798, 799, 800, 801, 802, 803, 804, 805, 806, 807, 808, 809, 810, 811, 812, 813, 814, 815, 816, 817, 818, 819, 820, 821, 822, 823, 824, 825, 826, 827, 828, 829, 830, 831, 832, 833, 834, 835, 836, 837, 838, 839, 840, 841, 842, 843, 844, 845, 846, 847, 848, 849, 850, 851, 852, 853, 854, 855, 856, 857, 858, 859, 860, 861, 862, 863, 864, 865, 866, 867, 868, 869, 870, 871, 872, 873, 874, 875, 876, 877, 878, 879, 880, 881, 882, 883, 884, 885, 886, 887, 888, 889, 890, 891, 892, 893, 894, 895, 896, 897, 898, 899, 900, 901, 902, 903, 904, 905, 906, 907, 908, 909, 910, 911, 912, 913, 914, 915, 916, 917, 918, 919, 920, 921, 922, 923, 924, 925, 926, 927, 928, 929, 930, 931, 932, 933, 934, 935, 936, 937, 938, 939, 940, 941, 942, 943, 944, 945, 946, 947, 948, 949, 950, 951, 952, 953, 954, 955, 956, 957, 958, 959, 960, 961, 962, 963, 964, 965, 966, 967, 968, 969, 970, 971, 972, 973, 974, 975, 976, 977, 978, 979, 980, 981, 982, 983, 984, 985, 986, 987, 988, 989, 990, 991, 992, 993, 994, 995, 996, 997, 998, 999, 1000, 1001, 1002, 1003, 1004, 1005, 1006, 1007, 1008, 1009, 1010, 1011, 1012, 1013, 1014, 1015, 1016, 1017, 1018, 1019, 1020, 1021, 1022, 1023, 1024, 1025, 1026, 1027, 1028, 1029, 1030, 1031, 1032, 1033, 1034, 1035, 1036, 1037, 1038, 1039, 1040, 1041, 1042, 1043, 1044, 1045, 1046, 1047, 1048, 1049, 1050, 1051, 1052, 1053, 1054, 1055, 1056, 1057, 1058, 1059, 1060, 1061, 1062, 1063, 1064, 1065, 1066, 1067, 1068, 1069, 1070],
      "AcquisitionTime": ["154430.390000", "154431.180000", "154431.967500", "154432.755000", "154433.542500", "154434.332500", "154435.120000", "154435.907500", "154436.695000", "154437.485000", "154438.272500", "154439.060000", "154439.847500", "154440.637500", "154441.425000", "154442.212500", "154443.000000", "154443.790000", "154444.577500", "154445.365000", "154446.155000", "154446.942500", "154447.730000", "154448.517500", "154449.307500", "154450.095000", "154450.882500", "154451.670000", "154452.460000", "154453.247500", "154454.035000", "154454.822500", "154455.612500", "154456.400000", "154457.187500", "154457.975000", "154458.765000", "154459.552500", "154500.340000", "154501.127500", "154501.917500", "154502.705000", "154503.492500", "154504.282500", "154505.070000", "154505.857500", "154506.645000", "154507.435000", "154508.222500", "154509.010000", "154509.797500", "154510.587500", "154511.375000", "154512.162500", "154512.950000", "154513.740000", "154514.527500", "154515.315000", "154516.102500", "154516.892500", "154517.680000", "154518.467500", "154519.255000", "154520.045000", "154520.832500", "154521.620000", "154522.410000", "154523.197500", "154523.985000", "154524.772500", "154525.562500", "154526.350000", "154527.137500", "154527.925000", "154528.715000", "154529.502500", "154530.290000", "154531.077500", "154531.867500", "154532.655000", "154533.442500", "154534.230000", "154535.020000", "154535.807500", "154536.595000", "154537.382500", "154538.172500", "154538.960000", "154539.747500", "154540.537500", "154541.325000", "154542.112500", "154542.900000", "154543.690000", "154544.477500", "154545.265000", "154546.052500", "154546.842500", "154547.630000", "154548.417500", "154549.205000", "154549.995000", "154550.782500", "154551.570000", "154552.357500", "154553.147500", "154553.935000", "154554.722500", "154555.510000", "154556.300000", "154557.087500", "154557.875000", "154558.665000", "154559.452500", "154600.240000", "154601.027500", "154601.817500", "154602.605000", "154603.392500", "154604.180000", "154604.970000", "154605.757500", "154606.545000", "154607.332500", "154608.122500", "154608.910000", "154609.697500", "154610.485000", "154611.275000", "154612.062500", "154612.850000", "154613.637500", "154614.427500", "154615.215000", "154616.002500", "154616.792500", "154617.580000", "154618.367500", "154619.155000", "154619.945000", "154620.732500", "154621.520000", "154622.307500", "154623.097500", "154623.885000", "154624.672500", "154625.460000", "154626.250000", "154627.037500", "154627.825000", "154628.612500", "154629.402500", "154630.190000", "154630.977500", "154631.765000", "154632.555000", "154633.342500", "154634.130000", "154634.920000", "154635.707500", "154636.495000", "154637.282500", "154638.072500", "154638.860000", "154639.647500", "154640.435000", "154641.225000", "154642.012500", "154642.800000", "154643.587500", "154644.377500", "154645.165000", "154645.952500", "154646.740000", "154647.530000", "154648.317500", "154649.105000", "154649.892500", "154650.682500", "154651.470000", "154652.257500", "154653.047500", "154653.835000", "154654.622500", "154655.410000", "154656.200000", "154656.987500", "154657.775000", "154658.562500", "154659.352500", "154700.140000", "154700.927500", "154701.715000", "154702.505000", "154703.292500", "154704.080000", "154704.867500", "154705.657500", "154706.445000", "154707.232500", "154708.020000", "154708.810000", "154709.597500", "154710.385000", "154711.175000", "154711.962500", "154712.750000", "154713.537500", "154714.327500", "154715.115000", "154715.902500", "154716.690000", "154717.480000", "154718.267500", "154719.055000", "154719.842500", "154720.632500", "154721.420000", "154722.207500", "154722.995000", "154723.785000", "154724.572500", "154725.360000", "154726.150000", "154726.937500", "154727.725000", "154728.512500", "154729.302500", "154730.090000", "154730.877500", "154731.665000", "154732.455000", "154733.242500", "154734.030000", "154734.817500", "154735.607500", "154736.395000", "154737.182500", "154737.970000", "154738.760000", "154739.547500", "154740.335000", "154741.122500", "154741.912500", "154742.700000", "154743.487500", "154744.277500", "154745.065000", "154745.852500", "154746.640000", "154747.430000", "154748.217500", "154749.005000", "154749.792500", "154750.582500", "154751.370000", "154752.157500", "154752.945000", "154753.735000", "154754.522500", "154755.310000", "154756.097500", "154756.887500", "154757.675000", "154758.462500", "154759.250000", "154800.040000", "154800.827500", "154801.615000", "154802.405000", "154803.192500", "154803.980000", "154804.767500", "154805.557500", "154806.345000", "154807.132500", "154807.920000", "154808.710000", "154809.497500", "154810.285000", "154811.072500", "154811.862500", "154812.650000", "154813.437500", "154814.225000", "154815.015000", "154815.802500", "154816.590000", "154817.377500", "154818.167500", "154818.955000", "154819.742500", "154820.532500", "154821.320000", "154822.107500", "154822.895000", "154823.685000", "154824.472500", "154825.260000", "154826.047500", "154826.837500", "154827.625000", "154828.412500", "154829.200000", "154829.990000", "154830.777500", "154831.565000", "154832.352500", "154833.142500", "154833.930000", "154834.717500", "154835.505000", "154836.295000", "154837.082500", "154837.870000", "154838.660000", "154839.447500", "154840.235000", "154841.022500", "154841.812500", "154842.600000", "154843.387500", "154844.175000", "154844.965000", "154845.752500", "154846.540000", "154847.327500", "154848.117500", "154848.905000", "154849.692500", "154850.480000", "154851.270000", "154852.057500", "154852.845000", "154853.632500", "154854.422500", "154855.210000", "154855.997500", "154856.787500", "154857.575000", "154858.362500", "154859.150000", "154859.940000", "154900.727500", "154901.515000", "154902.302500", "154903.092500", "154903.880000", "154904.667500", "154905.455000", "154906.245000", "154907.032500", "154907.820000", "154908.607500", "154909.397500", "154910.185000", "154910.972500", "154911.760000", "154912.550000", "154913.337500", "154914.125000", "154914.915000", "154915.702500", "154916.490000", "154917.277500", "154918.067500", "154918.855000", "154919.642500", "154920.430000", "154921.220000", "154922.007500", "154922.795000", "154923.582500", "154924.372500", "154925.160000", "154925.947500", "154926.735000", "154927.525000", "154928.312500", "154929.100000", "154929.887500", "154930.677500", "154931.465000", "154932.252500", "154933.042500", "154933.830000", "154934.617500", "154935.405000", "154936.195000", "154936.982500", "154937.770000", "154938.557500", "154939.347500", "154940.135000", "154940.922500", "154941.710000", "154942.500000", "154943.287500", "154944.075000", "154944.862500", "154945.652500", "154946.440000", "154947.227500", "154948.015000", "154948.805000", "154949.592500", "154950.380000", "154951.170000", "154951.957500", "154952.745000", "154953.532500", "154954.322500", "154955.110000", "154955.897500", "154956.685000", "154957.475000", "154958.262500", "154959.050000", "154959.837500", "155000.627500", "155001.415000", "155002.202500", "155002.990000", "155003.780000", "155004.567500", "155005.355000", "155006.142500", "155006.932500", "155007.720000", "155008.507500", "155009.297500", "155010.085000", "155010.872500", "155011.660000", "155012.450000", "155013.237500", "155014.025000", "155014.812500", "155015.602500", "155016.390000", "155017.177500", "155017.965000", "155018.755000", "155019.542500", "155020.330000", "155021.117500", "155021.907500", "155022.695000", "155023.482500", "155024.270000", "155025.060000", "155025.847500", "155026.635000", "155027.425000", "155028.212500", "155029.000000", "155029.787500", "155030.577500", "155031.365000", "155032.152500", "155032.940000", "155033.730000", "155034.517500", "155035.305000", "155036.092500", "155036.882500", "155037.670000", "155038.457500", "155039.245000", "155040.035000", "155040.822500", "155041.610000", "155042.400000", "155043.187500", "155043.975000", "155044.762500", "155045.552500", "155046.340000", "155047.127500", "155047.915000", "155048.705000", "155049.492500", "155050.280000", "155051.067500", "155051.857500", "155052.645000", "155053.432500", "155054.220000", "155055.010000", "155055.797500", "155056.585000", "155057.372500", "155058.162500", "155058.950000", "155059.737500", "155100.527500", "155101.315000", "155102.102500", "155102.890000", "155103.680000", "155104.467500", "155105.255000", "155106.042500", "155106.832500", "155107.620000", "155108.407500", "155109.195000", "155109.985000", "155110.772500", "155111.560000", "155112.347500", "155113.137500", "155113.925000", "155114.712500", "155115.500000", "155116.290000", "155117.077500", "155117.865000", "155118.655000", "155119.442500", "155120.230000", "155121.017500", "155121.807500", "155122.595000", "155123.382500", "155124.170000", "155124.960000", "155125.747500", "155126.535000", "155127.322500", "155128.112500", "155128.900000", "155129.687500", "155130.475000", "155131.265000", "155132.052500", "155132.840000", "155133.627500", "155134.417500", "155135.205000", "155135.992500", "155136.782500", "155137.570000", "155138.357500", "155139.145000", "155139.935000", "155140.722500", "155141.510000", "155142.297500", "155143.087500", "155143.875000", "155144.662500", "155145.450000", "155146.240000", "155147.027500", "155147.815000", "155148.602500", "155149.392500", "155150.180000", "155150.967500", "155151.755000", "155152.545000", "155153.332500", "155154.120000", "155154.910000", "155155.697500", "155156.485000", "155157.272500", "155158.062500", "155158.850000", "155159.637500", "155200.425000", "155201.215000", "155202.002500", "155202.790000", "155203.577500", "155204.367500", "155205.155000", "155205.942500", "155206.730000", "155207.520000", "155208.307500", "155209.095000", "155209.882500", "155210.672500", "155211.460000", "155212.247500", "155213.037500", "155213.825000", "155214.612500", "155215.400000", "155216.190000", "155216.977500", "155217.765000", "155218.552500", "155219.342500", "155220.130000", "155220.917500", "155221.705000", "155222.495000", "155223.282500", "155224.070000", "155224.857500", "155225.647500", "155226.435000", "155227.222500", "155228.010000", "155228.800000", "155229.587500", "155230.375000", "155231.165000", "155231.952500", "155232.740000", "155233.527500", "155234.317500", "155235.105000", "155235.892500", "155236.680000", "155237.470000", "155238.257500", "155239.045000", "155239.832500", "155240.622500", "155241.410000", "155242.197500", "155242.985000", "155243.775000", "155244.562500", "155245.350000", "155246.137500", "155246.927500", "155247.715000", "155248.502500", "155249.292500", "155250.080000", "155250.867500", "155251.655000", "155252.445000", "155253.232500", "155254.020000", "155254.807500", "155255.597500", "155256.385000", "155257.172500", "155257.960000", "155258.750000", "155259.537500", "155300.325000", "155301.112500", "155301.902500", "155302.690000", "155303.477500", "155304.265000", "155305.055000", "155305.842500", "155306.630000", "155307.420000", "155308.207500", "155308.995000", "155309.782500", "155310.572500", "155311.360000", "155312.147500", "155312.935000", "155313.725000", "155314.512500", "155315.300000", "155316.087500", "155316.877500", "155317.665000", "155318.452500", "155319.240000", "155320.030000", "155320.817500", "155321.605000", "155322.392500", "155323.182500", "155323.970000", "155324.757500", "155325.547500", "155326.335000", "155327.122500", "155327.910000", "155328.700000", "155329.487500", "155330.275000", "155331.062500", "155331.852500", "155332.640000", "155333.427500", "155334.215000", "155335.005000", "155335.792500", "155336.580000", "155337.367500", "155338.157500", "155338.945000", "155339.732500", "155340.520000", "155341.310000", "155342.097500", "155342.885000", "155343.675000", "155344.462500", "155345.250000", "155346.037500", "155346.827500", "155347.615000", "155348.402500", "155349.190000", "155349.980000", "155350.767500", "155351.555000", "155352.342500", "155353.132500", "155353.920000", "155354.707500", "155355.495000", "155356.285000", "155357.072500", "155357.860000", "155358.650000", "155359.437500", "155400.225000", "155401.012500", "155401.802500", "155402.590000", "155403.377500", "155404.165000", "155404.955000", "155405.742500", "155406.530000", "155407.317500", "155408.107500", "155408.895000", "155409.682500", "155410.470000", "155411.260000", "155412.047500", "155412.835000", "155413.622500", "155414.412500", "155415.200000", "155415.987500", "155416.777500", "155417.565000", "155418.352500", "155419.140000", "155419.930000", "155420.717500", "155421.505000", "155422.292500", "155423.082500", "155423.870000", "155424.657500", "155425.445000", "155426.235000", "155427.022500", "155427.810000", "155428.597500", "155429.387500", "155430.175000", "155430.962500", "155431.750000", "155432.540000", "155433.327500", "155434.115000", "155434.905000", "155435.692500", "155436.480000", "155437.267500", "155438.057500", "155438.845000", "155439.632500", "155440.420000", "155441.210000", "155441.997500", "155442.785000", "155443.572500", "155444.362500", "155445.150000", "155445.937500", "155446.725000", "155447.515000", "155448.302500", "155449.090000", "155449.877500", "155450.667500", "155451.455000", "155452.242500", "155453.032500", "155453.820000", "155454.607500", "155455.395000", "155456.185000", "155456.972500", "155457.760000", "155458.547500", "155459.337500", "155500.125000", "155500.912500", "155501.700000", "155502.490000", "155503.277500", "155504.065000", "155504.852500", "155505.642500", "155506.430000", "155507.217500", "155508.005000", "155508.795000", "155509.582500", "155510.370000", "155511.160000", "155511.947500", "155512.735000", "155513.522500", "155514.312500", "155515.100000", "155515.887500", "155516.675000", "155517.465000", "155518.252500", "155519.040000", "155519.827500", "155520.617500", "155521.405000", "155522.192500", "155522.980000", "155523.770000", "155524.557500", "155525.345000", "155526.132500", "155526.922500", "155527.710000", "155528.497500", "155529.287500", "155530.075000", "155530.862500", "155531.650000", "155532.440000", "155533.227500", "155534.015000", "155534.802500", "155535.592500", "155536.380000", "155537.167500", "155537.955000", "155538.745000", "155539.532500", "155540.320000", "155541.107500", "155541.897500", "155542.685000", "155543.472500", "155544.260000", "155545.050000", "155545.837500", "155546.625000", "155547.415000", "155548.202500", "155548.990000", "155549.777500", "155550.567500", "155551.355000", "155552.142500", "155552.930000", "155553.720000", "155554.507500", "155555.295000", "155556.082500", "155556.872500", "155557.660000", "155558.447500", "155559.235000", "155600.025000", "155600.812500", "155601.600000", "155602.387500", "155603.177500", "155603.965000", "155604.752500", "155605.542500", "155606.330000", "155607.117500", "155607.905000", "155608.695000", "155609.482500", "155610.270000", "155611.057500", "155611.847500", "155612.635000", "155613.422500", "155614.210000", "155615.000000", "155615.787500", "155616.575000", "155617.362500", "155618.152500", "155618.940000", "155619.727500", "155620.515000", "155621.305000", "155622.092500", "155622.880000", "155623.670000", "155624.457500", "155625.245000", "155626.032500", "155626.822500", "155627.610000", "155628.397500", "155629.185000", "155629.975000", "155630.762500", "155631.550000", "155632.337500", "155633.127500", "155633.915000", "155634.702500", "155635.490000", "155636.280000", "155637.067500", "155637.855000", "155638.642500", "155639.432500", "155640.220000", "155641.007500", "155641.797500", "155642.585000", "155643.372500", "155644.160000", "155644.950000", "155645.737500", "155646.525000", "155647.312500", "155648.102500", "155648.890000", "155649.677500", "155650.465000", "155651.255000", "155652.042500", "155652.830000", "155653.617500", "155654.407500", "155655.195000", "155655.982500", "155656.770000", "155657.560000", "155658.347500", "155659.135000", "155659.925000", "155700.712500", "155701.500000", "155702.287500", "155703.077500", "155703.865000", "155704.652500", "155705.440000", "155706.230000", "155707.017500", "155707.805000", "155708.592500", "155709.382500", "155710.170000", "155710.957500", "155711.745000", "155712.535000", "155713.322500", "155714.110000", "155714.900000", "155715.687500", "155716.475000", "155717.262500", "155718.052500", "155718.840000", "155719.627500", "155720.415000", "155721.205000", "155721.992500", "155722.780000", "155723.567500", "155724.357500", "155725.145000", "155725.932500", "155726.720000", "155727.510000", "155728.297500", "155729.085000", "155729.872500", "155730.662500", "155731.450000", "155732.237500", "155733.027500", "155733.815000", "155734.602500", "155735.390000", "155736.180000", "155736.967500", "155737.755000", "155738.542500", "155739.332500", "155740.120000", "155740.907500", "155741.695000", "155742.485000", "155743.272500", "155744.060000", "155744.847500", "155745.637500", "155746.425000", "155747.212500", "155748.000000", "155748.790000", "155749.577500", "155750.365000", "155751.155000", "155751.942500", "155752.730000", "155753.517500", "155754.307500", "155755.095000", "155755.882500", "155756.670000", "155757.460000", "155758.247500", "155759.035000", "155759.822500", "155800.612500", "155801.400000", "155802.187500", "155802.975000", "155803.765000", "155804.552500", "155805.340000", "155806.127500", "155806.917500", "155807.705000", "155808.492500", "155809.282500", "155810.070000", "155810.857500", "155811.645000", "155812.435000", "155813.222500", "155814.010000", "155814.797500", "155815.587500", "155816.375000", "155817.162500", "155817.950000", "155818.740000", "155819.527500", "155820.315000", "155821.102500", "155821.892500", "155822.680000", "155823.467500", "155824.255000", "155825.045000", "155825.832500", "155826.620000", "155827.410000", "155828.197500", "155828.985000", "155829.772500", "155830.562500", "155831.350000", "155832.137500", "155832.925000"],
