{
  "AcquisitionMatrixPE": 104,
  "AcquisitionNumber": 1,
  "AcquisitionTime": "16:53:4.732500",
  "BandwidthPerPixelPhaseEncode": 13.935,
  "BaseResolution": 104,
  "CoilString": "C:HEA;HEP",
  "ConversionSoftware": "dcm2niix",
  "ConversionSoftwareVersion": "v1.0.20210317",
  "DerivedVendorReportedEchoSpacing": 0.000690017,
  "DeviceSerialNumber": "35450",
  "DwellTime": 2.5e-06,
  "EchoTime": 0.0348,
  "EffectiveEchoSpacing": 0.000690017,
  "FlipAngle": 55,
  "ImageComments": "Unaliased MB8/PE3 (remote)",
  "ImageOrientationPatientDICOM": [1, 0, 0, 0, 0.997185, -0.0749787],
  "ImageType": [
    "ORIGINAL",
    "PRIMARY",
    "M",
    "MB",
    "ND",
    "MOSAIC"
],
  "ImagingFrequency": 123.235,
  "InPlanePhaseEncodingDirectionDICOM": "COL",
  "InstitutionAddress": "Univeristy Ave. 197,Newark,North East,US,07102-1814",
  "InstitutionName": "RUBIC",
  "InstitutionalDepartmentName": "Department",
  "MRAcquisitionType": "2D",
  "MagneticFieldStrength": 3,
  "Manufacturer": "Siemens",
  "ManufacturersModelName": "TrioTim",
  "Modality": "MR",
  "MultibandAccelerationFactor": 8,
  "PartialFourier": 0.875,
  "PatientPosition": "HFS",
  "PercentPhaseFOV": 100,
  "PercentSampling": 100,
  "PhaseEncodingDirection": "j-",
  "PhaseEncodingSteps": 91,
  "PhaseResolution": 1,
  "PixelBandwidth": 1923,
  "ProcedureStepDescription": "Cole^Michael",
  "ProtocolName": "cmrr_mbep2d_bold_2mm_MB8_Task_8x",
  "PulseSequenceDetails": "%CustomerSeq%\\cmrr_mbep2d_bold",
  "ReceiveCoilName": "32Ch_Head",
  "ReconMatrixPE": 104,
  "RepetitionTime": 0.785,
  "SAR": 0.13314,
  "ScanOptions": "PFP\\FS",
  "ScanningSequence": "EP",
  "SequenceName": "epfid2d1_104",
  "SequenceVariant": "SK\\SS",
  "SeriesDescription": "cmrr_mbep2d_bold_2mm_MB8_Task_8x",
  "SeriesNumber": 23,
  "ShimSetting": [2078, -355, -7378, 494, -16, 134, 85, 92],
  "SliceThickness": 2,
  "SliceTiming": [0, 0.4375, 0.0875, 0.525, 0.175, 0.6125, 0.2625, 0.7, 0.35, 0, 0.4375, 0.0875, 0.525, 0.175, 0.6125, 0.2625, 0.7, 0.35, 0, 0.4375, 0.0875, 0.525, 0.175, 0.6125, 0.2625, 0.7, 0.35, 0, 0.4375, 0.0875, 0.525, 0.175, 0.6125, 0.2625, 0.7, 0.35, 0, 0.4375, 0.0875, 0.525, 0.175, 0.6125, 0.2625, 0.7, 0.35, 0, 0.4375, 0.0875, 0.525, 0.175, 0.6125, 0.2625, 0.7, 0.35, 0, 0.4375, 0.0875, 0.525, 0.175, 0.6125, 0.2625, 0.7, 0.35, 0, 0.4375, 0.0875, 0.525, 0.175, 0.6125, 0.2625, 0.7, 0.35],
  "SoftwareVersions": "syngo MR B19",
  "SpacingBetweenSlices": 2,
  "StationName": "MRC35450",
  "TaskName": "cpro",
  "TotalReadoutTime": 0.0710717,
  "TxRefAmp": 324.938,
  "dcmmeta_affine": [
    [-2.0, 0.0, 0.0, 105.3559341430664],
    [0.0, 1.9943702220916748, -0.14995744824409485, -71.33765411376953],
    [0.0, 0.14995744824409485, 1.9943702220916748, -97.89212799072266],
    [0.0, 0.0, 0.0, 1.0]
],
  "dcmmeta_reorient_transform": [
    [0.0, -1.0, 0.0, 103.0],
    [1.0, 0.0, 0.0, 0.0],
    [0.0, 0.0, 1.0, 0.0],
    [0.0, 0.0, 0.0, 1.0]
],
  "dcmmeta_shape": [104, 104, 72, 581],
  "dcmmeta_slice_dim": 2,
  "dcmmeta_version": 0.6,
  "global": {
    "const": {
      "AcquisitionMatrix": [104, 0, 0, 104],
      "AngioFlag": "N",
      "BitsAllocated": 16,
      "BitsStored": 12,
      "Columns": 936,
      "EchoNumbers": 1,
      "EchoTime": 34.8,
      "EchoTrainLength": 1,
      "FlipAngle": 55.0,
      "HighBit": 11,
      "ImageOrientationPatient": [1.0, 0.0, 0.0, 0.0, 0.99718513348179, -0.0749787274025],
      "ImagePositionPatient": [-937.35593223572, -963.74051191344, -20.064211993505],
      "ImageType": [
        "ORIGINAL",
        "PRIMARY",
        "M",
        "MB",
        "ND",
        "MOSAIC"
],
      "ImagedNucleus": "1H",
      "ImagingFrequency": 123.234511,
      "InPlanePhaseEncodingDirection": "COL",
      "MRAcquisitionType": "2D",
      "MagneticFieldStrength": 3.0,
      "Manufacturer": "SIEMENS",
      "ManufacturerModelName": "TrioTim",
      "Modality": "MR",
      "NumberOfAverages": 1.0,
      "NumberOfPhaseEncodingSteps": 91,
      "PercentPhaseFieldOfView": 100.0,
      "PercentSampling": 100.0,
      "PerformedProcedureStepStartTime": "150854.796000",
      "PhotometricInterpretation": "MONOCHROME2",
      "PixelBandwidth": 1923.0,
      "PixelRepresentation": 0,
      "PixelSpacing": [2.0, 2.0],
      "ProtocolName": "cmrr_mbep2d_bold_2mm_MB8_Task_8x",
      "RepetitionTime": 785.0,
      "Rows": 936,
      "SAR": 0.13314031572677,
      "SamplesPerPixel": 1,
      "ScanOptions": [
        "PFP",
        "FS"
],
      "ScanningSequence": "EP",
      "SequenceName": "epfid2d1_104",
      "SequenceVariant": [
        "SK",
        "SS"
],
      "SeriesDescription": "cmrr_mbep2d_bold_2mm_MB8_Task_8x",
      "SeriesNumber": 23,
      "SeriesTime": "165323.296000",
      "SliceLocation": -92.267771044495,
      "SliceThickness": 2.0,
      "SmallestImagePixelValue": 0,
      "SoftwareVersions": "syngo MR B19",
      "SpacingBetweenSlices": 1.9999999931387,
      "SpecificCharacterSet": "ISO_IR 100",
      "StudyID": "1",
      "StudyTime": "150854.718000",
      "TransmitCoilName": "Body",
      "VariableFlipAngleFlag": "N",
      "WindowCenterWidthExplanation": "Algo1",
      "dBdt": 0.0},
    "slices": {}
  },
  "time": {
    "samples": {
      "AcquisitionNumber": [1, 2, 3, 4, 5, 6, 7, 8, 9, 10, 11, 12, 13, 14, 15, 16, 17, 18, 19, 20, 21, 22, 23, 24, 25, 26, 27, 28, 29, 30, 31, 32, 33, 34, 35, 36, 37, 38, 39, 40, 41, 42, 43, 44, 45, 46, 47, 48, 49, 50, 51, 52, 53, 54, 55, 56, 57, 58, 59, 60, 61, 62, 63, 64, 65, 66, 67, 68, 69, 70, 71, 72, 73, 74, 75, 76, 77, 78, 79, 80, 81, 82, 83, 84, 85, 86, 87, 88, 89, 90, 91, 92, 93, 94, 95, 96, 97, 98, 99, 100, 101, 102, 103, 104, 105, 106, 107, 108, 109, 110, 111, 112, 113, 114, 115, 116, 117, 118, 119, 120, 121, 122, 123, 124, 125, 126, 127, 128, 129, 130, 131, 132, 133, 134, 135, 136, 137, 138, 139, 140, 141, 142, 143, 144, 145, 146, 147, 148, 149, 150, 151, 152, 153, 154, 155, 156, 157, 158, 159, 160, 161, 162, 163, 164, 165, 166, 167, 168, 169, 170, 171, 172, 173, 174, 175, 176, 177, 178, 179, 180, 181, 182, 183, 184, 185, 186, 187, 188, 189, 190, 191, 192, 193, 194, 195, 196, 197, 198, 199, 200, 201, 202, 203, 204, 205, 206, 207, 208, 209, 210, 211, 212, 213, 214, 215, 216, 217, 218, 219, 220, 221, 222, 223, 224, 225, 226, 227, 228, 229, 230, 231, 232, 233, 234, 235, 236, 237, 238, 239, 240, 241, 242, 243, 244, 245, 246, 247, 248, 249, 250, 251, 252, 253, 254, 255, 256, 257, 258, 259, 260, 261, 262, 263, 264, 265, 266, 267, 268, 269, 270, 271, 272, 273, 274, 275, 276, 277, 278, 279, 280, 281, 282, 283, 284, 285, 286, 287, 288, 289, 290, 291, 292, 293, 294, 295, 296, 297, 298, 299, 300, 301, 302, 303, 304, 305, 306, 307, 308, 309, 310, 311, 312, 313, 314, 315, 316, 317, 318, 319, 320, 321, 322, 323, 324, 325, 326, 327, 328, 329, 330, 331, 332, 333, 334, 335, 336, 337, 338, 339, 340, 341, 342, 343, 344, 345, 346, 347, 348, 349, 350, 351, 352, 353, 354, 355, 356, 357, 358, 359, 360, 361, 362, 363, 364, 365, 366, 367, 368, 369, 370, 371, 372, 373, 374, 375, 376, 377, 378, 379, 380, 381, 382, 383, 384, 385, 386, 387, 388, 389, 390, 391, 392, 393, 394, 395, 396, 397, 398, 399, 400, 401, 402, 403, 404, 405, 406, 407, 408, 409, 410, 411, 412, 413, 414, 415, 416, 417, 418, 419, 420, 421, 422, 423, 424, 425, 426, 427, 428, 429, 430, 431, 432, 433, 434, 435, 436, 437, 438, 439, 440, 441, 442, 443, 444, 445, 446, 447, 448, 449, 450, 451, 452, 453, 454, 455, 456, 457, 458, 459, 460, 461, 462, 463, 464, 465, 466, 467, 468, 469, 470, 471, 472, 473, 474, 475, 476, 477, 478, 479, 480, 481, 482, 483, 484, 485, 486, 487, 488, 489, 490, 491, 492, 493, 494, 495, 496, 497, 498, 499, 500, 501, 502, 503, 504, 505, 506, 507, 508, 509, 510, 511, 512, 513, 514, 515, 516, 517, 518, 519, 520, 521, 522, 523, 524, 525, 526, 527, 528, 529, 530, 531, 532, 533, 534, 535, 536, 537, 538, 539, 540, 541, 542, 543, 544, 545, 546, 547, 548, 549, 550, 551, 552, 553, 554, 555, 556, 557, 558, 559, 560, 561, 562, 563, 564, 565, 566, 567, 568, 569, 570, 571, 572, 573, 574, 575, 576, 577, 578, 579, 580, 581],
      "AcquisitionTime": ["165304.732500", "165305.520000", "165306.307500", "165307.097500", "165307.885000", "165308.672500", "165309.460000", "165310.250000", "165311.037500", "165311.825000", "165312.615000", "165313.402500", "165314.190000", "165314.977500", "165315.767500", "165316.555000", "165317.342500", "165318.130000", "165318.920000", "165319.707500", "165320.495000", "165321.282500", "165322.072500", "165322.860000", "165323.647500", "165324.435000", "165325.225000", "165326.012500", "165326.800000", "165327.587500", "165328.377500", "165329.165000", "165329.952500", "165330.742500", "165331.530000", "165332.317500", "165333.105000", "165333.895000", "165334.682500", "165335.470000", "165336.257500", "165337.047500", "165337.835000", "165338.622500", "165339.410000", "165340.200000", "165340.987500", "165341.775000", "165342.562500", "165343.352500", "165344.140000", "165344.927500", "165345.715000", "165346.505000", "165347.292500", "165348.080000", "165348.870000", "165349.657500", "165350.445000", "165351.232500", "165352.022500", "165352.810000", "165353.597500", "165354.385000", "165355.175000", "165355.962500", "165356.750000", "165357.537500", "165358.327500", "165359.115000", "165359.902500", "165400.690000", "165401.480000", "165402.267500", "165403.055000", "165403.842500", "165404.632500", "165405.420000", "165406.207500", "165406.997500", "165407.785000", "165408.572500", "165409.360000", "165410.150000", "165410.937500", "165411.725000", "165412.512500", "165413.302500", "165414.090000", "165414.877500", "165415.665000", "165416.455000", "165417.242500", "165418.030000", "165418.817500", "165419.607500", "165420.395000", "165421.182500", "165421.970000", "165422.760000", "165423.547500", "165424.335000", "165425.125000", "165425.912500", "165426.700000", "165427.487500", "165428.277500", "165429.065000", "165429.852500", "165430.640000", "165431.430000", "165432.217500", "165433.005000", "165433.792500", "165434.582500", "165435.370000", "165436.157500", "165436.945000", "165437.735000", "165438.522500", "165439.310000", "165440.097500", "165440.887500", "165441.675000", "165442.462500", "165443.252500", "165444.040000", "165444.827500", "165445.615000", "165446.405000", "165447.192500", "165447.980000", "165448.767500", "165449.557500", "165450.345000", "165451.132500", "165451.920000", "165452.710000", "165453.497500", "165454.285000", "165455.072500", "165455.862500", "165456.650000", "165457.437500", "165458.225000", "165459.015000", "165459.802500", "165500.590000", "165501.380000", "165502.167500", "165502.955000", "165503.742500", "165504.532500", "165505.320000", "165506.107500", "165506.895000", "165507.685000", "165508.472500", "165509.260000", "165510.047500", "165510.837500", "165511.625000", "165512.412500", "165513.200000", "165513.990000", "165514.777500", "165515.565000", "165516.352500", "165517.142500", "165517.930000", "165518.717500", "165519.507500", "165520.295000", "165521.082500", "165521.870000", "165522.660000", "165523.447500", "165524.235000", "165525.022500", "165525.812500", "165526.600000", "165527.387500", "165528.175000", "165528.965000", "165529.752500", "165530.540000", "165531.327500", "165532.117500", "165532.905000", "165533.692500", "165534.480000", "165535.270000", "165536.057500", "165536.845000", "165537.635000", "165538.422500", "165539.210000", "165539.997500", "165540.787500", "165541.575000", "165542.362500", "165543.150000", "165543.940000", "165544.727500", "165545.515000", "165546.302500", "165547.092500", "165547.880000", "165548.667500", "165549.455000", "165550.245000", "165551.032500", "165551.820000", "165552.610000", "165553.397500", "165554.185000", "165554.972500", "165555.762500", "165556.550000", "165557.337500", "165558.125000", "165558.915000", "165559.702500", "165600.490000", "165601.277500", "165602.067500", "165602.855000", "165603.642500", "165604.430000", "165605.220000", "165606.007500", "165606.795000", "165607.582500", "165608.372500", "165609.160000", "165609.947500", "165610.737500", "165611.525000", "165612.312500", "165613.100000", "165613.890000", "165614.677500", "165615.465000", "165616.252500", "165617.042500", "165617.830000", "165618.617500", "165619.405000", "165620.195000", "165620.982500", "165621.770000", "165622.557500", "165623.347500", "165624.135000", "165624.922500", "165625.710000", "165626.500000", "165627.287500", "165628.075000", "165628.865000", "165629.652500", "165630.440000", "165631.227500", "165632.017500", "165632.805000", "165633.592500", "165634.380000", "165635.170000", "165635.957500", "165636.745000", "165637.532500", "165638.322500", "165639.110000", "165639.897500", "165640.685000", "165641.475000", "165642.262500", "165643.050000", "165643.837500", "165644.627500", "165645.415000", "165646.202500", "165646.992500", "165647.780000", "165648.567500", "165649.355000", "165650.145000", "165650.932500", "165651.720000", "165652.507500", "165653.297500", "165654.085000", "165654.872500", "165655.660000", "165656.450000", "165657.237500", "165658.025000", "165658.812500", "165659.602500", "165700.390000", "165701.177500", "165701.965000", "165702.755000", "165703.542500", "165704.330000", "165705.120000", "165705.907500", "165706.695000", "165707.482500", "165708.272500", "165709.060000", "165709.847500", "165710.635000", "165711.425000", "165712.212500", "165713.000000", "165713.787500", "165714.577500", "165715.365000", "165716.152500", "165716.940000", "165717.730000", "165718.517500", "165719.305000", "165720.092500", "165720.882500", "165721.670000", "165722.457500", "165723.247500", "165724.035000", "165724.822500", "165725.610000", "165726.400000", "165727.187500", "165727.975000", "165728.762500", "165729.552500", "165730.340000", "165731.127500", "165731.915000", "165732.705000", "165733.492500", "165734.280000", "165735.067500", "165735.857500", "165736.645000", "165737.432500", "165738.220000", "165739.010000", "165739.797500", "165740.585000", "165741.375000", "165742.162500", "165742.950000", "165743.737500", "165744.527500", "165745.315000", "165746.102500", "165746.890000", "165747.680000", "165748.467500", "165749.255000", "165750.042500", "165750.832500", "165751.620000", "165752.407500", "165753.195000", "165753.985000", "165754.772500", "165755.560000", "165756.347500", "165757.137500", "165757.925000", "165758.712500", "165759.502500", "165800.290000", "165801.077500", "165801.865000", "165802.655000", "165803.442500", "165804.230000", "165805.017500", "165805.807500", "165806.595000", "165807.382500", "165808.170000", "165808.960000", "165809.747500", "165810.535000", "165811.322500", "165812.112500", "165812.900000", "165813.687500", "165814.475000", "165815.265000", "165816.052500", "165816.840000", "165817.630000", "165818.417500", "165819.205000", "165819.992500", "165820.782500", "165821.570000", "165822.357500", "165823.145000", "165823.935000", "165824.722500", "165825.510000", "165826.297500", "165827.087500", "165827.875000", "165828.662500", "165829.450000", "165830.240000", "165831.027500", "165831.815000", "165832.602500", "165833.392500", "165834.180000", "165834.967500", "165835.757500", "165836.545000", "165837.332500", "165838.120000", "165838.910000", "165839.697500", "165840.485000", "165841.272500", "165842.062500", "165842.850000", "165843.637500", "165844.425000", "165845.215000", "165846.002500", "165846.790000", "165847.577500", "165848.367500", "165849.155000", "165849.942500", "165850.730000", "165851.520000", "165852.307500", "165853.095000", "165853.885000", "165854.672500", "165855.460000", "165856.247500", "165857.037500", "165857.825000", "165858.612500", "165859.400000", "165900.190000", "165900.977500", "165901.765000", "165902.552500", "165903.342500", "165904.130000", "165904.917500", "165905.705000", "165906.495000", "165907.282500", "165908.070000", "165908.860000", "165909.647500", "165910.435000", "165911.222500", "165912.012500", "165912.800000", "165913.587500", "165914.375000", "165915.165000", "165915.952500", "165916.740000", "165917.527500", "165918.317500", "165919.105000", "165919.892500", "165920.680000", "165921.470000", "165922.257500", "165923.045000", "165923.832500", "165924.622500", "165925.410000", "165926.197500", "165926.987500", "165927.775000", "165928.562500", "165929.350000", "165930.140000", "165930.927500", "165931.715000", "165932.502500", "165933.292500", "165934.080000", "165934.867500", "165935.655000", "165936.445000", "165937.232500", "165938.020000", "165938.807500", "165939.597500", "165940.385000", "165941.172500", "165941.960000", "165942.750000", "165943.537500", "165944.325000", "165945.115000", "165945.902500", "165946.690000", "165947.477500", "165948.267500", "165949.055000", "165949.842500", "165950.630000", "165951.420000", "165952.207500", "165952.995000", "165953.782500", "165954.572500", "165955.360000", "165956.147500", "165956.935000", "165957.725000", "165958.512500", "165959.300000", "170000.087500", "170000.877500", "170001.665000", "170002.452500", "170003.242500", "170004.030000", "170004.817500", "170005.605000", "170006.395000", "170007.182500", "170007.970000", "170008.757500", "170009.547500", "170010.335000", "170011.122500", "170011.910000", "170012.700000", "170013.487500", "170014.275000", "170015.062500", "170015.852500", "170016.640000", "170017.427500", "170018.215000", "170019.005000", "170019.792500", "170020.580000", "170021.370000", "170022.157500", "170022.945000", "170023.732500", "170024.522500", "170025.310000", "170026.097500", "170026.885000", "170027.675000", "170028.462500", "170029.250000", "170030.037500", "170030.827500", "170031.615000", "170032.402500", "170033.190000", "170033.980000", "170034.767500", "170035.555000", "170036.342500", "170037.132500", "170037.920000", "170038.707500", "170039.497500", "170040.285000", "170041.072500", "170041.860000"],
      "ContentTime": ["165323.312000", "165323.312000", "165323.312000", "165323.312000", "165323.312000", "165323.312000", "165323.328000", "165323.328000", "165323.328000", "165323.328000", "165323.328000", "165323.328000", "165323.328000", "165323.343000", "165323.343000", "165323.343000", "165323.343000", "165323.343000", "165323.343000", "165323.343000", "165343.281000", "165343.281000", "165343.281000", "165343.281000", "165343.281000", "165343.281000", "165343.296000", "165343.296000", "165343.296000", "165343.296000", "165343.296000", "165343.296000", "165343.296000", "165343.312000", "165343.312000", "165343.312000", "165343.312000", "165343.312000", "165343.312000", "165343.312000", "165343.328000", "165343.328000", "165343.328000", "165343.328000", "165343.343000", "165403.281000", "165403.281000", "165403.281000", "165403.281000", "165403.281000", "165403.296000", "165403.296000", "165403.296000", "165403.296000", "165403.296000", "165403.296000", "165403.296000", "165403.312000", "165403.312000", "165403.312000", "165403.312000", "165403.312000", "165403.312000", "165403.312000", "165403.328000", "165403.328000", "165403.328000", "165403.328000", "165403.328000", "165403.328000", "165403.328000", "165423.281000", "165423.281000", "165423.281000", "165423.281000", "165423.281000", "165423.281000", "165423.296000", "165423.296000", "165423.296000", "165423.296000", "165423.296000", "165423.296000", "165423.296000", "165423.312000", "165423.312000", "165423.312000", "165423.312000", "165423.312000", "165423.312000", "165423.312000", "165423.328000", "165423.328000", "165423.328000", "165423.328000", "165423.328000", "165443.281000", "165443.281000", "165443.281000", "165443.281000", "165443.281000", "165443.281000", "165443.296000", "165443.296000", "165443.296000", "165443.296000", "165443.296000", "165443.296000", "165443.296000", "165443.312000", "165443.312000", "165443.312000", "165443.312000", "165443.312000", "165443.312000", "165443.312000", "165443.328000", "165443.328000", "165443.328000", "165443.328000", "165443.328000", "165503.281000", "165503.281000", "165503.281000", "165503.281000", "165503.281000", "165503.281000", "165503.296000", "165503.296000", "165503.296000", "165503.296000", "165503.296000", "165503.296000", "165503.296000", "165503.312000", "165503.312000", "165503.312000", "165503.312000", "165503.312000", "165503.312000", "165503.312000", "165503.328000", "165503.328000", "165503.328000", "165503.328000", "165503.328000", "165503.328000", "165523.281000", "165523.281000", "165523.281000", "165523.281000", "165523.281000", "165523.281000", "165523.296000", "165523.296000", "165523.296000", "165523.296000", "165523.296000", "165523.296000", "165523.312000", "165523.312000", "165523.312000", "165523.312000", "165523.312000", "165523.312000", "165523.312000", "165523.328000", "165523.328000", "165523.328000", "165523.328000", "165523.328000", "165523.328000", "165543.281000", "165543.281000", "165543.281000", "165543.281000", "165543.281000", "165543.281000", "165543.296000", "165543.296000", "165543.296000", "165543.296000", "165543.296000", "165543.296000", "165543.296000", "165543.312000", "165543.312000", "165543.312000", "165543.312000", "165543.312000", "165543.312000", "165543.312000", "165543.328000", "165543.328000", "165543.328000", "165543.328000", "165543.328000", "165543.328000", "165603.281000", "165603.281000", "165603.281000", "165603.281000", "165603.281000", "165603.281000", "165603.296000", "165603.296000", "165603.296000", "165603.296000", "165603.296000", "165603.296000", "165603.312000", "165603.312000", "165603.312000", "165603.312000", "165603.312000", "165603.312000", "165603.312000", "165603.328000", "165603.328000", "165603.328000", "165603.328000", "165603.328000", "165603.343000", "165623.281000", "165623.281000", "165623.296000", "165623.296000", "165623.296000", "165623.296000", "165623.296000", "165623.296000", "165623.296000", "165623.312000", "165623.312000", "165623.312000", "165623.312000", "165623.312000", "165623.312000", "165623.312000", "165623.328000", "165623.328000", "165623.328000", "165623.328000", "165623.328000", "165623.328000", "165623.328000", "165623.343000", "165623.343000", "165623.343000", "165643.281000", "165643.281000", "165643.281000", "165643.281000", "165643.281000", "165643.281000", "165643.296000", "165643.296000", "165643.296000", "165643.296000", "165643.296000", "165643.296000", "165643.296000", "165643.312000", "165643.312000", "165643.312000", "165643.312000", "165643.312000", "165643.312000", "165643.312000", "165643.328000", "165643.328000", "165643.328000", "165643.328000", "165643.328000", "165703.281000", "165703.281000", "165703.281000", "165703.281000", "165703.281000", "165703.281000", "165703.296000", "165703.296000", "165703.296000", "165703.296000", "165703.296000", "165703.296000", "165703.296000", "165703.312000", "165703.312000", "165703.312000", "165703.312000", "165703.312000", "165703.312000", "165703.312000", "165703.328000", "165703.328000", "165703.328000", "165703.328000", "165703.328000", "165703.328000", "165723.281000", "165723.281000", "165723.281000", "165723.281000", "165723.281000", "165723.281000", "165723.296000", "165723.296000", "165723.296000", "165723.296000", "165723.296000", "165723.296000", "165723.296000", "165723.312000", "165723.312000", "165723.312000", "165723.312000", "165723.312000", "165723.312000", "165723.312000", "165723.328000", "165723.328000", "165723.328000", "165723.328000", "165723.328000", "165743.281000", "165743.281000", "165743.281000", "165743.281000", "165743.281000", "165743.281000", "165743.296000", "165743.296000", "165743.296000", "165743.296000", "165743.296000", "165743.296000", "165743.296000", "165743.312000", "165743.312000", "165743.312000", "165743.312000", "165743.312000", "165743.312000", "165743.328000", "165743.328000", "165743.328000", "165743.328000", "165743.328000", "165743.328000", "165743.328000", "165803.281000", "165803.281000", "165803.281000", "165803.281000", "165803.281000", "165803.281000", "165803.296000", "165803.296000", "165803.296000", "165803.296000", "165803.296000", "165803.296000", "165803.296000", "165803.312000", "165803.312000", "165803.312000", "165803.312000", "165803.312000", "165803.312000", "165803.312000", "165803.328000", "165803.328000", "165803.328000", "165803.328000", "165803.328000", "165823.281000", "165823.281000", "165823.281000", "165823.281000", "165823.281000", "165823.281000", "165823.296000", "165823.296000", "165823.296000", "165823.312000", "165823.312000", "165823.312000", "165823.312000", "165823.312000", "165823.312000", "165823.312000", "165823.328000", "165823.328000", "165823.328000", "165823.328000", "165823.328000", "165823.328000", "165823.328000", "165823.343000", "165823.343000", "165823.343000", "165843.281000", "165843.281000", "165843.281000", "165843.281000", "165843.281000", "165843.281000", "165843.296000", "165843.296000", "165843.296000", "165843.296000", "165843.296000", "165843.296000", "165843.296000", "165843.312000", "165843.312000", "165843.312000", "165843.312000", "165843.312000", "165843.312000", "165843.312000", "165843.328000", "165843.328000", "165843.328000", "165843.328000", "165843.328000", "165903.281000", "165903.281000", "165903.281000", "165903.281000", "165903.281000", "165903.281000", "165903.296000", "165903.296000", "165903.296000", "165903.296000", "165903.296000", "165903.296000", "165903.296000", "165903.312000", "165903.312000", "165903.312000", "165903.312000", "165903.312000", "165903.328000", "165903.328000", "165903.328000", "165903.328000", "165903.328000", "165903.328000", "165903.328000", "165903.343000", "165923.281000", "165923.281000", "165923.281000", "165923.281000", "165923.281000", "165923.281000", "165923.296000", "165923.296000", "165923.296000", "165923.296000", "165923.296000", "165923.296000", "165923.296000", "165923.312000", "165923.312000", "165923.312000", "165923.312000", "165923.312000", "165923.312000", "165923.312000", "165923.328000", "165923.328000", "165923.328000", "165923.328000", "165923.328000", "165943.281000", "165943.281000", "165943.281000", "165943.281000", "165943.296000", "165943.296000", "165943.296000", "165943.296000", "165943.296000", "165943.296000", "165943.296000", "165943.312000", "165943.312000", "165943.312000", "165943.312000", "165943.312000", "165943.312000", "165943.312000", "165943.328000", "165943.328000", "165943.328000", "165943.328000", "165943.328000", "165943.328000", "165943.343000", "165943.343000", "170003.281000", "170003.281000", "170003.281000", "170003.281000", "170003.281000", "170003.281000", "170003.296000", "170003.296000", "170003.296000", "170003.296000", "170003.296000", "170003.296000", "170003.296000", "170003.312000", "170003.312000", "170003.312000", "170003.312000", "170003.312000", "170003.312000", "170003.312000", "170003.328000", "170003.328000", "170003.328000", "170003.328000", "170003.328000", "170023.281000", "170023.281000", "170023.281000", "170023.281000", "170023.281000", "170023.281000", "170023.296000", "170023.296000", "170023.296000", "170023.296000", "170023.296000", "170023.296000", "170023.296000", "170023.312000", "170023.312000", "170023.312000", "170023.312000", "170023.312000", "170023.312000", "170023.328000", "170023.328000", "170023.328000", "170023.328000", "170023.328000", "170023.328000", "170023.328000", "170043.281000", "170043.281000", "170043.281000", "170043.281000", "170043.281000", "170043.281000", "170043.296000", "170043.296000", "170043.296000", "170043.296000", "170043.296000", "170043.296000", "170043.296000", "170043.312000", "170043.312000", "170043.312000", "170043.312000", "170043.312000", "170043.312000", "170043.328000", "170043.328000", "170043.328000", "170043.328000", "170043.328000", "170043.328000", "170043.656000"],
      "DataSetTrailingPadding": [
        "\u0000\u0000\u0000\u0000\u0000\u0000\u0000\u0000\u0000\u0000\u0000\u0000\u0000\u0000\u0000\u0000\u0000\u0000\u0000\u0000\u0000\u0000\u0000\u0000\u0000\u0000\u0000\u0000\u0000\u0000\u0000\u0000\u0000\u0000\u0000\u0000\u0000\u0000\u0000\u0000\u0000\u0000\u0000\u0000\u0000\u0000\u0000\u0000\u0000\u0000\u0000\u0000\u0000\u0000\u0000\u0000\u0000\u0000\u0000\u0000\u0000\u0000\u0000\u0000\u0000\u0000\u0000\u0000\u0000\u0000\u0000\u0000\u0000\u0000\u0000\u0000\u0000\u0000\u0000\u0000\u0000\u0000\u0000\u0000\u0000\u0000\u0000\u0000\u0000\u0000\u0000\u0000\u0000\u0000\u0000\u0000\u0000\u0000\u0000\u0000\u0000\u0000\u0000\u0000\u0000\u0000\u0000\u0000\u0000\u0000\u0000\u0000\u0000\u0000\u0000\u0000\u0000\u0000\u0000\u0000\u0000\u0000\u0000\u0000\u0000\u0000\u0000\u0000\u0000\u0000\u0000\u0000\u0000\u0000\u0000\u0000\u0000\u0000\u0000\u0000\u0000\u0000\u0000\u0000\u0000\u0000\u0000\u0000\u0000\u0000\u0000\u0000\u0000\u0000\u0000\u0000\u0000\u0000\u0000\u0000\u0000\u0000\u0000\u0000\u0000\u0000\u0000\u0000\u0000\u0000\u0000\u0000\u0000\u0000\u0000\u0000\u0000\u0000\u0000\u0000\u0000\u0000\u0000\u0000\u0000\u0000\u0000\u0000\u0000\u0000\u0000\u0000\u0000\u0000\u0000\u0000\u0000\u0000\u0000\u0000\u0000\u0000\u0000\u0000\u0000\u0000\u0000\u0000\u0000\u0000",
