{
  "AcquisitionMatrixPE": 104,
  "AcquisitionNumber": 1,
  "AcquisitionTime": "16:36:51.742500",
  "BandwidthPerPixelPhaseEncode": 13.935,
  "BaseResolution": 104,
  "CoilString": "C:HEA;HEP",
  "ConversionSoftware": "dcm2niix",
  "ConversionSoftwareVersion": "v1.0.20210317",
  "DerivedVendorReportedEchoSpacing": 0.000690017,
  "DeviceSerialNumber": "35450",
  "DwellTime": 2.5e-06,
  "EchoTime": 0.0348,
  "EffectiveEchoSpacing": 0.000690017,
  "FlipAngle": 55,
  "ImageComments": "Unaliased MB8/PE3 (remote)",
  "ImageOrientationPatientDICOM": [1, 0, 0, 0, 0.997185, -0.0749787],
  "ImageType": [
    "ORIGINAL",
    "PRIMARY",
    "M",
    "MB",
    "ND",
    "MOSAIC"
],
  "ImagingFrequency": 123.235,
  "InPlanePhaseEncodingDirectionDICOM": "COL",
  "InstitutionAddress": "Univeristy Ave. 197,Newark,North East,US,07102-1814",
  "InstitutionName": "RUBIC",
  "InstitutionalDepartmentName": "Department",
  "MRAcquisitionType": "2D",
  "MagneticFieldStrength": 3,
  "Manufacturer": "Siemens",
  "ManufacturersModelName": "TrioTim",
  "Modality": "MR",
  "MultibandAccelerationFactor": 8,
  "PartialFourier": 0.875,
  "PatientPosition": "HFS",
  "PercentPhaseFOV": 100,
  "PercentSampling": 100,
  "PhaseEncodingDirection": "j-",
  "PhaseEncodingSteps": 91,
  "PhaseResolution": 1,
  "PixelBandwidth": 1923,
  "ProcedureStepDescription": "Cole^Michael",
  "ProtocolName": "cmrr_mbep2d_bold_2mm_MB8_Task_8x",
  "PulseSequenceDetails": "%CustomerSeq%\\cmrr_mbep2d_bold",
  "ReceiveCoilName": "32Ch_Head",
  "ReconMatrixPE": 104,
  "RepetitionTime": 0.785,
  "SAR": 0.13314,
  "ScanOptions": "PFP\\FS",
  "ScanningSequence": "EP",
  "SequenceName": "epfid2d1_104",
  "SequenceVariant": "SK\\SS",
  "SeriesDescription": "cmrr_mbep2d_bold_2mm_MB8_Task_8x",
  "SeriesNumber": 19,
  "ShimSetting": [2078, -355, -7378, 494, -16, 134, 85, 92],
  "SliceThickness": 2,
  "SliceTiming": [0, 0.4375, 0.0875, 0.525, 0.175, 0.6125, 0.2625, 0.7, 0.35, 0, 0.4375, 0.0875, 0.525, 0.175, 0.6125, 0.2625, 0.7, 0.35, 0, 0.4375, 0.0875, 0.525, 0.175, 0.6125, 0.2625, 0.7, 0.35, 0, 0.4375, 0.0875, 0.525, 0.175, 0.6125, 0.2625, 0.7, 0.35, 0, 0.4375, 0.0875, 0.525, 0.175, 0.6125, 0.2625, 0.7, 0.35, 0, 0.4375, 0.0875, 0.525, 0.175, 0.6125, 0.2625, 0.7, 0.35, 0, 0.4375, 0.0875, 0.525, 0.175, 0.6125, 0.2625, 0.7, 0.35, 0, 0.4375, 0.0875, 0.525, 0.175, 0.6125, 0.2625, 0.7, 0.35],
  "SoftwareVersions": "syngo MR B19",
  "SpacingBetweenSlices": 2,
  "StationName": "MRC35450",
  "TaskName": "cpro",
  "TotalReadoutTime": 0.0710717,
  "TxRefAmp": 324.938,
  "dcmmeta_affine": [
    [-2.0, 0.0, 0.0, 105.3559341430664],
    [0.0, 1.9943702220916748, -0.14995744824409485, -71.33765411376953],
    [0.0, 0.14995744824409485, 1.9943702220916748, -97.89212799072266],
    [0.0, 0.0, 0.0, 1.0]
],
  "dcmmeta_reorient_transform": [
    [0.0, -1.0, 0.0, 103.0],
    [1.0, 0.0, 0.0, 0.0],
    [0.0, 0.0, 1.0, 0.0],
    [0.0, 0.0, 0.0, 1.0]
],
  "dcmmeta_shape": [104, 104, 72, 581],
  "dcmmeta_slice_dim": 2,
  "dcmmeta_version": 0.6,
  "global": {
    "const": {
      "AcquisitionMatrix": [104, 0, 0, 104],
      "AngioFlag": "N",
      "BitsAllocated": 16,
      "BitsStored": 12,
      "Columns": 936,
      "EchoNumbers": 1,
      "EchoTime": 34.8,
      "EchoTrainLength": 1,
      "FlipAngle": 55.0,
      "HighBit": 11,
      "ImageOrientationPatient": [1.0, 0.0, 0.0, 0.0, 0.99718513348179, -0.0749787274025],
      "ImagePositionPatient": [-937.35593223572, -963.74051191344, -20.064211993505],
      "ImageType": [
        "ORIGINAL",
        "PRIMARY",
        "M",
        "MB",
        "ND",
        "MOSAIC"
],
      "ImagedNucleus": "1H",
      "ImagingFrequency": 123.234511,
      "InPlanePhaseEncodingDirection": "COL",
      "MRAcquisitionType": "2D",
      "MagneticFieldStrength": 3.0,
      "Manufacturer": "SIEMENS",
      "ManufacturerModelName": "TrioTim",
      "Modality": "MR",
      "NumberOfAverages": 1.0,
      "NumberOfPhaseEncodingSteps": 91,
      "PercentPhaseFieldOfView": 100.0,
      "PercentSampling": 100.0,
      "PerformedProcedureStepStartTime": "150854.796000",
      "PhotometricInterpretation": "MONOCHROME2",
      "PixelBandwidth": 1923.0,
      "PixelRepresentation": 0,
      "PixelSpacing": [2.0, 2.0],
      "ProtocolName": "cmrr_mbep2d_bold_2mm_MB8_Task_8x",
      "RepetitionTime": 785.0,
      "Rows": 936,
      "SAR": 0.13314031572677,
      "SamplesPerPixel": 1,
      "ScanOptions": [
        "PFP",
        "FS"
],
      "ScanningSequence": "EP",
      "SequenceName": "epfid2d1_104",
      "SequenceVariant": [
        "SK",
        "SS"
],
      "SeriesDescription": "cmrr_mbep2d_bold_2mm_MB8_Task_8x",
      "SeriesNumber": 19,
      "SeriesTime": "163724.859000",
      "SliceLocation": -92.267771044495,
      "SliceThickness": 2.0,
      "SmallestImagePixelValue": 0,
      "SoftwareVersions": "syngo MR B19",
      "SpacingBetweenSlices": 1.9999999931387,
      "SpecificCharacterSet": "ISO_IR 100",
      "StudyID": "1",
      "StudyTime": "150854.718000",
      "TransmitCoilName": "Body",
      "VariableFlipAngleFlag": "N",
      "WindowCenterWidthExplanation": "Algo1",
      "dBdt": 0.0},
    "slices": {}
  },
  "time": {
    "samples": {
      "AcquisitionNumber": [1, 2, 3, 4, 5, 6, 7, 8, 9, 10, 11, 12, 13, 14, 15, 16, 17, 18, 19, 20, 21, 22, 23, 24, 25, 26, 27, 28, 29, 30, 31, 32, 33, 34, 35, 36, 37, 38, 39, 40, 41, 42, 43, 44, 45, 46, 47, 48, 49, 50, 51, 52, 53, 54, 55, 56, 57, 58, 59, 60, 61, 62, 63, 64, 65, 66, 67, 68, 69, 70, 71, 72, 73, 74, 75, 76, 77, 78, 79, 80, 81, 82, 83, 84, 85, 86, 87, 88, 89, 90, 91, 92, 93, 94, 95, 96, 97, 98, 99, 100, 101, 102, 103, 104, 105, 106, 107, 108, 109, 110, 111, 112, 113, 114, 115, 116, 117, 118, 119, 120, 121, 122, 123, 124, 125, 126, 127, 128, 129, 130, 131, 132, 133, 134, 135, 136, 137, 138, 139, 140, 141, 142, 143, 144, 145, 146, 147, 148, 149, 150, 151, 152, 153, 154, 155, 156, 157, 158, 159, 160, 161, 162, 163, 164, 165, 166, 167, 168, 169, 170, 171, 172, 173, 174, 175, 176, 177, 178, 179, 180, 181, 182, 183, 184, 185, 186, 187, 188, 189, 190, 191, 192, 193, 194, 195, 196, 197, 198, 199, 200, 201, 202, 203, 204, 205, 206, 207, 208, 209, 210, 211, 212, 213, 214, 215, 216, 217, 218, 219, 220, 221, 222, 223, 224, 225, 226, 227, 228, 229, 230, 231, 232, 233, 234, 235, 236, 237, 238, 239, 240, 241, 242, 243, 244, 245, 246, 247, 248, 249, 250, 251, 252, 253, 254, 255, 256, 257, 258, 259, 260, 261, 262, 263, 264, 265, 266, 267, 268, 269, 270, 271, 272, 273, 274, 275, 276, 277, 278, 279, 280, 281, 282, 283, 284, 285, 286, 287, 288, 289, 290, 291, 292, 293, 294, 295, 296, 297, 298, 299, 300, 301, 302, 303, 304, 305, 306, 307, 308, 309, 310, 311, 312, 313, 314, 315, 316, 317, 318, 319, 320, 321, 322, 323, 324, 325, 326, 327, 328, 329, 330, 331, 332, 333, 334, 335, 336, 337, 338, 339, 340, 341, 342, 343, 344, 345, 346, 347, 348, 349, 350, 351, 352, 353, 354, 355, 356, 357, 358, 359, 360, 361, 362, 363, 364, 365, 366, 367, 368, 369, 370, 371, 372, 373, 374, 375, 376, 377, 378, 379, 380, 381, 382, 383, 384, 385, 386, 387, 388, 389, 390, 391, 392, 393, 394, 395, 396, 397, 398, 399, 400, 401, 402, 403, 404, 405, 406, 407, 408, 409, 410, 411, 412, 413, 414, 415, 416, 417, 418, 419, 420, 421, 422, 423, 424, 425, 426, 427, 428, 429, 430, 431, 432, 433, 434, 435, 436, 437, 438, 439, 440, 441, 442, 443, 444, 445, 446, 447, 448, 449, 450, 451, 452, 453, 454, 455, 456, 457, 458, 459, 460, 461, 462, 463, 464, 465, 466, 467, 468, 469, 470, 471, 472, 473, 474, 475, 476, 477, 478, 479, 480, 481, 482, 483, 484, 485, 486, 487, 488, 489, 490, 491, 492, 493, 494, 495, 496, 497, 498, 499, 500, 501, 502, 503, 504, 505, 506, 507, 508, 509, 510, 511, 512, 513, 514, 515, 516, 517, 518, 519, 520, 521, 522, 523, 524, 525, 526, 527, 528, 529, 530, 531, 532, 533, 534, 535, 536, 537, 538, 539, 540, 541, 542, 543, 544, 545, 546, 547, 548, 549, 550, 551, 552, 553, 554, 555, 556, 557, 558, 559, 560, 561, 562, 563, 564, 565, 566, 567, 568, 569, 570, 571, 572, 573, 574, 575, 576, 577, 578, 579, 580, 581],
      "AcquisitionTime": ["163651.742500", "163652.530000", "163653.317500", "163654.107500", "163654.895000", "163655.682500", "163656.470000", "163657.260000", "163658.047500", "163658.835000", "163659.622500", "163700.412500", "163701.200000", "163701.987500", "163702.775000", "163703.565000", "163704.352500", "163705.140000", "163705.930000", "163706.717500", "163707.505000", "163708.292500", "163709.082500", "163709.870000", "163710.657500", "163711.445000", "163712.235000", "163713.022500", "163713.810000", "163714.597500", "163715.387500", "163716.175000", "163716.962500", "163717.750000", "163718.540000", "163719.327500", "163720.115000", "163720.902500", "163721.692500", "163722.480000", "163723.267500", "163724.057500", "163724.845000", "163725.632500", "163726.420000", "163727.210000", "163727.997500", "163728.785000", "163729.572500", "163730.362500", "163731.150000", "163731.937500", "163732.725000", "163733.515000", "163734.302500", "163735.090000", "163735.877500", "163736.667500", "163737.455000", "163738.242500", "163739.030000", "163739.820000", "163740.607500", "163741.395000", "163742.185000", "163742.972500", "163743.760000", "163744.547500", "163745.337500", "163746.125000", "163746.912500", "163747.700000", "163748.490000", "163749.277500", "163750.065000", "163750.852500", "163751.642500", "163752.430000", "163753.217500", "163754.005000", "163754.795000", "163755.582500", "163756.370000", "163757.157500", "163757.947500", "163758.735000", "163759.522500", "163800.312500", "163801.100000", "163801.887500", "163802.675000", "163803.465000", "163804.252500", "163805.040000", "163805.827500", "163806.617500", "163807.405000", "163808.192500", "163808.980000", "163809.770000", "163810.557500", "163811.345000", "163812.132500", "163812.922500", "163813.710000", "163814.497500", "163815.285000", "163816.075000", "163816.862500", "163817.650000", "163818.440000", "163819.227500", "163820.015000", "163820.802500", "163821.592500", "163822.380000", "163823.167500", "163823.955000", "163824.745000", "163825.532500", "163826.320000", "163827.107500", "163827.897500", "163828.685000", "163829.472500", "163830.260000", "163831.050000", "163831.837500", "163832.625000", "163833.415000", "163834.202500", "163834.990000", "163835.777500", "163836.567500", "163837.355000", "163838.142500", "163838.930000", "163839.720000", "163840.507500", "163841.295000", "163842.082500", "163842.872500", "163843.660000", "163844.447500", "163845.235000", "163846.025000", "163846.812500", "163847.600000", "163848.387500", "163849.177500", "163849.965000", "163850.752500", "163851.542500", "163852.330000", "163853.117500", "163853.905000", "163854.695000", "163855.482500", "163856.270000", "163857.057500", "163857.847500", "163858.635000", "163859.422500", "163900.210000", "163901.000000", "163901.787500", "163902.575000", "163903.362500", "163904.152500", "163904.940000", "163905.727500", "163906.515000", "163907.305000", "163908.092500", "163908.880000", "163909.670000", "163910.457500", "163911.245000", "163912.032500", "163912.822500", "163913.610000", "163914.397500", "163915.185000", "163915.975000", "163916.762500", "163917.550000", "163918.337500", "163919.127500", "163919.915000", "163920.702500", "163921.490000", "163922.280000", "163923.067500", "163923.855000", "163924.642500", "163925.432500", "163926.220000", "163927.007500", "163927.797500", "163928.585000", "163929.372500", "163930.160000", "163930.950000", "163931.737500", "163932.525000", "163933.312500", "163934.102500", "163934.890000", "163935.677500", "163936.465000", "163937.255000", "163938.042500", "163938.830000", "163939.617500", "163940.407500", "163941.195000", "163941.982500", "163942.770000", "163943.560000", "163944.347500", "163945.135000", "163945.925000", "163946.712500", "163947.500000", "163948.287500", "163949.077500", "163949.865000", "163950.652500", "163951.440000", "163952.230000", "163953.017500", "163953.805000", "163954.592500", "163955.382500", "163956.170000", "163956.957500", "163957.745000", "163958.535000", "163959.322500", "164000.110000", "164000.897500", "164001.687500", "164002.475000", "164003.262500", "164004.052500", "164004.840000", "164005.627500", "164006.415000", "164007.205000", "164007.992500", "164008.780000", "164009.567500", "164010.357500", "164011.145000", "164011.932500", "164012.720000", "164013.510000", "164014.297500", "164015.085000", "164015.872500", "164016.662500", "164017.450000", "164018.237500", "164019.025000", "164019.815000", "164020.602500", "164021.390000", "164022.180000", "164022.967500", "164023.755000", "164024.542500", "164025.332500", "164026.120000", "164026.907500", "164027.695000", "164028.485000", "164029.272500", "164030.060000", "164030.847500", "164031.637500", "164032.425000", "164033.212500", "164034.000000", "164034.790000", "164035.577500", "164036.365000", "164037.152500", "164037.942500", "164038.730000", "164039.517500", "164040.307500", "164041.095000", "164041.882500", "164042.670000", "164043.460000", "164044.247500", "164045.035000", "164045.822500", "164046.612500", "164047.400000", "164048.187500", "164048.975000", "164049.765000", "164050.552500", "164051.340000", "164052.127500", "164052.917500", "164053.705000", "164054.492500", "164055.280000", "164056.070000", "164056.857500", "164057.645000", "164058.435000", "164059.222500", "164100.010000", "164100.797500", "164101.587500", "164102.375000", "164103.162500", "164103.950000", "164104.740000", "164105.527500", "164106.315000", "164107.102500", "164107.892500", "164108.680000", "164109.467500", "164110.255000", "164111.045000", "164111.832500", "164112.620000", "164113.407500", "164114.197500", "164114.985000", "164115.772500", "164116.562500", "164117.350000", "164118.137500", "164118.925000", "164119.715000", "164120.502500", "164121.290000", "164122.077500", "164122.867500", "164123.655000", "164124.442500", "164125.230000", "164126.020000", "164126.807500", "164127.595000", "164128.382500", "164129.172500", "164129.960000", "164130.747500", "164131.535000", "164132.325000", "164133.112500", "164133.900000", "164134.690000", "164135.477500", "164136.265000", "164137.052500", "164137.842500", "164138.630000", "164139.417500", "164140.205000", "164140.995000", "164141.782500", "164142.570000", "164143.357500", "164144.147500", "164144.935000", "164145.722500", "164146.510000", "164147.300000", "164148.087500", "164148.875000", "164149.665000", "164150.452500", "164151.240000", "164152.027500", "164152.817500", "164153.605000", "164154.392500", "164155.180000", "164155.970000", "164156.757500", "164157.545000", "164158.332500", "164159.122500", "164159.910000", "164200.697500", "164201.485000", "164202.275000", "164203.062500", "164203.850000", "164204.637500", "164205.427500", "164206.215000", "164207.002500", "164207.792500", "164208.580000", "164209.367500", "164210.155000", "164210.945000", "164211.732500", "164212.520000", "164213.307500", "164214.097500", "164214.885000", "164215.672500", "164216.460000", "164217.250000", "164218.037500", "164218.825000", "164219.612500", "164220.402500", "164221.190000", "164221.977500", "164222.765000", "164223.555000", "164224.342500", "164225.130000", "164225.920000", "164226.707500", "164227.495000", "164228.282500", "164229.072500", "164229.860000", "164230.647500", "164231.435000", "164232.225000", "164233.012500", "164233.800000", "164234.587500", "164235.377500", "164236.165000", "164236.952500", "164237.740000", "164238.530000", "164239.317500", "164240.105000", "164240.892500", "164241.682500", "164242.470000", "164243.257500", "164244.047500", "164244.835000", "164245.622500", "164246.410000", "164247.200000", "164247.987500", "164248.775000", "164249.562500", "164250.352500", "164251.140000", "164251.927500", "164252.715000", "164253.505000", "164254.292500", "164255.080000", "164255.867500", "164256.657500", "164257.445000", "164258.232500", "164259.020000", "164259.810000", "164300.597500", "164301.385000", "164302.175000", "164302.962500", "164303.750000", "164304.537500", "164305.327500", "164306.115000", "164306.902500", "164307.690000", "164308.480000", "164309.267500", "164310.055000", "164310.842500", "164311.632500", "164312.420000", "164313.207500", "164313.995000", "164314.785000", "164315.572500", "164316.360000", "164317.147500", "164317.937500", "164318.725000", "164319.512500", "164320.302500", "164321.090000", "164321.877500", "164322.665000", "164323.455000", "164324.242500", "164325.030000", "164325.817500", "164326.607500", "164327.395000", "164328.182500", "164328.970000", "164329.760000", "164330.547500", "164331.335000", "164332.122500", "164332.912500", "164333.700000", "164334.487500", "164335.275000", "164336.065000", "164336.852500", "164337.640000", "164338.430000", "164339.217500", "164340.005000", "164340.792500", "164341.582500", "164342.370000", "164343.157500", "164343.945000", "164344.735000", "164345.522500", "164346.310000", "164347.097500", "164347.887500", "164348.675000", "164349.462500", "164350.250000", "164351.040000", "164351.827500", "164352.615000", "164353.402500", "164354.192500", "164354.980000", "164355.767500", "164356.557500", "164357.345000", "164358.132500", "164358.920000", "164359.710000", "164400.497500", "164401.285000", "164402.072500", "164402.862500", "164403.650000", "164404.437500", "164405.225000", "164406.015000", "164406.802500", "164407.590000", "164408.377500", "164409.167500", "164409.955000", "164410.742500", "164411.530000", "164412.320000", "164413.107500", "164413.895000", "164414.685000", "164415.472500", "164416.260000", "164417.047500", "164417.837500", "164418.625000", "164419.412500", "164420.200000", "164420.990000", "164421.777500", "164422.565000", "164423.352500", "164424.142500", "164424.930000", "164425.717500", "164426.505000", "164427.295000", "164428.082500", "164428.870000"],
      "ContentTime": ["163724.859000", "163724.859000", "163724.875000", "163724.875000", "163724.875000", "163724.875000", "163724.875000", "163724.875000", "163724.890000", "163724.890000", "163724.890000", "163724.890000", "163724.890000", "163724.890000", "163724.890000", "163724.906000", "163724.906000", "163724.906000", "163724.906000", "163724.906000", "163724.906000", "163724.921000", "163724.921000", "163724.921000", "163724.921000", "163724.921000", "163724.921000", "163724.921000", "163724.937000", "163724.937000", "163724.937000", "163724.937000", "163724.937000", "163724.937000", "163724.937000", "163724.953000", "163724.953000", "163724.953000", "163744.843000", "163744.843000", "163744.843000", "163744.843000", "163744.843000", "163744.843000", "163744.859000", "163744.859000", "163744.859000", "163744.859000", "163744.859000", "163744.859000", "163744.875000", "163744.875000", "163744.875000", "163744.875000", "163744.875000", "163744.875000", "163744.890000", "163744.890000", "163744.890000", "163744.890000", "163744.890000", "163744.890000", "163744.906000", "163744.906000", "163804.843000", "163804.843000", "163804.843000", "163804.843000", "163804.843000", "163804.843000", "163804.859000", "163804.859000", "163804.859000", "163804.859000", "163804.859000", "163804.859000", "163804.859000", "163804.875000", "163804.875000", "163804.875000", "163804.875000", "163804.875000", "163804.875000", "163804.890000", "163804.890000", "163804.890000", "163804.890000", "163804.890000", "163804.906000", "163824.843000", "163824.843000", "163824.843000", "163824.843000", "163824.843000", "163824.843000", "163824.859000", "163824.859000", "163824.859000", "163824.859000", "163824.859000", "163824.859000", "163824.859000", "163824.875000", "163824.875000", "163824.875000", "163824.875000", "163824.875000", "163824.875000", "163824.875000", "163824.890000", "163824.890000", "163824.890000", "163824.890000", "163824.890000", "163824.906000", "163844.843000", "163844.843000", "163844.843000", "163844.843000", "163844.843000", "163844.843000", "163844.859000", "163844.859000", "163844.859000", "163844.859000", "163844.859000", "163844.859000", "163844.859000", "163844.875000", "163844.875000", "163844.875000", "163844.875000", "163844.875000", "163844.875000", "163844.875000", "163844.890000", "163844.890000", "163844.890000", "163844.890000", "163844.890000", "163904.843000", "163904.843000", "163904.843000", "163904.843000", "163904.843000", "163904.843000", "163904.859000", "163904.859000", "163904.859000", "163904.859000", "163904.859000", "163904.859000", "163904.875000", "163904.875000", "163904.875000", "163904.875000", "163904.875000", "163904.875000", "163904.875000", "163904.890000", "163904.890000", "163904.890000", "163904.890000", "163904.890000", "163904.890000", "163904.906000", "163924.843000", "163924.843000", "163924.843000", "163924.843000", "163924.843000", "163924.843000", "163924.859000", "163924.859000", "163924.859000", "163924.859000", "163924.859000", "163924.859000", "163924.859000", "163924.875000", "163924.875000", "163924.875000", "163924.875000", "163924.875000", "163924.890000", "163924.890000", "163924.890000", "163924.890000", "163924.890000", "163924.890000", "163924.890000", "163944.843000", "163944.843000", "163944.843000", "163944.843000", "163944.843000", "163944.843000", "163944.859000", "163944.859000", "163944.859000", "163944.859000", "163944.859000", "163944.859000", "163944.859000", "163944.875000", "163944.875000", "163944.875000", "163944.875000", "163944.875000", "163944.875000", "163944.875000", "163944.890000", "163944.890000", "163944.890000", "163944.890000", "163944.890000", "163944.890000", "164004.843000", "164004.843000", "164004.843000", "164004.843000", "164004.843000", "164004.843000", "164004.859000", "164004.859000", "164004.859000", "164004.859000", "164004.859000", "164004.859000", "164004.859000", "164004.875000", "164004.875000", "164004.875000", "164004.875000", "164004.875000", "164004.875000", "164004.875000", "164004.890000", "164004.890000", "164004.890000", "164004.890000", "164004.890000", "164024.843000", "164024.843000", "164024.843000", "164024.843000", "164024.843000", "164024.843000", "164024.859000", "164024.875000", "164024.875000", "164024.875000", "164024.875000", "164024.890000", "164024.890000", "164024.890000", "164024.890000", "164024.890000", "164024.890000", "164024.890000", "164024.906000", "164024.906000", "164024.906000", "164024.906000", "164024.906000", "164024.906000", "164024.906000", "164044.843000", "164044.843000", "164044.843000", "164044.843000", "164044.843000", "164044.843000", "164044.859000", "164044.859000", "164044.859000", "164044.859000", "164044.859000", "164044.859000", "164044.859000", "164044.875000", "164044.875000", "164044.875000", "164044.875000", "164044.875000", "164044.875000", "164044.890000", "164044.890000", "164044.890000", "164044.890000", "164044.890000", "164044.890000", "164044.890000", "164104.843000", "164104.843000", "164104.843000", "164104.843000", "164104.859000", "164104.859000", "164104.859000", "164104.859000", "164104.859000", "164104.859000", "164104.875000", "164104.875000", "164104.875000", "164104.875000", "164104.875000", "164104.875000", "164104.875000", "164104.890000", "164104.890000", "164104.890000", "164104.890000", "164104.890000", "164104.890000", "164104.906000", "164104.906000", "164124.843000", "164124.843000", "164124.843000", "164124.843000", "164124.843000", "164124.843000", "164124.859000", "164124.859000", "164124.859000", "164124.859000", "164124.859000", "164124.875000", "164124.875000", "164124.875000", "164124.875000", "164124.875000", "164124.875000", "164124.875000", "164124.890000", "164124.890000", "164124.890000", "164124.890000", "164124.890000", "164124.890000", "164124.890000", "164124.906000", "164144.843000", "164144.843000", "164144.843000", "164144.843000", "164144.843000", "164144.859000", "164144.859000", "164144.859000", "164144.859000", "164144.859000", "164144.859000", "164144.875000", "164144.875000", "164144.875000", "164144.875000", "164144.875000", "164144.875000", "164144.890000", "164144.890000", "164144.890000", "164144.890000", "164144.890000", "164144.890000", "164144.906000", "164144.906000", "164204.843000", "164204.843000", "164204.843000", "164204.843000", "164204.843000", "164204.843000", "164204.859000", "164204.859000", "164204.859000", "164204.859000", "164204.859000", "164204.859000", "164204.859000", "164204.875000", "164204.875000", "164204.875000", "164204.875000", "164204.875000", "164204.875000", "164204.875000", "164204.890000", "164204.890000", "164204.890000", "164204.890000", "164204.890000", "164204.890000", "164224.843000", "164224.843000", "164224.843000", "164224.843000", "164224.843000", "164224.843000", "164224.859000", "164224.859000", "164224.859000", "164224.859000", "164224.859000", "164224.859000", "164224.859000", "164224.875000", "164224.875000", "164224.875000", "164224.875000", "164224.875000", "164224.875000", "164224.875000", "164224.890000", "164224.890000", "164224.890000", "164224.890000", "164224.890000", "164244.843000", "164244.843000", "164244.843000", "164244.843000", "164244.843000", "164244.843000", "164244.859000", "164244.859000", "164244.859000", "164244.859000", "164244.859000", "164244.859000", "164244.859000", "164244.875000", "164244.875000", "164244.875000", "164244.875000", "164244.875000", "164244.875000", "164244.875000", "164244.890000", "164244.890000", "164244.890000", "164244.890000", "164244.890000", "164244.890000", "164304.843000", "164304.843000", "164304.843000", "164304.843000", "164304.843000", "164304.843000", "164304.859000", "164304.859000", "164304.859000", "164304.859000", "164304.859000", "164304.859000", "164304.859000", "164304.875000", "164304.875000", "164304.875000", "164304.875000", "164304.875000", "164304.875000", "164304.875000", "164304.890000", "164304.890000", "164304.890000", "164304.890000", "164304.890000", "164324.843000", "164324.843000", "164324.843000", "164324.843000", "164324.843000", "164324.843000", "164324.859000", "164324.859000", "164324.859000", "164324.859000", "164324.859000", "164324.859000", "164324.859000", "164324.875000", "164324.875000", "164324.875000", "164324.875000", "164324.875000", "164324.875000", "164324.875000", "164324.890000", "164324.890000", "164324.890000", "164324.890000", "164324.890000", "164324.890000", "164344.843000", "164344.843000", "164344.843000", "164344.843000", "164344.843000", "164344.843000", "164344.859000", "164344.859000", "164344.859000", "164344.859000", "164344.859000", "164344.859000", "164344.859000", "164344.875000", "164344.875000", "164344.875000", "164344.875000", "164344.875000", "164344.875000", "164344.890000", "164344.890000", "164344.890000", "164344.890000", "164344.890000", "164344.890000", "164404.843000", "164404.843000", "164404.843000", "164404.843000", "164404.859000", "164404.859000", "164404.859000", "164404.859000", "164404.859000", "164404.859000", "164404.875000", "164404.875000", "164404.875000", "164404.875000", "164404.875000", "164404.875000", "164404.875000", "164404.890000", "164404.890000", "164404.890000", "164404.890000", "164404.890000", "164404.906000", "164404.906000", "164404.906000", "164404.906000", "164424.843000", "164424.843000", "164424.843000", "164424.843000", "164424.843000", "164424.843000", "164424.859000", "164424.859000", "164424.859000", "164424.859000", "164424.859000", "164424.859000", "164424.859000", "164424.875000", "164424.875000", "164424.875000", "164424.875000", "164424.890000", "164424.890000", "164424.890000", "164424.890000", "164424.890000", "164424.890000", "164424.890000", "164424.906000", "164430.593000", "164430.593000", "164430.593000", "164430.593000", "164430.593000", "164430.609000", "164430.609000", "164430.609000"],
      "DataSetTrailingPadding": [
        "\u0000\u0000\u0000\u0000\u0000\u0000\u0000\u0000\u0000\u0000\u0000\u0000\u0000\u0000\u0000\u0000\u0000\u0000\u0000\u0000\u0000\u0000\u0000\u0000\u0000\u0000\u0000\u0000\u0000\u0000\u0000\u0000\u0000\u0000\u0000\u0000\u0000\u0000\u0000\u0000\u0000\u0000\u0000\u0000\u0000\u0000\u0000\u0000\u0000\u0000\u0000\u0000\u0000\u0000\u0000\u0000\u0000\u0000\u0000\u0000\u0000\u0000\u0000\u0000\u0000\u0000\u0000\u0000\u0000\u0000\u0000\u0000\u0000\u0000\u0000\u0000\u0000\u0000\u0000\u0000\u0000\u0000\u0000\u0000\u0000\u0000\u0000\u0000\u0000\u0000\u0000\u0000\u0000\u0000\u0000\u0000\u0000\u0000\u0000\u0000\u0000\u0000\u0000\u0000\u0000\u0000\u0000\u0000\u0000\u0000\u0000\u0000\u0000\u0000\u0000\u0000\u0000\u0000\u0000\u0000\u0000\u0000\u0000\u0000\u0000\u0000\u0000\u0000\u0000\u0000\u0000\u0000\u0000\u0000\u0000\u0000\u0000\u0000\u0000\u0000\u0000\u0000\u0000\u0000\u0000\u0000\u0000\u0000\u0000\u0000\u0000\u0000\u0000\u0000\u0000\u0000\u0000\u0000\u0000\u0000\u0000\u0000\u0000\u0000\u0000\u0000\u0000\u0000\u0000\u0000\u0000\u0000\u0000\u0000\u0000\u0000\u0000\u0000\u0000\u0000\u0000\u0000\u0000\u0000\u0000\u0000\u0000\u0000\u0000\u0000\u0000\u0000\u0000\u0000\u0000\u0000\u0000\u0000\u0000\u0000\u0000\u0000\u0000\u0000\u0000\u0000\u0000\u0000\u0000\u0000",
