{
  "AcquisitionMatrixPE": 104,
  "AcquisitionNumber": 1,
  "AcquisitionTime": "15:31:30.687500",
  "BandwidthPerPixelPhaseEncode": 13.935,
  "BaseResolution": 104,
  "CoilString": "C:HEA;HEP",
  "ConversionSoftware": "dcm2niix",
  "ConversionSoftwareVersion": "v1.0.20210317",
  "DerivedVendorReportedEchoSpacing": 0.000690017,
  "DeviceSerialNumber": "35450",
  "DwellTime": 2.5e-06,
  "EchoTime": 0.0348,
  "EffectiveEchoSpacing": 0.000690017,
  "FlipAngle": 55,
  "ImageComments": "Unaliased MB8/PE3",
  "ImageOrientationPatientDICOM": [0.999977, -0.00146741, 0.00667432, -6.77069e-08, 0.976671, 0.21474],
  "ImageType": [
    "ORIGINAL",
    "PRIMARY",
    "M",
    "MB",
    "ND",
    "MOSAIC"
],
  "ImagingFrequency": 123.235,
  "InPlanePhaseEncodingDirectionDICOM": "COL",
  "InstitutionAddress": "Univeristy Ave. 197,Newark,North East,US,07102-1814",
  "InstitutionName": "RUBIC",
  "InstitutionalDepartmentName": "Department",
  "MRAcquisitionType": "2D",
  "MagneticFieldStrength": 3,
  "Manufacturer": "Siemens",
  "ManufacturersModelName": "TrioTim",
  "Modality": "MR",
  "MultibandAccelerationFactor": 8,
  "PartialFourier": 0.875,
  "PatientPosition": "HFS",
  "PercentPhaseFOV": 100,
  "PercentSampling": 100,
  "PhaseEncodingDirection": "j-",
  "PhaseEncodingSteps": 91,
  "PhaseResolution": 1,
  "PixelBandwidth": 1923,
  "ProcedureStepDescription": "Cole^Michael",
  "ProtocolName": "cmrr_mbep2d_bold_2mm_MB8_Task_8x",
  "PulseSequenceDetails": "%CustomerSeq%\\cmrr_mbep2d_bold",
  "ReceiveCoilName": "32Ch_Head",
  "ReconMatrixPE": 104,
  "RepetitionTime": 0.785,
  "SAR": 0.110865,
  "ScanOptions": "PFP\\FS",
  "ScanningSequence": "EP",
  "SequenceName": "epfid2d1_104",
  "SequenceVariant": "SK\\SS",
  "SeriesDescription": "cmrr_mbep2d_bold_2mm_MB8_Task_8x",
  "SeriesNumber": 23,
  "ShimSetting": [2140, -501, -7271, 583, -109, -1022, 214, -14],
  "SliceThickness": 2,
  "SliceTiming": [0, 0.4375, 0.0875, 0.525, 0.175, 0.6125, 0.2625, 0.7, 0.35, 0, 0.4375, 0.0875, 0.525, 0.175, 0.6125, 0.2625, 0.7, 0.35, 0, 0.4375, 0.0875, 0.525, 0.175, 0.6125, 0.2625, 0.7, 0.35, 0, 0.4375, 0.0875, 0.525, 0.175, 0.6125, 0.2625, 0.7, 0.35, 0, 0.4375, 0.0875, 0.525, 0.175, 0.6125, 0.2625, 0.7, 0.35, 0, 0.4375, 0.0875, 0.525, 0.175, 0.6125, 0.2625, 0.7, 0.35, 0, 0.4375, 0.0875, 0.525, 0.175, 0.6125, 0.2625, 0.7, 0.35, 0, 0.4375, 0.0875, 0.525, 0.175, 0.6125, 0.2625, 0.7, 0.35],
  "SoftwareVersions": "syngo MR B19",
  "SpacingBetweenSlices": 2,
  "StationName": "MRC35450",
  "TaskName": "cpro",
  "TotalReadoutTime": 0.0710717,
  "TxRefAmp": 314.489,
  "dcmmeta_affine": [
    [-1.999953269958496, -1.3541389876081666e-07, 0.013667447492480278, 102.15644836425781],
    [0.002934816526249051, 1.9533424377441406, 0.42947015166282654, -87.62615203857422],
    [0.01334863156080246, -0.4294801950454712, 1.9532968997955322, -55.25704574584961],
    [0.0, 0.0, 0.0, 1.0]
],
  "dcmmeta_reorient_transform": [
    [0.0, -1.0, 0.0, 103.0],
    [1.0, 0.0, 0.0, 0.0],
    [0.0, 0.0, 1.0, 0.0],
    [0.0, 0.0, 0.0, 1.0]
],
  "dcmmeta_shape": [104, 104, 72, 581],
  "dcmmeta_slice_dim": 2,
  "dcmmeta_version": 0.6,
  "global": {
    "const": {
      "AcquisitionMatrix": [104, 0, 0, 104],
      "AngioFlag": "N",
      "BitsAllocated": 16,
      "BitsStored": 12,
      "Columns": 936,
      "EchoNumbers": 1,
      "EchoTime": 34.8,
      "EchoTrainLength": 1,
      "FlipAngle": 55.0,
      "HighBit": 11,
      "ImageOrientationPatient": [0.99997664983877, -0.0014674083062, 0.00667431570232, -6.7706947e-08, 0.97667123027296, 0.21474009396734],
      "ImagePositionPatient": [-934.13695395659, -924.93769947241, -283.71029522668],
      "ImageType": [
        "ORIGINAL",
        "PRIMARY",
        "M",
        "MB",
        "ND",
        "MOSAIC"
],
      "ImagedNucleus": "1H",
      "ImagingFrequency": 123.234629,
      "InPlanePhaseEncodingDirection": "COL",
      "MRAcquisitionType": "2D",
      "MagneticFieldStrength": 3.0,
      "Manufacturer": "SIEMENS",
      "ManufacturerModelName": "TrioTim",
      "Modality": "MR",
      "NumberOfAverages": 1.0,
      "NumberOfPhaseEncodingSteps": 91,
      "PercentPhaseFieldOfView": 100.0,
      "PercentSampling": 100.0,
      "PerformedProcedureStepStartTime": "140629.484000",
      "PhotometricInterpretation": "MONOCHROME2",
      "PixelBandwidth": 1923.0,
      "PixelRepresentation": 0,
      "PixelSpacing": [2.0, 2.0],
      "ProtocolName": "cmrr_mbep2d_bold_2mm_MB8_Task_8x",
      "RepetitionTime": 785.0,
      "Rows": 936,
      "SAR": 0.11086493819922,
      "SamplesPerPixel": 1,
      "ScanOptions": [
        "PFP",
        "FS"
],
      "ScanningSequence": "EP",
      "SequenceName": "epfid2d1_104",
      "SequenceVariant": [
        "SK",
        "SS"
],
      "SeriesDescription": "cmrr_mbep2d_bold_2mm_MB8_Task_8x",
      "SeriesNumber": 23,
      "SeriesTime": "165431.125000",
      "SliceLocation": -72.08500815856,
      "SliceThickness": 2.0,
      "SmallestImagePixelValue": 0,
      "SoftwareVersions": "syngo MR B19",
      "SpacingBetweenSlices": 2.0000000195831,
      "SpecificCharacterSet": "ISO_IR 100",
      "StudyID": "1",
      "StudyTime": "140629.453000",
      "TransmitCoilName": "Body",
      "VariableFlipAngleFlag": "N",
      "WindowCenterWidthExplanation": "Algo1",
      "dBdt": 0.0},
    "slices": {}
  },
  "time": {
    "samples": {
      "AcquisitionNumber": [1, 2, 3, 4, 5, 6, 7, 8, 9, 10, 11, 12, 13, 14, 15, 16, 17, 18, 19, 20, 21, 22, 23, 24, 25, 26, 27, 28, 29, 30, 31, 32, 33, 34, 35, 36, 37, 38, 39, 40, 41, 42, 43, 44, 45, 46, 47, 48, 49, 50, 51, 52, 53, 54, 55, 56, 57, 58, 59, 60, 61, 62, 63, 64, 65, 66, 67, 68, 69, 70, 71, 72, 73, 74, 75, 76, 77, 78, 79, 80, 81, 82, 83, 84, 85, 86, 87, 88, 89, 90, 91, 92, 93, 94, 95, 96, 97, 98, 99, 100, 101, 102, 103, 104, 105, 106, 107, 108, 109, 110, 111, 112, 113, 114, 115, 116, 117, 118, 119, 120, 121, 122, 123, 124, 125, 126, 127, 128, 129, 130, 131, 132, 133, 134, 135, 136, 137, 138, 139, 140, 141, 142, 143, 144, 145, 146, 147, 148, 149, 150, 151, 152, 153, 154, 155, 156, 157, 158, 159, 160, 161, 162, 163, 164, 165, 166, 167, 168, 169, 170, 171, 172, 173, 174, 175, 176, 177, 178, 179, 180, 181, 182, 183, 184, 185, 186, 187, 188, 189, 190, 191, 192, 193, 194, 195, 196, 197, 198, 199, 200, 201, 202, 203, 204, 205, 206, 207, 208, 209, 210, 211, 212, 213, 214, 215, 216, 217, 218, 219, 220, 221, 222, 223, 224, 225, 226, 227, 228, 229, 230, 231, 232, 233, 234, 235, 236, 237, 238, 239, 240, 241, 242, 243, 244, 245, 246, 247, 248, 249, 250, 251, 252, 253, 254, 255, 256, 257, 258, 259, 260, 261, 262, 263, 264, 265, 266, 267, 268, 269, 270, 271, 272, 273, 274, 275, 276, 277, 278, 279, 280, 281, 282, 283, 284, 285, 286, 287, 288, 289, 290, 291, 292, 293, 294, 295, 296, 297, 298, 299, 300, 301, 302, 303, 304, 305, 306, 307, 308, 309, 310, 311, 312, 313, 314, 315, 316, 317, 318, 319, 320, 321, 322, 323, 324, 325, 326, 327, 328, 329, 330, 331, 332, 333, 334, 335, 336, 337, 338, 339, 340, 341, 342, 343, 344, 345, 346, 347, 348, 349, 350, 351, 352, 353, 354, 355, 356, 357, 358, 359, 360, 361, 362, 363, 364, 365, 366, 367, 368, 369, 370, 371, 372, 373, 374, 375, 376, 377, 378, 379, 380, 381, 382, 383, 384, 385, 386, 387, 388, 389, 390, 391, 392, 393, 394, 395, 396, 397, 398, 399, 400, 401, 402, 403, 404, 405, 406, 407, 408, 409, 410, 411, 412, 413, 414, 415, 416, 417, 418, 419, 420, 421, 422, 423, 424, 425, 426, 427, 428, 429, 430, 431, 432, 433, 434, 435, 436, 437, 438, 439, 440, 441, 442, 443, 444, 445, 446, 447, 448, 449, 450, 451, 452, 453, 454, 455, 456, 457, 458, 459, 460, 461, 462, 463, 464, 465, 466, 467, 468, 469, 470, 471, 472, 473, 474, 475, 476, 477, 478, 479, 480, 481, 482, 483, 484, 485, 486, 487, 488, 489, 490, 491, 492, 493, 494, 495, 496, 497, 498, 499, 500, 501, 502, 503, 504, 505, 506, 507, 508, 509, 510, 511, 512, 513, 514, 515, 516, 517, 518, 519, 520, 521, 522, 523, 524, 525, 526, 527, 528, 529, 530, 531, 532, 533, 534, 535, 536, 537, 538, 539, 540, 541, 542, 543, 544, 545, 546, 547, 548, 549, 550, 551, 552, 553, 554, 555, 556, 557, 558, 559, 560, 561, 562, 563, 564, 565, 566, 567, 568, 569, 570, 571, 572, 573, 574, 575, 576, 577, 578, 579, 580, 581],
      "AcquisitionTime": ["153130.687500", "153131.477500", "153132.265000", "153133.052500", "153133.840000", "153134.630000", "153135.417500", "153136.205000", "153136.992500", "153137.782500", "153138.570000", "153139.357500", "153140.145000", "153140.935000", "153141.722500", "153142.510000", "153143.297500", "153144.087500", "153144.875000", "153145.662500", "153146.450000", "153147.240000", "153148.027500", "153148.815000", "153149.605000", "153150.392500", "153151.180000", "153151.967500", "153152.757500", "153153.545000", "153154.332500", "153155.120000", "153155.910000", "153156.697500", "153157.485000", "153158.272500", "153159.062500", "153159.850000", "153200.637500", "153201.425000", "153202.215000", "153203.002500", "153203.790000", "153204.580000", "153205.367500", "153206.155000", "153206.942500", "153207.732500", "153208.520000", "153209.307500", "153210.095000", "153210.885000", "153211.672500", "153212.460000", "153213.247500", "153214.037500", "153214.825000", "153215.612500", "153216.400000", "153217.190000", "153217.977500", "153218.765000", "153219.552500", "153220.342500", "153221.130000", "153221.917500", "153222.707500", "153223.495000", "153224.282500", "153225.070000", "153225.860000", "153226.647500", "153227.435000", "153228.222500", "153229.012500", "153229.800000", "153230.587500", "153231.375000", "153232.165000", "153232.952500", "153233.740000", "153234.527500", "153235.317500", "153236.105000", "153236.892500", "153237.680000", "153238.470000", "153239.257500", "153240.045000", "153240.835000", "153241.622500", "153242.410000", "153243.197500", "153243.987500", "153244.775000", "153245.562500", "153246.350000", "153247.140000", "153247.927500", "153248.715000", "153249.502500", "153250.292500", "153251.080000", "153251.867500", "153252.655000", "153253.445000", "153254.232500", "153255.020000", "153255.807500", "153256.597500", "153257.385000", "153258.172500", "153258.962500", "153259.750000", "153300.537500", "153301.325000", "153302.115000", "153302.902500", "153303.690000", "153304.477500", "153305.267500", "153306.055000", "153306.842500", "153307.630000", "153308.420000", "153309.207500", "153309.995000", "153310.782500", "153311.572500", "153312.360000", "153313.147500", "153313.935000", "153314.725000", "153315.512500", "153316.300000", "153317.090000", "153317.877500", "153318.665000", "153319.452500", "153320.242500", "153321.030000", "153321.817500", "153322.605000", "153323.395000", "153324.182500", "153324.970000", "153325.757500", "153326.547500", "153327.335000", "153328.122500", "153328.910000", "153329.700000", "153330.487500", "153331.275000", "153332.062500", "153332.852500", "153333.640000", "153334.427500", "153335.217500", "153336.005000", "153336.792500", "153337.580000", "153338.370000", "153339.157500", "153339.945000", "153340.732500", "153341.522500", "153342.310000", "153343.097500", "153343.885000", "153344.675000", "153345.462500", "153346.250000", "153347.037500", "153347.827500", "153348.615000", "153349.402500", "153350.190000", "153350.980000", "153351.767500", "153352.555000", "153353.345000", "153354.132500", "153354.920000", "153355.707500", "153356.497500", "153357.285000", "153358.072500", "153358.860000", "153359.650000", "153400.437500", "153401.225000", "153402.012500", "153402.802500", "153403.590000", "153404.377500", "153405.165000", "153405.955000", "153406.742500", "153407.530000", "153408.317500", "153409.107500", "153409.895000", "153410.682500", "153411.472500", "153412.260000", "153413.047500", "153413.835000", "153414.625000", "153415.412500", "153416.200000", "153416.987500", "153417.777500", "153418.565000", "153419.352500", "153420.140000", "153420.930000", "153421.717500", "153422.505000", "153423.292500", "153424.082500", "153424.870000", "153425.657500", "153426.445000", "153427.235000", "153428.022500", "153428.810000", "153429.600000", "153430.387500", "153431.175000", "153431.962500", "153432.752500", "153433.540000", "153434.327500", "153435.115000", "153435.905000", "153436.692500", "153437.480000", "153438.267500", "153439.057500", "153439.845000", "153440.632500", "153441.420000", "153442.210000", "153442.997500", "153443.785000", "153444.572500", "153445.362500", "153446.150000", "153446.937500", "153447.727500", "153448.515000", "153449.302500", "153450.090000", "153450.880000", "153451.667500", "153452.455000", "153453.242500", "153454.032500", "153454.820000", "153455.607500", "153456.395000", "153457.185000", "153457.972500", "153458.760000", "153459.547500", "153500.337500", "153501.125000", "153501.912500", "153502.700000", "153503.490000", "153504.277500", "153505.065000", "153505.855000", "153506.642500", "153507.430000", "153508.217500", "153509.007500", "153509.795000", "153510.582500", "153511.370000", "153512.160000", "153512.947500", "153513.735000", "153514.522500", "153515.312500", "153516.100000", "153516.887500", "153517.675000", "153518.465000", "153519.252500", "153520.040000", "153520.830000", "153521.617500", "153522.405000", "153523.192500", "153523.982500", "153524.770000", "153525.557500", "153526.345000", "153527.135000", "153527.922500", "153528.710000", "153529.497500", "153530.287500", "153531.075000", "153531.862500", "153532.650000", "153533.440000", "153534.227500", "153535.015000", "153535.802500", "153536.592500", "153537.380000", "153538.167500", "153538.957500", "153539.745000", "153540.532500", "153541.320000", "153542.110000", "153542.897500", "153543.685000", "153544.472500", "153545.262500", "153546.050000", "153546.837500", "153547.625000", "153548.415000", "153549.202500", "153549.990000", "153550.777500", "153551.567500", "153552.355000", "153553.142500", "153553.930000", "153554.720000", "153555.507500", "153556.295000", "153557.085000", "153557.872500", "153558.660000", "153559.447500", "153600.237500", "153601.025000", "153601.812500", "153602.600000", "153603.390000", "153604.177500", "153604.965000", "153605.752500", "153606.542500", "153607.330000", "153608.117500", "153608.905000", "153609.695000", "153610.482500", "153611.270000", "153612.057500", "153612.847500", "153613.635000", "153614.422500", "153615.212500", "153616.000000", "153616.787500", "153617.575000", "153618.365000", "153619.152500", "153619.940000", "153620.727500", "153621.517500", "153622.305000", "153623.092500", "153623.880000", "153624.670000", "153625.457500", "153626.245000", "153627.032500", "153627.822500", "153628.610000", "153629.397500", "153630.185000", "153630.975000", "153631.762500", "153632.550000", "153633.340000", "153634.127500", "153634.915000", "153635.702500", "153636.492500", "153637.280000", "153638.067500", "153638.855000", "153639.645000", "153640.432500", "153641.220000", "153642.007500", "153642.797500", "153643.585000", "153644.372500", "153645.160000", "153645.950000", "153646.737500", "153647.525000", "153648.312500", "153649.102500", "153649.890000", "153650.677500", "153651.467500", "153652.255000", "153653.042500", "153653.830000", "153654.620000", "153655.407500", "153656.195000", "153656.982500", "153657.772500", "153658.560000", "153659.347500", "153700.135000", "153700.925000", "153701.712500", "153702.500000", "153703.287500", "153704.077500", "153704.865000", "153705.652500", "153706.440000", "153707.230000", "153708.017500", "153708.805000", "153709.595000", "153710.382500", "153711.170000", "153711.957500", "153712.747500", "153713.535000", "153714.322500", "153715.110000", "153715.900000", "153716.687500", "153717.475000", "153718.262500", "153719.052500", "153719.840000", "153720.627500", "153721.415000", "153722.205000", "153722.992500", "153723.780000", "153724.567500", "153725.357500", "153726.145000", "153726.932500", "153727.722500", "153728.510000", "153729.297500", "153730.085000", "153730.875000", "153731.662500", "153732.450000", "153733.237500", "153734.027500", "153734.815000", "153735.602500", "153736.390000", "153737.180000", "153737.967500", "153738.755000", "153739.542500", "153740.332500", "153741.120000", "153741.907500", "153742.695000", "153743.485000", "153744.272500", "153745.060000", "153745.850000", "153746.637500", "153747.425000", "153748.212500", "153749.002500", "153749.790000", "153750.577500", "153751.365000", "153752.155000", "153752.942500", "153753.730000", "153754.517500", "153755.307500", "153756.095000", "153756.882500", "153757.670000", "153758.460000", "153759.247500", "153800.035000", "153800.822500", "153801.612500", "153802.400000", "153803.187500", "153803.977500", "153804.765000", "153805.552500", "153806.340000", "153807.130000", "153807.917500", "153808.705000", "153809.492500", "153810.282500", "153811.070000", "153811.857500", "153812.645000", "153813.435000", "153814.222500", "153815.010000", "153815.797500", "153816.587500", "153817.375000", "153818.162500", "153818.950000", "153819.740000", "153820.527500", "153821.315000", "153822.105000", "153822.892500", "153823.680000", "153824.467500", "153825.257500", "153826.045000", "153826.832500", "153827.620000", "153828.410000", "153829.197500", "153829.985000", "153830.772500", "153831.562500", "153832.350000", "153833.137500", "153833.925000", "153834.715000", "153835.502500", "153836.290000", "153837.080000", "153837.867500", "153838.655000", "153839.442500", "153840.232500", "153841.020000", "153841.807500", "153842.595000", "153843.385000", "153844.172500", "153844.960000", "153845.747500", "153846.537500", "153847.325000", "153848.112500", "153848.900000", "153849.690000", "153850.477500", "153851.265000", "153852.052500", "153852.842500", "153853.630000", "153854.417500", "153855.207500", "153855.995000", "153856.782500", "153857.570000", "153858.360000", "153859.147500", "153859.935000", "153900.722500", "153901.512500", "153902.300000", "153903.087500", "153903.875000", "153904.665000", "153905.452500", "153906.240000", "153907.027500", "153907.817500"],
      "ContentTime": ["165431.125000", "165431.125000", "165431.125000", "165531.093000", "165531.093000", "165531.093000", "165531.093000", "165531.093000", "165531.093000", "165531.093000", "165531.109000", "165531.109000", "165531.109000", "165531.109000", "165531.109000", "165531.109000", "165531.109000", "165531.125000", "165531.125000", "165531.125000", "165531.125000", "165531.125000", "165531.125000", "165531.125000", "165531.140000", "165531.140000", "165531.140000", "165531.140000", "165531.140000", "165531.140000", "165531.140000", "165531.156000", "165631.093000", "165631.093000", "165631.093000", "165631.093000", "165631.093000", "165631.093000", "165631.109000", "165631.109000", "165631.109000", "165631.109000", "165631.109000", "165631.109000", "165631.109000", "165631.125000", "165631.125000", "165631.125000", "165631.125000", "165631.125000", "165631.125000", "165631.125000", "165631.140000", "165631.140000", "165631.140000", "165631.140000", "165631.140000", "165631.140000", "165631.140000", "165631.156000", "165731.093000", "165731.093000", "165731.093000", "165731.093000", "165731.093000", "165731.093000", "165731.093000", "165731.109000", "165731.109000", "165731.109000", "165731.125000", "165731.125000", "165731.125000", "165731.125000", "165731.125000", "165731.125000", "165731.125000", "165731.140000", "165731.140000", "165731.140000", "165731.140000", "165731.140000", "165731.140000", "165731.140000", "165731.156000", "165731.156000", "165731.156000", "165731.156000", "165831.093000", "165831.093000", "165831.093000", "165831.093000", "165831.093000", "165831.093000", "165831.109000", "165831.109000", "165831.109000", "165831.109000", "165831.109000", "165831.109000", "165831.109000", "165831.125000", "165831.125000", "165831.125000", "165831.125000", "165831.125000", "165831.125000", "165831.125000", "165831.140000", "165831.140000", "165831.140000", "165831.140000", "165831.140000", "165831.140000", "165831.140000", "165831.156000", "165931.093000", "165931.093000", "165931.093000", "165931.093000", "165931.093000", "165931.093000", "165931.093000", "165931.109000", "165931.109000", "165931.109000", "165931.109000", "165931.109000", "165931.109000", "165931.125000", "165931.125000", "165931.125000", "165931.125000", "165931.125000", "165931.125000", "165931.125000", "165931.140000", "165931.140000", "165931.140000", "165931.140000", "165931.140000", "165931.140000", "165931.156000", "165931.156000", "165931.156000", "170031.093000", "170031.093000", "170031.093000", "170031.093000", "170031.093000", "170031.093000", "170031.093000", "170031.109000", "170031.109000", "170031.109000", "170031.109000", "170031.109000", "170031.109000", "170031.125000", "170031.125000", "170031.125000", "170031.125000", "170031.125000", "170031.125000", "170031.140000", "170031.140000", "170031.140000", "170031.140000", "170031.140000", "170031.140000", "170031.156000", "170031.156000", "170031.156000", "170131.093000", "170131.093000", "170131.093000", "170131.093000", "170131.093000", "170131.093000", "170131.109000", "170131.109000", "170131.109000", "170131.109000", "170131.109000", "170131.109000", "170131.109000", "170131.125000", "170131.125000", "170131.125000", "170131.125000", "170131.125000", "170131.125000", "170131.125000", "170131.140000", "170131.140000", "170131.140000", "170131.140000", "170131.140000", "170131.140000", "170131.140000", "170131.156000", "170231.093000", "170231.093000", "170231.093000", "170231.093000", "170231.093000", "170231.093000", "170231.093000", "170231.109000", "170231.109000", "170231.109000", "170231.109000", "170231.109000", "170231.109000", "170231.125000", "170231.125000", "170231.125000", "170231.125000", "170231.125000", "170231.125000", "170231.125000", "170231.140000", "170231.140000", "170231.140000", "170231.140000", "170231.156000", "170231.156000", "170231.156000", "170231.156000", "170331.093000", "170331.093000", "170331.093000", "170331.093000", "170331.093000", "170331.093000", "170331.109000", "170331.109000", "170331.109000", "170331.109000", "170331.109000", "170331.109000", "170331.109000", "170331.125000", "170331.125000", "170331.125000", "170331.125000", "170331.125000", "170331.125000", "170331.125000", "170331.140000", "170331.140000", "170331.140000", "170331.140000", "170331.140000", "170331.140000", "170331.140000", "170331.156000", "170431.093000", "170431.093000", "170431.093000", "170431.093000", "170431.093000", "170431.093000", "170431.109000", "170431.109000", "170431.109000", "170431.109000", "170431.109000", "170431.109000", "170431.109000", "170431.125000", "170431.125000", "170431.125000", "170431.125000", "170431.125000", "170431.125000", "170431.125000", "170431.140000", "170431.140000", "170431.140000", "170431.140000", "170431.140000", "170431.140000", "170431.156000", "170431.156000", "170431.156000", "170531.093000", "170531.093000", "170531.093000", "170531.093000", "170531.093000", "170531.093000", "170531.109000", "170531.109000", "170531.109000", "170531.109000", "170531.109000", "170531.109000", "170531.109000", "170531.125000", "170531.125000", "170531.125000", "170531.125000", "170531.125000", "170531.140000", "170531.140000", "170531.140000", "170531.140000", "170531.140000", "170531.140000", "170531.156000", "170531.156000", "170531.156000", "170531.156000", "170631.093000", "170631.093000", "170631.093000", "170631.093000", "170631.093000", "170631.093000", "170631.109000", "170631.109000", "170631.109000", "170631.109000", "170631.109000", "170631.109000", "170631.125000", "170631.125000", "170631.125000", "170631.125000", "170631.125000", "170631.140000", "170631.140000", "170631.140000", "170631.140000", "170631.140000", "170631.140000", "170631.140000", "170631.156000", "170631.156000", "170631.156000", "170631.156000", "170731.093000", "170731.093000", "170731.093000", "170731.093000", "170731.093000", "170731.093000", "170731.109000", "170731.109000", "170731.109000", "170731.109000", "170731.109000", "170731.109000", "170731.109000", "170731.125000", "170731.125000", "170731.125000", "170731.125000", "170731.125000", "170731.140000", "170731.140000", "170731.140000", "170731.140000", "170731.156000", "170731.156000", "170731.156000", "170731.156000", "170731.156000", "170731.156000", "170831.093000", "170831.093000", "170831.093000", "170831.093000", "170831.093000", "170831.093000", "170831.093000", "170831.109000", "170831.109000", "170831.109000", "170831.109000", "170831.109000", "170831.109000", "170831.125000", "170831.125000", "170831.125000", "170831.125000", "170831.125000", "170831.125000", "170831.140000", "170831.140000", "170831.140000", "170831.140000", "170831.140000", "170831.140000", "170831.140000", "170831.156000", "170831.156000", "170831.156000", "170931.093000", "170931.093000", "170931.093000", "170931.093000", "170931.093000", "170931.093000", "170931.093000", "170931.109000", "170931.109000", "170931.109000", "170931.109000", "170931.109000", "170931.109000", "170931.125000", "170931.125000", "170931.125000", "170931.125000", "170931.125000", "170931.125000", "170931.125000", "170931.140000", "170931.140000", "170931.140000", "170931.140000", "170931.140000", "170931.140000", "170931.140000", "170931.156000", "171031.093000", "171031.093000", "171031.093000", "171031.093000", "171031.093000", "171031.093000", "171031.109000", "171031.109000", "171031.109000", "171031.109000", "171031.109000", "171031.109000", "171031.109000", "171031.125000", "171031.125000", "171031.125000", "171031.125000", "171031.125000", "171031.125000", "171031.125000", "171031.140000", "171031.140000", "171031.140000", "171031.140000", "171031.140000", "171031.140000", "171031.140000", "171031.156000", "171131.093000", "171131.093000", "171131.093000", "171131.093000", "171131.093000", "171131.093000", "171131.093000", "171131.109000", "171131.109000", "171131.109000", "171131.109000", "171131.109000", "171131.109000", "171131.125000", "171131.125000", "171131.125000", "171131.125000", "171131.125000", "171131.125000", "171131.125000", "171131.140000", "171131.140000", "171131.140000", "171131.140000", "171131.156000", "171131.156000", "171131.156000", "171131.156000", "171231.093000", "171231.093000", "171231.093000", "171231.093000", "171231.093000", "171231.093000", "171231.093000", "171231.109000", "171231.109000", "171231.109000", "171231.109000", "171231.109000", "171231.109000", "171231.109000", "171231.125000", "171231.125000", "171231.125000", "171231.125000", "171231.125000", "171231.125000", "171231.140000", "171231.140000", "171231.140000", "171231.140000", "171231.140000", "171231.140000", "171231.140000", "171231.156000", "171231.156000", "171331.093000", "171331.093000", "171331.093000", "171331.093000", "171331.093000", "171331.093000", "171331.109000", "171331.109000", "171331.109000", "171331.109000", "171331.109000", "171331.109000", "171331.109000", "171331.125000", "171331.125000", "171331.125000", "171331.125000", "171331.125000", "171331.125000", "171331.125000", "171331.140000", "171331.140000", "171331.140000", "171331.140000", "171331.140000", "171331.140000", "171331.140000", "171331.156000", "171431.093000", "171431.093000", "171431.093000", "171431.093000", "171431.093000", "171431.093000", "171431.109000", "171431.109000", "171431.109000", "171431.109000", "171431.109000", "171431.109000", "171431.109000", "171431.125000", "171431.125000", "171431.125000", "171431.125000", "171431.125000", "171431.125000", "171431.125000", "171431.140000", "171431.140000", "171431.140000", "171431.140000", "171431.140000", "171431.140000", "171431.140000", "171431.156000", "171456.984000", "171457.000000", "171457.000000", "171457.000000", "171457.000000", "171457.000000", "171457.015000", "171457.015000", "171457.015000", "171457.015000", "171457.015000", "171457.015000", "171457.031000"],
