{
  "AcquisitionMatrixPE": 104,
  "AcquisitionNumber": 1,
  "AcquisitionTime": "15:15:7.725000",
  "BandwidthPerPixelPhaseEncode": 13.935,
  "BaseResolution": 104,
  "CoilString": "C:HEA;HEP",
  "ConversionSoftware": "dcm2niix",
  "ConversionSoftwareVersion": "v1.0.20210317",
  "DerivedVendorReportedEchoSpacing": 0.000690017,
  "DeviceSerialNumber": "35450",
  "DwellTime": 2.5e-06,
  "EchoTime": 0.0348,
  "EffectiveEchoSpacing": 0.000690017,
  "FlipAngle": 55,
  "ImageComments": "Unaliased MB8/PE3",
  "ImageOrientationPatientDICOM": [0.999977, -0.00146741, 0.00667432, -6.77069e-08, 0.976671, 0.21474],
  "ImageType": [
    "ORIGINAL",
    "PRIMARY",
    "M",
    "MB",
    "ND",
    "MOSAIC"
],
  "ImagingFrequency": 123.235,
  "InPlanePhaseEncodingDirectionDICOM": "COL",
  "InstitutionAddress": "Univeristy Ave. 197,Newark,North East,US,07102-1814",
  "InstitutionName": "RUBIC",
  "InstitutionalDepartmentName": "Department",
  "MRAcquisitionType": "2D",
  "MagneticFieldStrength": 3,
  "Manufacturer": "Siemens",
  "ManufacturersModelName": "TrioTim",
  "Modality": "MR",
  "MultibandAccelerationFactor": 8,
  "PartialFourier": 0.875,
  "PatientPosition": "HFS",
  "PercentPhaseFOV": 100,
  "PercentSampling": 100,
  "PhaseEncodingDirection": "j-",
  "PhaseEncodingSteps": 91,
  "PhaseResolution": 1,
  "PixelBandwidth": 1923,
  "ProcedureStepDescription": "Cole^Michael",
  "ProtocolName": "cmrr_mbep2d_bold_2mm_MB8_Task_8x",
  "PulseSequenceDetails": "%CustomerSeq%\\cmrr_mbep2d_bold",
  "ReceiveCoilName": "32Ch_Head",
  "ReconMatrixPE": 104,
  "RepetitionTime": 0.785,
  "SAR": 0.110865,
  "ScanOptions": "PFP\\FS",
  "ScanningSequence": "EP",
  "SequenceName": "epfid2d1_104",
  "SequenceVariant": "SK\\SS",
  "SeriesDescription": "cmrr_mbep2d_bold_2mm_MB8_Task_8x",
  "SeriesNumber": 19,
  "ShimSetting": [2140, -501, -7271, 583, -109, -1022, 214, -14],
  "SliceThickness": 2,
  "SliceTiming": [0, 0.4375, 0.0875, 0.525, 0.175, 0.6125, 0.2625, 0.7, 0.35, 0, 0.4375, 0.0875, 0.525, 0.175, 0.6125, 0.2625, 0.7, 0.35, 0, 0.4375, 0.0875, 0.525, 0.175, 0.6125, 0.2625, 0.7, 0.35, 0, 0.4375, 0.0875, 0.525, 0.175, 0.6125, 0.2625, 0.7, 0.35, 0, 0.4375, 0.0875, 0.525, 0.175, 0.6125, 0.2625, 0.7, 0.35, 0, 0.4375, 0.0875, 0.525, 0.175, 0.6125, 0.2625, 0.7, 0.35, 0, 0.4375, 0.0875, 0.525, 0.175, 0.6125, 0.2625, 0.7, 0.35, 0, 0.4375, 0.0875, 0.525, 0.175, 0.6125, 0.2625, 0.7, 0.35],
  "SoftwareVersions": "syngo MR B19",
  "SpacingBetweenSlices": 2,
  "StationName": "MRC35450",
  "TaskName": "cpro",
  "TotalReadoutTime": 0.0710717,
  "TxRefAmp": 314.489,
  "dcmmeta_affine": [
    [-1.999953269958496, -1.3541389876081666e-07, 0.013667447492480278, 102.15644836425781],
    [0.002934816526249051, 1.9533424377441406, 0.42947015166282654, -87.62615203857422],
    [0.01334863156080246, -0.4294801950454712, 1.9532968997955322, -55.25704574584961],
    [0.0, 0.0, 0.0, 1.0]
],
  "dcmmeta_reorient_transform": [
    [0.0, -1.0, 0.0, 103.0],
    [1.0, 0.0, 0.0, 0.0],
    [0.0, 0.0, 1.0, 0.0],
    [0.0, 0.0, 0.0, 1.0]
],
  "dcmmeta_shape": [104, 104, 72, 581],
  "dcmmeta_slice_dim": 2,
  "dcmmeta_version": 0.6,
  "global": {
    "const": {
      "AcquisitionMatrix": [104, 0, 0, 104],
      "AngioFlag": "N",
      "BitsAllocated": 16,
      "BitsStored": 12,
      "Columns": 936,
      "EchoNumbers": 1,
      "EchoTime": 34.8,
      "EchoTrainLength": 1,
      "FlipAngle": 55.0,
      "HighBit": 11,
      "ImageOrientationPatient": [0.99997664983877, -0.0014674083062, 0.00667431570232, -6.7706947e-08, 0.97667123027296, 0.21474009396734],
      "ImagePositionPatient": [-934.13695395659, -924.93769947241, -283.71029522668],
      "ImageType": [
        "ORIGINAL",
        "PRIMARY",
        "M",
        "MB",
        "ND",
        "MOSAIC"
],
      "ImagedNucleus": "1H",
      "ImagingFrequency": 123.234629,
      "InPlanePhaseEncodingDirection": "COL",
      "MRAcquisitionType": "2D",
      "MagneticFieldStrength": 3.0,
      "Manufacturer": "SIEMENS",
      "ManufacturerModelName": "TrioTim",
      "Modality": "MR",
      "NumberOfAverages": 1.0,
      "NumberOfPhaseEncodingSteps": 91,
      "PercentPhaseFieldOfView": 100.0,
      "PercentSampling": 100.0,
      "PerformedProcedureStepStartTime": "140629.484000",
      "PhotometricInterpretation": "MONOCHROME2",
      "PixelBandwidth": 1923.0,
      "PixelRepresentation": 0,
      "PixelSpacing": [2.0, 2.0],
      "ProtocolName": "cmrr_mbep2d_bold_2mm_MB8_Task_8x",
      "RepetitionTime": 785.0,
      "Rows": 936,
      "SAR": 0.11086493819922,
      "SamplesPerPixel": 1,
      "ScanOptions": [
        "PFP",
        "FS"
],
      "ScanningSequence": "EP",
      "SequenceName": "epfid2d1_104",
      "SequenceVariant": [
        "SK",
        "SS"
],
      "SeriesDescription": "cmrr_mbep2d_bold_2mm_MB8_Task_8x",
      "SeriesNumber": 19,
      "SeriesTime": "161259.140000",
      "SliceLocation": -72.08500815856,
      "SliceThickness": 2.0,
      "SmallestImagePixelValue": 0,
      "SoftwareVersions": "syngo MR B19",
      "SpacingBetweenSlices": 2.0000000195831,
      "SpecificCharacterSet": "ISO_IR 100",
      "StudyID": "1",
      "StudyTime": "140629.453000",
      "TransmitCoilName": "Body",
      "VariableFlipAngleFlag": "N",
      "WindowCenterWidthExplanation": "Algo1",
      "dBdt": 0.0},
    "slices": {}
  },
  "time": {
    "samples": {
      "AcquisitionNumber": [1, 2, 3, 4, 5, 6, 7, 8, 9, 10, 11, 12, 13, 14, 15, 16, 17, 18, 19, 20, 21, 22, 23, 24, 25, 26, 27, 28, 29, 30, 31, 32, 33, 34, 35, 36, 37, 38, 39, 40, 41, 42, 43, 44, 45, 46, 47, 48, 49, 50, 51, 52, 53, 54, 55, 56, 57, 58, 59, 60, 61, 62, 63, 64, 65, 66, 67, 68, 69, 70, 71, 72, 73, 74, 75, 76, 77, 78, 79, 80, 81, 82, 83, 84, 85, 86, 87, 88, 89, 90, 91, 92, 93, 94, 95, 96, 97, 98, 99, 100, 101, 102, 103, 104, 105, 106, 107, 108, 109, 110, 111, 112, 113, 114, 115, 116, 117, 118, 119, 120, 121, 122, 123, 124, 125, 126, 127, 128, 129, 130, 131, 132, 133, 134, 135, 136, 137, 138, 139, 140, 141, 142, 143, 144, 145, 146, 147, 148, 149, 150, 151, 152, 153, 154, 155, 156, 157, 158, 159, 160, 161, 162, 163, 164, 165, 166, 167, 168, 169, 170, 171, 172, 173, 174, 175, 176, 177, 178, 179, 180, 181, 182, 183, 184, 185, 186, 187, 188, 189, 190, 191, 192, 193, 194, 195, 196, 197, 198, 199, 200, 201, 202, 203, 204, 205, 206, 207, 208, 209, 210, 211, 212, 213, 214, 215, 216, 217, 218, 219, 220, 221, 222, 223, 224, 225, 226, 227, 228, 229, 230, 231, 232, 233, 234, 235, 236, 237, 238, 239, 240, 241, 242, 243, 244, 245, 246, 247, 248, 249, 250, 251, 252, 253, 254, 255, 256, 257, 258, 259, 260, 261, 262, 263, 264, 265, 266, 267, 268, 269, 270, 271, 272, 273, 274, 275, 276, 277, 278, 279, 280, 281, 282, 283, 284, 285, 286, 287, 288, 289, 290, 291, 292, 293, 294, 295, 296, 297, 298, 299, 300, 301, 302, 303, 304, 305, 306, 307, 308, 309, 310, 311, 312, 313, 314, 315, 316, 317, 318, 319, 320, 321, 322, 323, 324, 325, 326, 327, 328, 329, 330, 331, 332, 333, 334, 335, 336, 337, 338, 339, 340, 341, 342, 343, 344, 345, 346, 347, 348, 349, 350, 351, 352, 353, 354, 355, 356, 357, 358, 359, 360, 361, 362, 363, 364, 365, 366, 367, 368, 369, 370, 371, 372, 373, 374, 375, 376, 377, 378, 379, 380, 381, 382, 383, 384, 385, 386, 387, 388, 389, 390, 391, 392, 393, 394, 395, 396, 397, 398, 399, 400, 401, 402, 403, 404, 405, 406, 407, 408, 409, 410, 411, 412, 413, 414, 415, 416, 417, 418, 419, 420, 421, 422, 423, 424, 425, 426, 427, 428, 429, 430, 431, 432, 433, 434, 435, 436, 437, 438, 439, 440, 441, 442, 443, 444, 445, 446, 447, 448, 449, 450, 451, 452, 453, 454, 455, 456, 457, 458, 459, 460, 461, 462, 463, 464, 465, 466, 467, 468, 469, 470, 471, 472, 473, 474, 475, 476, 477, 478, 479, 480, 481, 482, 483, 484, 485, 486, 487, 488, 489, 490, 491, 492, 493, 494, 495, 496, 497, 498, 499, 500, 501, 502, 503, 504, 505, 506, 507, 508, 509, 510, 511, 512, 513, 514, 515, 516, 517, 518, 519, 520, 521, 522, 523, 524, 525, 526, 527, 528, 529, 530, 531, 532, 533, 534, 535, 536, 537, 538, 539, 540, 541, 542, 543, 544, 545, 546, 547, 548, 549, 550, 551, 552, 553, 554, 555, 556, 557, 558, 559, 560, 561, 562, 563, 564, 565, 566, 567, 568, 569, 570, 571, 572, 573, 574, 575, 576, 577, 578, 579, 580, 581],
      "AcquisitionTime": ["151507.725000", "151508.515000", "151509.302500", "151510.090000", "151510.877500", "151511.667500", "151512.455000", "151513.242500", "151514.030000", "151514.820000", "151515.607500", "151516.395000", "151517.182500", "151517.972500", "151518.760000", "151519.547500", "151520.335000", "151521.125000", "151521.912500", "151522.700000", "151523.490000", "151524.277500", "151525.065000", "151525.852500", "151526.642500", "151527.430000", "151528.217500", "151529.005000", "151529.795000", "151530.582500", "151531.370000", "151532.157500", "151532.947500", "151533.735000", "151534.522500", "151535.310000", "151536.100000", "151536.887500", "151537.675000", "151538.465000", "151539.252500", "151540.040000", "151540.827500", "151541.617500", "151542.405000", "151543.192500", "151543.980000", "151544.770000", "151545.557500", "151546.345000", "151547.132500", "151547.922500", "151548.710000", "151549.497500", "151550.285000", "151551.075000", "151551.862500", "151552.650000", "151553.437500", "151554.227500", "151555.015000", "151555.802500", "151556.592500", "151557.380000", "151558.167500", "151558.955000", "151559.745000", "151600.532500", "151601.320000", "151602.107500", "151602.897500", "151603.685000", "151604.472500", "151605.260000", "151606.050000", "151606.837500", "151607.625000", "151608.412500", "151609.202500", "151609.990000", "151610.777500", "151611.565000", "151612.355000", "151613.142500", "151613.930000", "151614.720000", "151615.507500", "151616.295000", "151617.082500", "151617.872500", "151618.660000", "151619.447500", "151620.235000", "151621.025000", "151621.812500", "151622.600000", "151623.387500", "151624.177500", "151624.965000", "151625.752500", "151626.540000", "151627.330000", "151628.117500", "151628.905000", "151629.692500", "151630.482500", "151631.270000", "151632.057500", "151632.847500", "151633.635000", "151634.422500", "151635.210000", "151636.000000", "151636.787500", "151637.575000", "151638.362500", "151639.152500", "151639.940000", "151640.727500", "151641.515000", "151642.305000", "151643.092500", "151643.880000", "151644.667500", "151645.457500", "151646.245000", "151647.032500", "151647.820000", "151648.610000", "151649.397500", "151650.185000", "151650.975000", "151651.762500", "151652.550000", "151653.337500", "151654.127500", "151654.915000", "151655.702500", "151656.490000", "151657.280000", "151658.067500", "151658.855000", "151659.642500", "151700.432500", "151701.220000", "151702.007500", "151702.795000", "151703.585000", "151704.372500", "151705.160000", "151705.947500", "151706.737500", "151707.525000", "151708.312500", "151709.102500", "151709.890000", "151710.677500", "151711.465000", "151712.255000", "151713.042500", "151713.830000", "151714.617500", "151715.407500", "151716.195000", "151716.982500", "151717.770000", "151718.560000", "151719.347500", "151720.135000", "151720.922500", "151721.712500", "151722.500000", "151723.287500", "151724.075000", "151724.865000", "151725.652500", "151726.440000", "151727.230000", "151728.017500", "151728.805000", "151729.592500", "151730.382500", "151731.170000", "151731.957500", "151732.745000", "151733.535000", "151734.322500", "151735.110000", "151735.897500", "151736.687500", "151737.475000", "151738.262500", "151739.050000", "151739.840000", "151740.627500", "151741.415000", "151742.202500", "151742.992500", "151743.780000", "151744.567500", "151745.357500", "151746.145000", "151746.932500", "151747.720000", "151748.510000", "151749.297500", "151750.085000", "151750.872500", "151751.662500", "151752.450000", "151753.237500", "151754.025000", "151754.815000", "151755.602500", "151756.390000", "151757.177500", "151757.967500", "151758.755000", "151759.542500", "151800.330000", "151801.120000", "151801.907500", "151802.695000", "151803.485000", "151804.272500", "151805.060000", "151805.847500", "151806.637500", "151807.425000", "151808.212500", "151809.000000", "151809.790000", "151810.577500", "151811.365000", "151812.152500", "151812.942500", "151813.730000", "151814.517500", "151815.305000", "151816.095000", "151816.882500", "151817.670000", "151818.457500", "151819.247500", "151820.035000", "151820.822500", "151821.612500", "151822.400000", "151823.187500", "151823.975000", "151824.765000", "151825.552500", "151826.340000", "151827.127500", "151827.917500", "151828.705000", "151829.492500", "151830.280000", "151831.070000", "151831.857500", "151832.645000", "151833.432500", "151834.222500", "151835.010000", "151835.797500", "151836.585000", "151837.375000", "151838.162500", "151838.950000", "151839.740000", "151840.527500", "151841.315000", "151842.102500", "151842.892500", "151843.680000", "151844.467500", "151845.255000", "151846.045000", "151846.832500", "151847.620000", "151848.407500", "151849.197500", "151849.985000", "151850.772500", "151851.560000", "151852.350000", "151853.137500", "151853.925000", "151854.715000", "151855.502500", "151856.290000", "151857.077500", "151857.867500", "151858.655000", "151859.442500", "151900.230000", "151901.020000", "151901.807500", "151902.595000", "151903.382500", "151904.172500", "151904.960000", "151905.747500", "151906.535000", "151907.325000", "151908.112500", "151908.900000", "151909.687500", "151910.477500", "151911.265000", "151912.052500", "151912.842500", "151913.630000", "151914.417500", "151915.205000", "151915.995000", "151916.782500", "151917.570000", "151918.357500", "151919.147500", "151919.935000", "151920.722500", "151921.510000", "151922.300000", "151923.087500", "151923.875000", "151924.662500", "151925.452500", "151926.240000", "151927.027500", "151927.815000", "151928.605000", "151929.392500", "151930.180000", "151930.970000", "151931.757500", "151932.545000", "151933.332500", "151934.122500", "151934.910000", "151935.697500", "151936.485000", "151937.275000", "151938.062500", "151938.850000", "151939.637500", "151940.427500", "151941.215000", "151942.002500", "151942.790000", "151943.580000", "151944.367500", "151945.155000", "151945.942500", "151946.732500", "151947.520000", "151948.307500", "151949.097500", "151949.885000", "151950.672500", "151951.460000", "151952.250000", "151953.037500", "151953.825000", "151954.612500", "151955.402500", "151956.190000", "151956.977500", "151957.765000", "151958.555000", "151959.342500", "152000.130000", "152000.917500", "152001.707500", "152002.495000", "152003.282500", "152004.070000", "152004.860000", "152005.647500", "152006.435000", "152007.225000", "152008.012500", "152008.800000", "152009.587500", "152010.377500", "152011.165000", "152011.952500", "152012.740000", "152013.530000", "152014.317500", "152015.105000", "152015.892500", "152016.682500", "152017.470000", "152018.257500", "152019.045000", "152019.835000", "152020.622500", "152021.410000", "152022.197500", "152022.987500", "152023.775000", "152024.562500", "152025.352500", "152026.140000", "152026.927500", "152027.715000", "152028.505000", "152029.292500", "152030.080000", "152030.867500", "152031.657500", "152032.445000", "152033.232500", "152034.020000", "152034.810000", "152035.597500", "152036.385000", "152037.172500", "152037.962500", "152038.750000", "152039.537500", "152040.325000", "152041.115000", "152041.902500", "152042.690000", "152043.480000", "152044.267500", "152045.055000", "152045.842500", "152046.632500", "152047.420000", "152048.207500", "152048.995000", "152049.785000", "152050.572500", "152051.360000", "152052.147500", "152052.937500", "152053.725000", "152054.512500", "152055.300000", "152056.090000", "152056.877500", "152057.665000", "152058.452500", "152059.242500", "152100.030000", "152100.817500", "152101.607500", "152102.395000", "152103.182500", "152103.970000", "152104.760000", "152105.547500", "152106.335000", "152107.122500", "152107.912500", "152108.700000", "152109.487500", "152110.275000", "152111.065000", "152111.852500", "152112.640000", "152113.427500", "152114.217500", "152115.005000", "152115.792500", "152116.580000", "152117.370000", "152118.157500", "152118.945000", "152119.735000", "152120.522500", "152121.310000", "152122.097500", "152122.887500", "152123.675000", "152124.462500", "152125.250000", "152126.040000", "152126.827500", "152127.615000", "152128.402500", "152129.192500", "152129.980000", "152130.767500", "152131.555000", "152132.345000", "152133.132500", "152133.920000", "152134.707500", "152135.497500", "152136.285000", "152137.072500", "152137.862500", "152138.650000", "152139.437500", "152140.225000", "152141.015000", "152141.802500", "152142.590000", "152143.377500", "152144.167500", "152144.955000", "152145.742500", "152146.530000", "152147.320000", "152148.107500", "152148.895000", "152149.682500", "152150.472500", "152151.260000", "152152.047500", "152152.835000", "152153.625000", "152154.412500", "152155.200000", "152155.990000", "152156.777500", "152157.565000", "152158.352500", "152159.142500", "152159.930000", "152200.717500", "152201.505000", "152202.295000", "152203.082500", "152203.870000", "152204.657500", "152205.447500", "152206.235000", "152207.022500", "152207.810000", "152208.600000", "152209.387500", "152210.175000", "152210.965000", "152211.752500", "152212.540000", "152213.327500", "152214.117500", "152214.905000", "152215.692500", "152216.480000", "152217.270000", "152218.057500", "152218.845000", "152219.632500", "152220.422500", "152221.210000", "152221.997500", "152222.785000", "152223.575000", "152224.362500", "152225.150000", "152225.937500", "152226.727500", "152227.515000", "152228.302500", "152229.092500", "152229.880000", "152230.667500", "152231.455000", "152232.245000", "152233.032500", "152233.820000", "152234.607500", "152235.397500", "152236.185000", "152236.972500", "152237.760000", "152238.550000", "152239.337500", "152240.125000", "152240.912500", "152241.702500", "152242.490000", "152243.277500", "152244.065000", "152244.855000"],
      "ContentTime": ["161259.140000", "161259.156000", "161259.156000", "161259.156000", "161259.156000", "161259.156000", "161259.156000", "161259.156000", "161359.125000", "161359.125000", "161359.125000", "161359.125000", "161359.125000", "161359.125000", "161359.125000", "161359.140000", "161359.140000", "161359.140000", "161359.140000", "161359.140000", "161359.140000", "161359.156000", "161359.156000", "161359.156000", "161359.156000", "161359.156000", "161359.156000", "161359.156000", "161359.156000", "161359.171000", "161359.171000", "161359.171000", "161359.171000", "161359.171000", "161359.187000", "161359.187000", "161459.125000", "161459.125000", "161459.125000", "161459.125000", "161459.125000", "161459.125000", "161459.125000", "161459.140000", "161459.140000", "161459.140000", "161459.140000", "161459.140000", "161459.140000", "161459.156000", "161459.156000", "161459.156000", "161459.156000", "161459.156000", "161459.156000", "161459.156000", "161459.171000", "161459.171000", "161459.171000", "161459.171000", "161459.171000", "161459.171000", "161459.171000", "161459.187000", "161559.125000", "161559.125000", "161559.125000", "161559.125000", "161559.125000", "161559.125000", "161559.140000", "161559.140000", "161559.140000", "161559.140000", "161559.140000", "161559.140000", "161559.140000", "161559.156000", "161559.156000", "161559.156000", "161559.156000", "161559.156000", "161559.156000", "161559.156000", "161559.171000", "161559.171000", "161559.171000", "161559.171000", "161559.171000", "161559.171000", "161559.187000", "161559.187000", "161639.125000", "161639.125000", "161639.125000", "161639.125000", "161639.125000", "161639.125000", "161639.125000", "161639.140000", "161639.140000", "161639.140000", "161639.140000", "161639.140000", "161639.140000", "161639.140000", "161639.156000", "161639.156000", "161639.156000", "161639.156000", "161639.156000", "161739.125000", "161739.125000", "161739.125000", "161739.125000", "161739.125000", "161739.125000", "161739.125000", "161739.140000", "161739.140000", "161739.140000", "161739.140000", "161739.140000", "161739.140000", "161739.156000", "161739.156000", "161739.156000", "161739.156000", "161739.156000", "161739.156000", "161739.156000", "161739.171000", "161739.171000", "161739.171000", "161739.171000", "161739.171000", "161739.171000", "161739.171000", "161739.187000", "161839.125000", "161839.125000", "161839.125000", "161839.125000", "161839.125000", "161839.125000", "161839.125000", "161839.140000", "161839.140000", "161839.140000", "161839.140000", "161839.140000", "161839.140000", "161839.140000", "161839.156000", "161839.156000", "161839.156000", "161839.156000", "161839.156000", "161839.156000", "161839.171000", "161839.171000", "161839.171000", "161839.171000", "161839.171000", "161839.171000", "161839.171000", "161839.187000", "161839.187000", "161939.125000", "161939.125000", "161939.125000", "161939.125000", "161939.125000", "161939.125000", "161939.140000", "161939.140000", "161939.140000", "161939.140000", "161939.140000", "161939.140000", "161939.140000", "161939.156000", "161939.156000", "161939.156000", "161939.156000", "161939.156000", "161939.156000", "161939.171000", "161939.171000", "161939.171000", "161939.171000", "161939.171000", "161939.171000", "161939.187000", "161939.187000", "161939.187000", "162039.125000", "162039.125000", "162039.125000", "162039.125000", "162039.125000", "162039.125000", "162039.125000", "162039.140000", "162039.140000", "162039.140000", "162039.140000", "162039.140000", "162039.140000", "162039.156000", "162039.156000", "162039.156000", "162039.156000", "162039.156000", "162039.156000", "162039.156000", "162039.171000", "162039.171000", "162039.171000", "162039.171000", "162039.171000", "162039.171000", "162039.171000", "162039.187000", "162139.125000", "162139.125000", "162139.125000", "162139.125000", "162139.125000", "162139.125000", "162139.140000", "162139.140000", "162139.140000", "162139.140000", "162139.140000", "162139.140000", "162139.156000", "162139.156000", "162139.156000", "162139.156000", "162139.156000", "162139.156000", "162139.156000", "162139.171000", "162139.171000", "162139.203000", "162139.203000", "162139.218000", "162139.218000", "162139.218000", "162139.218000", "162139.218000", "162239.125000", "162239.125000", "162239.125000", "162239.125000", "162239.125000", "162239.125000", "162239.125000", "162239.140000", "162239.140000", "162239.140000", "162239.140000", "162239.140000", "162239.140000", "162239.156000", "162239.156000", "162239.156000", "162239.156000", "162239.156000", "162239.156000", "162239.156000", "162239.171000", "162239.171000", "162239.171000", "162239.171000", "162239.171000", "162239.187000", "162239.187000", "162239.187000", "162339.125000", "162339.125000", "162339.125000", "162339.125000", "162339.125000", "162339.125000", "162339.125000", "162339.140000", "162339.140000", "162339.140000", "162339.140000", "162339.140000", "162339.156000", "162339.156000", "162339.156000", "162339.156000", "162339.156000", "162339.156000", "162339.156000", "162339.171000", "162339.171000", "162339.171000", "162339.171000", "162339.171000", "162339.171000", "162339.171000", "162339.187000", "162339.187000", "162439.125000", "162439.125000", "162439.125000", "162439.125000", "162439.125000", "162439.125000", "162439.140000", "162439.140000", "162439.140000", "162439.140000", "162439.140000", "162439.140000", "162439.140000", "162439.156000", "162439.156000", "162439.156000", "162439.156000", "162439.156000", "162439.156000", "162439.156000", "162439.171000", "162439.171000", "162439.171000", "162439.171000", "162439.171000", "162439.171000", "162439.171000", "162439.187000", "162439.187000", "162539.125000", "162539.125000", "162539.125000", "162539.125000", "162539.125000", "162539.125000", "162539.140000", "162539.140000", "162539.140000", "162539.140000", "162539.140000", "162539.140000", "162539.140000", "162539.156000", "162539.156000", "162539.156000", "162539.156000", "162539.156000", "162539.156000", "162539.156000", "162539.171000", "162539.171000", "162539.171000", "162539.171000", "162539.171000", "162539.187000", "162539.187000", "162539.187000", "162619.125000", "162619.125000", "162619.125000", "162619.125000", "162619.125000", "162619.125000", "162619.125000", "162619.140000", "162619.140000", "162619.140000", "162619.140000", "162619.140000", "162619.156000", "162619.156000", "162619.156000", "162619.156000", "162619.156000", "162619.156000", "162619.171000", "162719.125000", "162719.125000", "162719.125000", "162719.125000", "162719.125000", "162719.125000", "162719.140000", "162719.140000", "162719.140000", "162719.140000", "162719.140000", "162719.140000", "162719.140000", "162719.156000", "162719.156000", "162719.156000", "162719.156000", "162719.156000", "162719.156000", "162719.156000", "162719.171000", "162719.171000", "162719.171000", "162719.171000", "162719.171000", "162719.171000", "162719.171000", "162719.187000", "162819.125000", "162819.125000", "162819.125000", "162819.125000", "162819.125000", "162819.125000", "162819.140000", "162819.140000", "162819.140000", "162819.140000", "162819.140000", "162819.140000", "162819.140000", "162819.156000", "162819.156000", "162819.156000", "162819.156000", "162819.156000", "162819.171000", "162819.171000", "162819.171000", "162819.171000", "162819.171000", "162819.171000", "162819.187000", "162819.187000", "162819.187000", "162819.187000", "162919.125000", "162919.125000", "162919.125000", "162919.125000", "162919.125000", "162919.125000", "162919.140000", "162919.140000", "162919.140000", "162919.140000", "162919.140000", "162919.140000", "162919.140000", "162919.156000", "162919.156000", "162919.156000", "162919.156000", "162919.156000", "162919.156000", "162919.156000", "162919.171000", "162919.171000", "162919.171000", "162919.171000", "162919.171000", "162919.171000", "162919.171000", "162919.187000", "163019.125000", "163019.125000", "163019.125000", "163019.125000", "163019.125000", "163019.125000", "163019.140000", "163019.140000", "163019.140000", "163019.140000", "163019.140000", "163019.140000", "163019.156000", "163019.156000", "163019.156000", "163019.156000", "163019.156000", "163019.156000", "163019.156000", "163019.171000", "163019.171000", "163019.171000", "163019.171000", "163019.171000", "163019.171000", "163019.171000", "163019.187000", "163019.187000", "163119.125000", "163119.125000", "163119.125000", "163119.125000", "163119.125000", "163119.125000", "163119.140000", "163119.140000", "163119.140000", "163119.140000", "163119.140000", "163119.140000", "163119.140000", "163119.156000", "163119.156000", "163119.156000", "163119.156000", "163119.156000", "163119.156000", "163119.156000", "163119.171000", "163119.171000", "163119.171000", "163119.171000", "163119.171000", "163119.171000", "163119.171000", "163119.187000", "163219.125000", "163219.125000", "163219.125000", "163219.125000", "163219.140000", "163219.140000", "163219.140000", "163219.140000", "163219.140000", "163219.140000", "163219.140000", "163219.156000", "163219.156000", "163219.156000", "163219.156000", "163219.156000", "163219.156000", "163219.156000", "163219.171000", "163219.171000", "163219.171000", "163219.171000", "163219.171000", "163219.187000", "163219.187000", "163219.187000", "163219.187000", "163219.187000", "163219.187000", "163318.156000", "163318.171000", "163318.171000", "163318.171000", "163318.171000", "163318.171000", "163318.171000", "163318.171000", "163318.187000", "163318.187000", "163318.218000", "163318.218000", "163318.218000", "163318.218000", "163318.218000", "163318.218000", "163318.234000", "163318.234000", "163318.234000", "163318.234000", "163318.234000", "163318.234000", "163318.250000", "163318.250000", "163318.250000", "163318.250000", "163318.250000", "163318.250000"],
