{
  "AcquisitionMatrixPE": 104,
  "AcquisitionNumber": 1,
  "AcquisitionTime": "15:06:58.750000",
  "BandwidthPerPixelPhaseEncode": 13.935,
  "BaseResolution": 104,
  "CoilString": "C:HEA;HEP",
  "ConversionSoftware": "dcm2niix",
  "ConversionSoftwareVersion": "v1.0.20210317",
  "DerivedVendorReportedEchoSpacing": 0.000690017,
  "DeviceSerialNumber": "35450",
  "DwellTime": 2.5e-06,
  "EchoTime": 0.0348,
  "EffectiveEchoSpacing": 0.000690017,
  "FlipAngle": 55,
  "ImageComments": "Unaliased MB8/PE3",
  "ImageOrientationPatientDICOM": [0.999977, -0.00146741, 0.00667432, -6.77069e-08, 0.976671, 0.21474],
  "ImageType": [
    "ORIGINAL",
    "PRIMARY",
    "M",
    "MB",
    "ND",
    "MOSAIC"
],
  "ImagingFrequency": 123.235,
  "InPlanePhaseEncodingDirectionDICOM": "COL",
  "InstitutionAddress": "Univeristy Ave. 197,Newark,North East,US,07102-1814",
  "InstitutionName": "RUBIC",
  "InstitutionalDepartmentName": "Department",
  "MRAcquisitionType": "2D",
  "MagneticFieldStrength": 3,
  "Manufacturer": "Siemens",
  "ManufacturersModelName": "TrioTim",
  "Modality": "MR",
  "MultibandAccelerationFactor": 8,
  "PartialFourier": 0.875,
  "PatientPosition": "HFS",
  "PercentPhaseFOV": 100,
  "PercentSampling": 100,
  "PhaseEncodingDirection": "j-",
  "PhaseEncodingSteps": 91,
  "PhaseResolution": 1,
  "PixelBandwidth": 1923,
  "ProcedureStepDescription": "Cole^Michael",
  "ProtocolName": "cmrr_mbep2d_bold_2mm_MB8_Task_8x",
  "PulseSequenceDetails": "%CustomerSeq%\\cmrr_mbep2d_bold",
  "ReceiveCoilName": "32Ch_Head",
  "ReconMatrixPE": 104,
  "RepetitionTime": 0.785,
  "SAR": 0.110865,
  "ScanOptions": "PFP\\FS",
  "ScanningSequence": "EP",
  "SequenceName": "epfid2d1_104",
  "SequenceVariant": "SK\\SS",
  "SeriesDescription": "cmrr_mbep2d_bold_2mm_MB8_Task_8x",
  "SeriesNumber": 17,
  "ShimSetting": [2140, -501, -7271, 583, -109, -1022, 214, -14],
  "SliceThickness": 2,
  "SliceTiming": [0, 0.4375, 0.0875, 0.525, 0.175, 0.6125, 0.2625, 0.7, 0.35, 0, 0.4375, 0.0875, 0.525, 0.175, 0.6125, 0.2625, 0.7, 0.35, 0, 0.4375, 0.0875, 0.525, 0.175, 0.6125, 0.2625, 0.7, 0.35, 0, 0.4375, 0.0875, 0.525, 0.175, 0.6125, 0.2625, 0.7, 0.35, 0, 0.4375, 0.0875, 0.525, 0.175, 0.6125, 0.2625, 0.7, 0.35, 0, 0.4375, 0.0875, 0.525, 0.175, 0.6125, 0.2625, 0.7, 0.35, 0, 0.4375, 0.0875, 0.525, 0.175, 0.6125, 0.2625, 0.7, 0.35, 0, 0.4375, 0.0875, 0.525, 0.175, 0.6125, 0.2625, 0.7, 0.35],
  "SoftwareVersions": "syngo MR B19",
  "SpacingBetweenSlices": 2,
  "StationName": "MRC35450",
  "TaskName": "cpro",
  "TotalReadoutTime": 0.0710717,
  "TxRefAmp": 314.489,
  "dcmmeta_affine": [
    [-1.999953269958496, -1.3541389876081666e-07, 0.013667447492480278, 102.15644836425781],
    [0.002934816526249051, 1.9533424377441406, 0.42947015166282654, -87.62615203857422],
    [0.01334863156080246, -0.4294801950454712, 1.9532968997955322, -55.25704574584961],
    [0.0, 0.0, 0.0, 1.0]
],
  "dcmmeta_reorient_transform": [
    [0.0, -1.0, 0.0, 103.0],
    [1.0, 0.0, 0.0, 0.0],
    [0.0, 0.0, 1.0, 0.0],
    [0.0, 0.0, 0.0, 1.0]
],
  "dcmmeta_shape": [104, 104, 72, 581],
  "dcmmeta_slice_dim": 2,
  "dcmmeta_version": 0.6,
  "global": {
    "const": {
      "AcquisitionMatrix": [104, 0, 0, 104],
      "AngioFlag": "N",
      "BitsAllocated": 16,
      "BitsStored": 12,
      "Columns": 936,
      "EchoNumbers": 1,
      "EchoTime": 34.8,
      "EchoTrainLength": 1,
      "FlipAngle": 55.0,
      "HighBit": 11,
      "ImageOrientationPatient": [0.99997664983877, -0.0014674083062, 0.00667431570232, -6.7706947e-08, 0.97667123027296, 0.21474009396734],
      "ImagePositionPatient": [-934.13695395659, -924.93769947241, -283.71029522668],
      "ImageType": [
        "ORIGINAL",
        "PRIMARY",
        "M",
        "MB",
        "ND",
        "MOSAIC"
],
      "ImagedNucleus": "1H",
      "ImagingFrequency": 123.234629,
      "InPlanePhaseEncodingDirection": "COL",
      "MRAcquisitionType": "2D",
      "MagneticFieldStrength": 3.0,
      "Manufacturer": "SIEMENS",
      "ManufacturerModelName": "TrioTim",
      "Modality": "MR",
      "NumberOfAverages": 1.0,
      "NumberOfPhaseEncodingSteps": 91,
      "PercentPhaseFieldOfView": 100.0,
      "PercentSampling": 100.0,
      "PerformedProcedureStepStartTime": "140629.484000",
      "PhotometricInterpretation": "MONOCHROME2",
      "PixelBandwidth": 1923.0,
      "PixelRepresentation": 0,
      "PixelSpacing": [2.0, 2.0],
      "ProtocolName": "cmrr_mbep2d_bold_2mm_MB8_Task_8x",
      "RepetitionTime": 785.0,
      "Rows": 936,
      "SAR": 0.11086493819922,
      "SamplesPerPixel": 1,
      "ScanOptions": [
        "PFP",
        "FS"
],
      "ScanningSequence": "EP",
      "SequenceName": "epfid2d1_104",
      "SequenceVariant": [
        "SK",
        "SS"
],
      "SeriesDescription": "cmrr_mbep2d_bold_2mm_MB8_Task_8x",
      "SeriesNumber": 17,
      "SeriesTime": "155129.218000",
      "SliceLocation": -72.08500815856,
      "SliceThickness": 2.0,
      "SmallestImagePixelValue": 0,
      "SoftwareVersions": "syngo MR B19",
      "SpacingBetweenSlices": 2.0000000195831,
      "SpecificCharacterSet": "ISO_IR 100",
      "StudyID": "1",
      "StudyTime": "140629.453000",
      "TransmitCoilName": "Body",
      "VariableFlipAngleFlag": "N",
      "WindowCenterWidthExplanation": "Algo1",
      "dBdt": 0.0},
    "slices": {}
  },
  "time": {
    "samples": {
      "AcquisitionNumber": [1, 2, 3, 4, 5, 6, 7, 8, 9, 10, 11, 12, 13, 14, 15, 16, 17, 18, 19, 20, 21, 22, 23, 24, 25, 26, 27, 28, 29, 30, 31, 32, 33, 34, 35, 36, 37, 38, 39, 40, 41, 42, 43, 44, 45, 46, 47, 48, 49, 50, 51, 52, 53, 54, 55, 56, 57, 58, 59, 60, 61, 62, 63, 64, 65, 66, 67, 68, 69, 70, 71, 72, 73, 74, 75, 76, 77, 78, 79, 80, 81, 82, 83, 84, 85, 86, 87, 88, 89, 90, 91, 92, 93, 94, 95, 96, 97, 98, 99, 100, 101, 102, 103, 104, 105, 106, 107, 108, 109, 110, 111, 112, 113, 114, 115, 116, 117, 118, 119, 120, 121, 122, 123, 124, 125, 126, 127, 128, 129, 130, 131, 132, 133, 134, 135, 136, 137, 138, 139, 140, 141, 142, 143, 144, 145, 146, 147, 148, 149, 150, 151, 152, 153, 154, 155, 156, 157, 158, 159, 160, 161, 162, 163, 164, 165, 166, 167, 168, 169, 170, 171, 172, 173, 174, 175, 176, 177, 178, 179, 180, 181, 182, 183, 184, 185, 186, 187, 188, 189, 190, 191, 192, 193, 194, 195, 196, 197, 198, 199, 200, 201, 202, 203, 204, 205, 206, 207, 208, 209, 210, 211, 212, 213, 214, 215, 216, 217, 218, 219, 220, 221, 222, 223, 224, 225, 226, 227, 228, 229, 230, 231, 232, 233, 234, 235, 236, 237, 238, 239, 240, 241, 242, 243, 244, 245, 246, 247, 248, 249, 250, 251, 252, 253, 254, 255, 256, 257, 258, 259, 260, 261, 262, 263, 264, 265, 266, 267, 268, 269, 270, 271, 272, 273, 274, 275, 276, 277, 278, 279, 280, 281, 282, 283, 284, 285, 286, 287, 288, 289, 290, 291, 292, 293, 294, 295, 296, 297, 298, 299, 300, 301, 302, 303, 304, 305, 306, 307, 308, 309, 310, 311, 312, 313, 314, 315, 316, 317, 318, 319, 320, 321, 322, 323, 324, 325, 326, 327, 328, 329, 330, 331, 332, 333, 334, 335, 336, 337, 338, 339, 340, 341, 342, 343, 344, 345, 346, 347, 348, 349, 350, 351, 352, 353, 354, 355, 356, 357, 358, 359, 360, 361, 362, 363, 364, 365, 366, 367, 368, 369, 370, 371, 372, 373, 374, 375, 376, 377, 378, 379, 380, 381, 382, 383, 384, 385, 386, 387, 388, 389, 390, 391, 392, 393, 394, 395, 396, 397, 398, 399, 400, 401, 402, 403, 404, 405, 406, 407, 408, 409, 410, 411, 412, 413, 414, 415, 416, 417, 418, 419, 420, 421, 422, 423, 424, 425, 426, 427, 428, 429, 430, 431, 432, 433, 434, 435, 436, 437, 438, 439, 440, 441, 442, 443, 444, 445, 446, 447, 448, 449, 450, 451, 452, 453, 454, 455, 456, 457, 458, 459, 460, 461, 462, 463, 464, 465, 466, 467, 468, 469, 470, 471, 472, 473, 474, 475, 476, 477, 478, 479, 480, 481, 482, 483, 484, 485, 486, 487, 488, 489, 490, 491, 492, 493, 494, 495, 496, 497, 498, 499, 500, 501, 502, 503, 504, 505, 506, 507, 508, 509, 510, 511, 512, 513, 514, 515, 516, 517, 518, 519, 520, 521, 522, 523, 524, 525, 526, 527, 528, 529, 530, 531, 532, 533, 534, 535, 536, 537, 538, 539, 540, 541, 542, 543, 544, 545, 546, 547, 548, 549, 550, 551, 552, 553, 554, 555, 556, 557, 558, 559, 560, 561, 562, 563, 564, 565, 566, 567, 568, 569, 570, 571, 572, 573, 574, 575, 576, 577, 578, 579, 580, 581],
      "AcquisitionTime": ["150658.750000", "150659.540000", "150700.327500", "150701.115000", "150701.902500", "150702.692500", "150703.480000", "150704.267500", "150705.055000", "150705.845000", "150706.632500", "150707.420000", "150708.207500", "150708.997500", "150709.785000", "150710.572500", "150711.362500", "150712.150000", "150712.937500", "150713.725000", "150714.515000", "150715.302500", "150716.090000", "150716.877500", "150717.667500", "150718.455000", "150719.242500", "150720.030000", "150720.820000", "150721.607500", "150722.395000", "150723.182500", "150723.972500", "150724.760000", "150725.547500", "150726.335000", "150727.125000", "150727.912500", "150728.700000", "150729.490000", "150730.277500", "150731.065000", "150731.852500", "150732.642500", "150733.430000", "150734.217500", "150735.005000", "150735.795000", "150736.582500", "150737.370000", "150738.157500", "150738.947500", "150739.735000", "150740.522500", "150741.310000", "150742.100000", "150742.887500", "150743.675000", "150744.462500", "150745.252500", "150746.040000", "150746.827500", "150747.617500", "150748.405000", "150749.192500", "150749.980000", "150750.770000", "150751.557500", "150752.345000", "150753.132500", "150753.922500", "150754.710000", "150755.497500", "150756.285000", "150757.075000", "150757.862500", "150758.650000", "150759.437500", "150800.227500", "150801.015000", "150801.802500", "150802.590000", "150803.380000", "150804.167500", "150804.955000", "150805.745000", "150806.532500", "150807.320000", "150808.107500", "150808.897500", "150809.685000", "150810.472500", "150811.260000", "150812.050000", "150812.837500", "150813.625000", "150814.412500", "150815.202500", "150815.990000", "150816.777500", "150817.565000", "150818.355000", "150819.142500", "150819.930000", "150820.717500", "150821.507500", "150822.295000", "150823.082500", "150823.872500", "150824.660000", "150825.447500", "150826.235000", "150827.025000", "150827.812500", "150828.600000", "150829.387500", "150830.177500", "150830.965000", "150831.752500", "150832.540000", "150833.330000", "150834.117500", "150834.905000", "150835.692500", "150836.482500", "150837.270000", "150838.057500", "150838.845000", "150839.635000", "150840.422500", "150841.210000", "150842.000000", "150842.787500", "150843.575000", "150844.362500", "150845.152500", "150845.940000", "150846.727500", "150847.515000", "150848.305000", "150849.092500", "150849.880000", "150850.667500", "150851.457500", "150852.245000", "150853.032500", "150853.820000", "150854.610000", "150855.397500", "150856.185000", "150856.972500", "150857.762500", "150858.550000", "150859.337500", "150900.127500", "150900.915000", "150901.702500", "150902.490000", "150903.280000", "150904.067500", "150904.855000", "150905.642500", "150906.432500", "150907.220000", "150908.007500", "150908.795000", "150909.585000", "150910.372500", "150911.160000", "150911.947500", "150912.737500", "150913.525000", "150914.312500", "150915.100000", "150915.890000", "150916.677500", "150917.465000", "150918.255000", "150919.042500", "150919.830000", "150920.617500", "150921.407500", "150922.195000", "150922.982500", "150923.770000", "150924.560000", "150925.347500", "150926.135000", "150926.922500", "150927.712500", "150928.500000", "150929.287500", "150930.075000", "150930.865000", "150931.652500", "150932.440000", "150933.227500", "150934.017500", "150934.805000", "150935.592500", "150936.382500", "150937.170000", "150937.957500", "150938.745000", "150939.535000", "150940.322500", "150941.110000", "150941.897500", "150942.687500", "150943.475000", "150944.262500", "150945.050000", "150945.840000", "150946.627500", "150947.415000", "150948.202500", "150948.992500", "150949.780000", "150950.567500", "150951.355000", "150952.145000", "150952.932500", "150953.720000", "150954.510000", "150955.297500", "150956.085000", "150956.872500", "150957.662500", "150958.450000", "150959.237500", "151000.025000", "151000.815000", "151001.602500", "151002.390000", "151003.177500", "151003.967500", "151004.755000", "151005.542500", "151006.330000", "151007.120000", "151007.907500", "151008.695000", "151009.482500", "151010.272500", "151011.060000", "151011.847500", "151012.637500", "151013.425000", "151014.212500", "151015.000000", "151015.790000", "151016.577500", "151017.365000", "151018.152500", "151018.942500", "151019.730000", "151020.517500", "151021.305000", "151022.095000", "151022.882500", "151023.670000", "151024.457500", "151025.247500", "151026.035000", "151026.822500", "151027.612500", "151028.400000", "151029.187500", "151029.975000", "151030.765000", "151031.552500", "151032.340000", "151033.127500", "151033.917500", "151034.705000", "151035.492500", "151036.280000", "151037.070000", "151037.857500", "151038.645000", "151039.432500", "151040.222500", "151041.010000", "151041.797500", "151042.585000", "151043.375000", "151044.162500", "151044.950000", "151045.740000", "151046.527500", "151047.315000", "151048.102500", "151048.892500", "151049.680000", "151050.467500", "151051.255000", "151052.045000", "151052.832500", "151053.620000", "151054.407500", "151055.197500", "151055.985000", "151056.772500", "151057.560000", "151058.350000", "151059.137500", "151059.925000", "151100.712500", "151101.502500", "151102.290000", "151103.077500", "151103.867500", "151104.655000", "151105.442500", "151106.230000", "151107.020000", "151107.807500", "151108.595000", "151109.382500", "151110.172500", "151110.960000", "151111.747500", "151112.535000", "151113.325000", "151114.112500", "151114.900000", "151115.687500", "151116.477500", "151117.265000", "151118.052500", "151118.840000", "151119.630000", "151120.417500", "151121.205000", "151121.995000", "151122.782500", "151123.570000", "151124.357500", "151125.147500", "151125.935000", "151126.722500", "151127.510000", "151128.300000", "151129.087500", "151129.875000", "151130.662500", "151131.452500", "151132.240000", "151133.027500", "151133.815000", "151134.605000", "151135.392500", "151136.180000", "151136.967500", "151137.757500", "151138.545000", "151139.332500", "151140.122500", "151140.910000", "151141.697500", "151142.485000", "151143.275000", "151144.062500", "151144.850000", "151145.637500", "151146.427500", "151147.215000", "151148.002500", "151148.790000", "151149.580000", "151150.367500", "151151.155000", "151151.942500", "151152.732500", "151153.520000", "151154.307500", "151155.095000", "151155.885000", "151156.672500", "151157.460000", "151158.250000", "151159.037500", "151159.825000", "151200.612500", "151201.402500", "151202.190000", "151202.977500", "151203.765000", "151204.555000", "151205.342500", "151206.130000", "151206.917500", "151207.707500", "151208.495000", "151209.282500", "151210.070000", "151210.860000", "151211.647500", "151212.435000", "151213.222500", "151214.012500", "151214.800000", "151215.587500", "151216.377500", "151217.165000", "151217.952500", "151218.740000", "151219.530000", "151220.317500", "151221.105000", "151221.892500", "151222.682500", "151223.470000", "151224.257500", "151225.045000", "151225.835000", "151226.622500", "151227.410000", "151228.197500", "151228.987500", "151229.775000", "151230.562500", "151231.350000", "151232.140000", "151232.927500", "151233.715000", "151234.505000", "151235.292500", "151236.080000", "151236.867500", "151237.657500", "151238.445000", "151239.232500", "151240.020000", "151240.810000", "151241.597500", "151242.385000", "151243.172500", "151243.962500", "151244.750000", "151245.537500", "151246.325000", "151247.115000", "151247.902500", "151248.690000", "151249.477500", "151250.267500", "151251.055000", "151251.842500", "151252.632500", "151253.420000", "151254.207500", "151254.995000", "151255.785000", "151256.572500", "151257.360000", "151258.147500", "151258.937500", "151259.725000", "151300.512500", "151301.300000", "151302.090000", "151302.877500", "151303.665000", "151304.452500", "151305.242500", "151306.030000", "151306.817500", "151307.605000", "151308.395000", "151309.182500", "151309.970000", "151310.760000", "151311.547500", "151312.335000", "151313.122500", "151313.912500", "151314.700000", "151315.487500", "151316.275000", "151317.065000", "151317.852500", "151318.640000", "151319.427500", "151320.217500", "151321.005000", "151321.792500", "151322.580000", "151323.370000", "151324.157500", "151324.945000", "151325.732500", "151326.522500", "151327.310000", "151328.097500", "151328.887500", "151329.675000", "151330.462500", "151331.250000", "151332.040000", "151332.827500", "151333.615000", "151334.402500", "151335.192500", "151335.980000", "151336.767500", "151337.555000", "151338.345000", "151339.132500", "151339.920000", "151340.707500", "151341.497500", "151342.285000", "151343.072500", "151343.862500", "151344.650000", "151345.437500", "151346.225000", "151347.015000", "151347.802500", "151348.590000", "151349.377500", "151350.167500", "151350.955000", "151351.742500", "151352.530000", "151353.320000", "151354.107500", "151354.895000", "151355.682500", "151356.472500", "151357.260000", "151358.047500", "151358.835000", "151359.625000", "151400.412500", "151401.200000", "151401.990000", "151402.777500", "151403.565000", "151404.352500", "151405.142500", "151405.930000", "151406.717500", "151407.505000", "151408.295000", "151409.082500", "151409.870000", "151410.657500", "151411.447500", "151412.235000", "151413.022500", "151413.810000", "151414.600000", "151415.387500", "151416.175000", "151416.962500", "151417.752500", "151418.540000", "151419.327500", "151420.117500", "151420.905000", "151421.692500", "151422.480000", "151423.270000", "151424.057500", "151424.845000", "151425.632500", "151426.422500", "151427.210000", "151427.997500", "151428.785000", "151429.575000", "151430.362500", "151431.150000", "151431.937500", "151432.727500", "151433.515000", "151434.302500", "151435.090000", "151435.880000"],
      "ContentTime": ["155129.218000", "155129.218000", "155129.218000", "155229.187000", "155229.187000", "155229.203000", "155229.203000", "155229.203000", "155229.203000", "155229.203000", "155229.203000", "155229.203000", "155229.218000", "155229.218000", "155229.218000", "155229.218000", "155229.218000", "155229.218000", "155229.218000", "155229.234000", "155229.234000", "155229.234000", "155229.234000", "155229.234000", "155229.234000", "155229.234000", "155229.250000", "155229.250000", "155229.250000", "155229.250000", "155329.187000", "155329.187000", "155329.203000", "155329.203000", "155329.203000", "155329.203000", "155329.203000", "155329.203000", "155329.203000", "155329.218000", "155329.218000", "155329.218000", "155329.218000", "155329.218000", "155329.218000", "155329.234000", "155329.234000", "155329.234000", "155329.234000", "155329.234000", "155329.234000", "155329.250000", "155329.250000", "155329.250000", "155329.250000", "155329.250000", "155329.250000", "155429.187000", "155429.187000", "155429.203000", "155429.203000", "155429.203000", "155429.203000", "155429.203000", "155429.203000", "155429.203000", "155429.218000", "155429.218000", "155429.218000", "155429.218000", "155429.218000", "155429.218000", "155429.218000", "155429.234000", "155429.234000", "155429.234000", "155429.234000", "155429.234000", "155429.234000", "155429.234000", "155429.250000", "155429.250000", "155429.250000", "155429.250000", "155429.250000", "155529.187000", "155529.187000", "155529.203000", "155529.203000", "155529.203000", "155529.203000", "155529.203000", "155529.203000", "155529.203000", "155529.218000", "155529.218000", "155529.218000", "155529.218000", "155529.218000", "155529.234000", "155529.234000", "155529.234000", "155529.234000", "155529.234000", "155529.234000", "155529.250000", "155529.250000", "155529.250000", "155529.250000", "155529.250000", "155529.250000", "155529.265000", "155629.187000", "155629.187000", "155629.203000", "155629.203000", "155629.203000", "155629.203000", "155629.203000", "155629.203000", "155629.203000", "155629.218000", "155629.218000", "155629.218000", "155629.218000", "155629.218000", "155629.218000", "155629.218000", "155629.234000", "155629.234000", "155629.234000", "155629.234000", "155629.234000", "155629.234000", "155629.234000", "155629.250000", "155629.250000", "155629.250000", "155629.250000", "155629.250000", "155709.187000", "155709.187000", "155709.203000", "155709.203000", "155709.203000", "155709.203000", "155709.203000", "155709.203000", "155709.218000", "155709.218000", "155709.218000", "155709.218000", "155709.218000", "155709.218000", "155709.234000", "155709.234000", "155709.234000", "155709.234000", "155809.203000", "155809.203000", "155809.203000", "155809.218000", "155809.218000", "155809.218000", "155809.218000", "155809.218000", "155809.218000", "155809.218000", "155809.234000", "155809.234000", "155809.234000", "155809.234000", "155809.234000", "155809.234000", "155809.234000", "155809.250000", "155809.250000", "155809.250000", "155809.250000", "155809.250000", "155809.265000", "155809.265000", "155809.265000", "155809.265000", "155809.265000", "155809.265000", "155909.187000", "155909.187000", "155909.203000", "155909.203000", "155909.203000", "155909.203000", "155909.203000", "155909.203000", "155909.203000", "155909.218000", "155909.218000", "155909.218000", "155909.218000", "155909.218000", "155909.218000", "155909.218000", "155909.234000", "155909.234000", "155909.234000", "155909.234000", "155909.234000", "155909.234000", "155909.234000", "155909.250000", "155909.250000", "155909.250000", "155909.250000", "160009.187000", "160009.187000", "160009.203000", "160009.203000", "160009.203000", "160009.203000", "160009.203000", "160009.203000", "160009.203000", "160009.218000", "160009.218000", "160009.218000", "160009.218000", "160009.218000", "160009.218000", "160009.218000", "160009.234000", "160009.234000", "160009.234000", "160009.234000", "160009.234000", "160009.250000", "160009.250000", "160009.250000", "160009.250000", "160009.250000", "160009.250000", "160009.265000", "160109.187000", "160109.187000", "160109.203000", "160109.203000", "160109.203000", "160109.203000", "160109.203000", "160109.203000", "160109.203000", "160109.218000", "160109.218000", "160109.218000", "160109.218000", "160109.218000", "160109.218000", "160109.218000", "160109.234000", "160109.234000", "160109.234000", "160109.234000", "160109.234000", "160109.234000", "160109.234000", "160109.250000", "160109.250000", "160109.250000", "160109.250000", "160209.187000", "160209.187000", "160209.203000", "160209.203000", "160209.203000", "160209.203000", "160209.203000", "160209.203000", "160209.203000", "160209.218000", "160209.218000", "160209.218000", "160209.234000", "160209.234000", "160209.234000", "160209.234000", "160209.234000", "160209.234000", "160209.250000", "160209.250000", "160209.250000", "160209.250000", "160209.250000", "160209.250000", "160209.265000", "160209.265000", "160209.265000", "160209.265000", "160309.187000", "160309.187000", "160309.203000", "160309.203000", "160309.203000", "160309.203000", "160309.203000", "160309.203000", "160309.203000", "160309.218000", "160309.218000", "160309.218000", "160309.218000", "160309.218000", "160309.218000", "160309.218000", "160309.234000", "160309.234000", "160309.234000", "160309.234000", "160309.234000", "160309.234000", "160309.234000", "160309.250000", "160309.250000", "160309.250000", "160309.250000", "160409.187000", "160409.187000", "160409.203000", "160409.203000", "160409.203000", "160409.203000", "160409.203000", "160409.203000", "160409.203000", "160409.218000", "160409.218000", "160409.218000", "160409.218000", "160409.218000", "160409.218000", "160409.218000", "160409.234000", "160409.234000", "160409.234000", "160409.234000", "160409.234000", "160409.234000", "160409.250000", "160409.250000", "160409.250000", "160409.250000", "160409.250000", "160409.250000", "160509.203000", "160509.203000", "160509.203000", "160509.203000", "160509.203000", "160509.218000", "160509.218000", "160509.218000", "160509.218000", "160509.234000", "160509.234000", "160509.234000", "160509.234000", "160509.234000", "160509.234000", "160509.234000", "160509.250000", "160509.250000", "160509.250000", "160509.250000", "160509.250000", "160509.250000", "160509.250000", "160509.265000", "160509.265000", "160509.265000", "160509.265000", "160609.203000", "160609.203000", "160609.203000", "160609.203000", "160609.203000", "160609.203000", "160609.203000", "160609.218000", "160609.218000", "160609.218000", "160609.218000", "160609.218000", "160609.218000", "160609.234000", "160609.234000", "160609.234000", "160609.234000", "160609.234000", "160609.234000", "160609.234000", "160609.234000", "160609.250000", "160609.250000", "160609.250000", "160609.250000", "160609.250000", "160609.250000", "160609.250000", "160649.203000", "160649.203000", "160649.203000", "160649.203000", "160649.203000", "160649.203000", "160649.203000", "160649.218000", "160649.218000", "160649.218000", "160649.218000", "160649.218000", "160649.218000", "160649.218000", "160649.234000", "160649.234000", "160649.234000", "160649.234000", "160649.234000", "160749.203000", "160749.203000", "160749.203000", "160749.203000", "160749.203000", "160749.203000", "160749.203000", "160749.218000", "160749.218000", "160749.218000", "160749.218000", "160749.218000", "160749.218000", "160749.218000", "160749.234000", "160749.234000", "160749.234000", "160749.234000", "160749.234000", "160749.234000", "160749.234000", "160749.250000", "160749.250000", "160749.250000", "160749.250000", "160749.250000", "160749.250000", "160749.250000", "160849.203000", "160849.203000", "160849.203000", "160849.203000", "160849.203000", "160849.203000", "160849.218000", "160849.218000", "160849.218000", "160849.218000", "160849.218000", "160849.218000", "160849.218000", "160849.234000", "160849.234000", "160849.234000", "160849.234000", "160849.234000", "160849.234000", "160849.234000", "160849.250000", "160849.250000", "160849.250000", "160849.250000", "160849.250000", "160849.265000", "160849.265000", "160949.203000", "160949.203000", "160949.203000", "160949.203000", "160949.203000", "160949.203000", "160949.203000", "160949.218000", "160949.218000", "160949.218000", "160949.218000", "160949.218000", "160949.218000", "160949.218000", "160949.234000", "160949.234000", "160949.234000", "160949.234000", "160949.234000", "160949.234000", "160949.234000", "160949.250000", "160949.250000", "160949.250000", "160949.250000", "160949.250000", "160949.250000", "160949.250000", "161049.203000", "161049.203000", "161049.203000", "161049.203000", "161049.203000", "161049.203000", "161049.218000", "161049.218000", "161049.218000", "161049.218000", "161049.218000", "161049.218000", "161049.218000", "161049.234000", "161049.234000", "161049.234000", "161049.234000", "161049.234000", "161049.234000", "161049.234000", "161049.250000", "161049.250000", "161049.250000", "161049.250000", "161049.250000", "161049.250000", "161049.250000", "161049.265000", "161149.203000", "161149.203000", "161149.203000", "161149.203000", "161149.203000", "161149.203000", "161149.218000", "161149.218000", "161149.218000", "161149.218000", "161149.218000", "161149.218000", "161149.218000", "161149.234000", "161149.234000", "161149.234000", "161149.234000", "161149.234000", "161149.234000", "161149.234000", "161149.250000", "161149.250000", "161149.250000", "161149.250000", "161149.250000", "161149.250000", "161149.250000", "161149.265000", "161224.781000", "161224.781000", "161224.781000", "161224.781000", "161224.781000", "161224.781000", "161224.796000", "161224.796000", "161224.796000", "161224.796000", "161224.796000", "161224.796000", "161224.812000", "161224.812000", "161224.812000", "161224.812000", "161224.812000"],
