{
  "AcquisitionMatrixPE": 104,
  "AcquisitionNumber": 1,
  "AcquisitionTime": "14:41:17.302500",
  "BandwidthPerPixelPhaseEncode": 13.935,
  "BaseResolution": 104,
  "CoilString": "C:HEA;HEP",
  "ConversionSoftware": "dcm2niix",
  "ConversionSoftwareVersion": "v1.0.20210317",
  "DerivedVendorReportedEchoSpacing": 0.000690017,
  "DeviceSerialNumber": "35450",
  "DwellTime": 2.5e-06,
  "EchoTime": 0.0348,
  "EffectiveEchoSpacing": 0.000690017,
  "FlipAngle": 55,
  "ImageComments": "Unaliased MB8/PE3 (remote)",
  "ImageOrientationPatientDICOM": [1, 0, 0, 0, 0.971134, -0.238533],
  "ImageType": [
    "ORIGINAL",
    "PRIMARY",
    "M",
    "MB",
    "ND",
    "MOSAIC"
],
  "ImagingFrequency": 123.235,
  "InPlanePhaseEncodingDirectionDICOM": "COL",
  "InstitutionAddress": "Univeristy Ave. 197,Newark,North East,US,07102-1814",
  "InstitutionName": "RUBIC",
  "InstitutionalDepartmentName": "Department",
  "MRAcquisitionType": "2D",
  "MagneticFieldStrength": 3,
  "Manufacturer": "Siemens",
  "ManufacturersModelName": "TrioTim",
  "Modality": "MR",
  "MultibandAccelerationFactor": 8,
  "PartialFourier": 0.875,
  "PatientPosition": "HFS",
  "PercentPhaseFOV": 100,
  "PercentSampling": 100,
  "PhaseEncodingDirection": "j-",
  "PhaseEncodingSteps": 91,
  "PhaseResolution": 1,
  "PixelBandwidth": 1923,
  "ProcedureStepDescription": "Cole^Michael",
  "ProtocolName": "cmrr_mbep2d_bold_2mm_MB8_Task_8x",
  "PulseSequenceDetails": "%CustomerSeq%\\cmrr_mbep2d_bold",
  "ReceiveCoilName": "32Ch_Head",
  "ReconMatrixPE": 104,
  "RepetitionTime": 0.785,
  "SAR": 0.117294,
  "ScanOptions": "PFP\\FS",
  "ScanningSequence": "EP",
  "SequenceName": "epfid2d1_104",
  "SequenceVariant": "SK\\SS",
  "SeriesDescription": "cmrr_mbep2d_bold_2mm_MB8_Task_8x",
  "SeriesNumber": 13,
  "ShimSetting": [2114, -345, -7470, 385, -7, -101, -89, -45],
  "SliceThickness": 2,
  "SliceTiming": [0, 0.4375, 0.0875, 0.525, 0.175, 0.6125, 0.2625, 0.7, 0.35, 0, 0.4375, 0.0875, 0.525, 0.175, 0.6125, 0.2625, 0.7, 0.35, 0, 0.4375, 0.0875, 0.525, 0.175, 0.6125, 0.2625, 0.7, 0.35, 0, 0.4375, 0.0875, 0.525, 0.175, 0.6125, 0.2625, 0.7, 0.35, 0, 0.4375, 0.0875, 0.525, 0.175, 0.6125, 0.2625, 0.7, 0.35, 0, 0.4375, 0.0875, 0.525, 0.175, 0.6125, 0.2625, 0.7, 0.35, 0, 0.4375, 0.0875, 0.525, 0.175, 0.6125, 0.2625, 0.7, 0.35, 0, 0.4375, 0.0875, 0.525, 0.175, 0.6125, 0.2625, 0.7, 0.35],
  "SoftwareVersions": "syngo MR B19",
  "SpacingBetweenSlices": 2,
  "StationName": "MRC35450",
  "TaskName": "cpro",
  "TotalReadoutTime": 0.0710717,
  "TxRefAmp": 321.221,
  "dcmmeta_affine": [
    [-2.0, 0.0, 0.0, 106.03389739990234],
    [0.0, 1.9422686100006104, -0.47706693410873413, -71.96723937988281],
    [0.0, 0.47706693410873413, 1.9422684907913208, -114.36250305175781],
    [0.0, 0.0, 0.0, 1.0]
],
  "dcmmeta_reorient_transform": [
    [0.0, -1.0, 0.0, 103.0],
    [1.0, 0.0, 0.0, 0.0],
    [0.0, 0.0, 1.0, 0.0],
    [0.0, 0.0, 0.0, 1.0]
],
  "dcmmeta_shape": [104, 104, 72, 581],
  "dcmmeta_slice_dim": 2,
  "dcmmeta_version": 0.6,
  "global": {
    "const": {
      "AcquisitionMatrix": [104, 0, 0, 104],
      "AngioFlag": "N",
      "BitsAllocated": 16,
      "BitsStored": 12,
      "Columns": 936,
      "EchoNumbers": 1,
      "EchoTime": 34.8,
      "EchoTrainLength": 1,
      "FlipAngle": 55.0,
      "HighBit": 11,
      "ImageOrientationPatient": [1.0, 0.0, 0.0, 0.0, 0.97113427618897, -0.2385334727264],
      "ImagePositionPatient": [-938.03389835358, -936.07014152777, 133.23524123852],
      "ImageType": [
        "ORIGINAL",
        "PRIMARY",
        "M",
        "MB",
        "ND",
        "MOSAIC"
],
      "ImagedNucleus": "1H",
      "ImagingFrequency": 123.234589,
      "InPlanePhaseEncodingDirection": "COL",
      "MRAcquisitionType": "2D",
      "MagneticFieldStrength": 3.0,
      "Manufacturer": "SIEMENS",
      "ManufacturerModelName": "TrioTim",
      "Modality": "MR",
      "NumberOfAverages": 1.0,
      "NumberOfPhaseEncodingSteps": 91,
      "PercentPhaseFieldOfView": 100.0,
      "PercentSampling": 100.0,
      "PerformedProcedureStepStartTime": "133156.031000",
      "PhotometricInterpretation": "MONOCHROME2",
      "PixelBandwidth": 1923.0,
      "PixelRepresentation": 0,
      "PixelSpacing": [2.0, 2.0],
      "ProtocolName": "cmrr_mbep2d_bold_2mm_MB8_Task_8x",
      "RepetitionTime": 785.0,
      "Rows": 936,
      "SAR": 0.11729383653519,
      "SamplesPerPixel": 1,
      "ScanOptions": [
        "PFP",
        "FS"
],
      "ScanningSequence": "EP",
      "SequenceName": "epfid2d1_104",
      "SequenceVariant": [
        "SK",
        "SS"
],
      "SeriesDescription": "cmrr_mbep2d_bold_2mm_MB8_Task_8x",
      "SeriesNumber": 13,
      "SeriesTime": "144135.218000",
      "SliceLocation": -93.894752011087,
      "SliceThickness": 2.0,
      "SmallestImagePixelValue": 0,
      "SoftwareVersions": "syngo MR B19",
      "SpacingBetweenSlices": 1.9999999764464,
      "SpecificCharacterSet": "ISO_IR 100",
      "StudyID": "1",
      "StudyTime": "133155.984000",
      "TransmitCoilName": "Body",
      "VariableFlipAngleFlag": "N",
      "WindowCenterWidthExplanation": "Algo1",
      "dBdt": 0.0},
    "slices": {}
  },
  "time": {
    "samples": {
      "AcquisitionNumber": [1, 2, 3, 4, 5, 6, 7, 8, 9, 10, 11, 12, 13, 14, 15, 16, 17, 18, 19, 20, 21, 22, 23, 24, 25, 26, 27, 28, 29, 30, 31, 32, 33, 34, 35, 36, 37, 38, 39, 40, 41, 42, 43, 44, 45, 46, 47, 48, 49, 50, 51, 52, 53, 54, 55, 56, 57, 58, 59, 60, 61, 62, 63, 64, 65, 66, 67, 68, 69, 70, 71, 72, 73, 74, 75, 76, 77, 78, 79, 80, 81, 82, 83, 84, 85, 86, 87, 88, 89, 90, 91, 92, 93, 94, 95, 96, 97, 98, 99, 100, 101, 102, 103, 104, 105, 106, 107, 108, 109, 110, 111, 112, 113, 114, 115, 116, 117, 118, 119, 120, 121, 122, 123, 124, 125, 126, 127, 128, 129, 130, 131, 132, 133, 134, 135, 136, 137, 138, 139, 140, 141, 142, 143, 144, 145, 146, 147, 148, 149, 150, 151, 152, 153, 154, 155, 156, 157, 158, 159, 160, 161, 162, 163, 164, 165, 166, 167, 168, 169, 170, 171, 172, 173, 174, 175, 176, 177, 178, 179, 180, 181, 182, 183, 184, 185, 186, 187, 188, 189, 190, 191, 192, 193, 194, 195, 196, 197, 198, 199, 200, 201, 202, 203, 204, 205, 206, 207, 208, 209, 210, 211, 212, 213, 214, 215, 216, 217, 218, 219, 220, 221, 222, 223, 224, 225, 226, 227, 228, 229, 230, 231, 232, 233, 234, 235, 236, 237, 238, 239, 240, 241, 242, 243, 244, 245, 246, 247, 248, 249, 250, 251, 252, 253, 254, 255, 256, 257, 258, 259, 260, 261, 262, 263, 264, 265, 266, 267, 268, 269, 270, 271, 272, 273, 274, 275, 276, 277, 278, 279, 280, 281, 282, 283, 284, 285, 286, 287, 288, 289, 290, 291, 292, 293, 294, 295, 296, 297, 298, 299, 300, 301, 302, 303, 304, 305, 306, 307, 308, 309, 310, 311, 312, 313, 314, 315, 316, 317, 318, 319, 320, 321, 322, 323, 324, 325, 326, 327, 328, 329, 330, 331, 332, 333, 334, 335, 336, 337, 338, 339, 340, 341, 342, 343, 344, 345, 346, 347, 348, 349, 350, 351, 352, 353, 354, 355, 356, 357, 358, 359, 360, 361, 362, 363, 364, 365, 366, 367, 368, 369, 370, 371, 372, 373, 374, 375, 376, 377, 378, 379, 380, 381, 382, 383, 384, 385, 386, 387, 388, 389, 390, 391, 392, 393, 394, 395, 396, 397, 398, 399, 400, 401, 402, 403, 404, 405, 406, 407, 408, 409, 410, 411, 412, 413, 414, 415, 416, 417, 418, 419, 420, 421, 422, 423, 424, 425, 426, 427, 428, 429, 430, 431, 432, 433, 434, 435, 436, 437, 438, 439, 440, 441, 442, 443, 444, 445, 446, 447, 448, 449, 450, 451, 452, 453, 454, 455, 456, 457, 458, 459, 460, 461, 462, 463, 464, 465, 466, 467, 468, 469, 470, 471, 472, 473, 474, 475, 476, 477, 478, 479, 480, 481, 482, 483, 484, 485, 486, 487, 488, 489, 490, 491, 492, 493, 494, 495, 496, 497, 498, 499, 500, 501, 502, 503, 504, 505, 506, 507, 508, 509, 510, 511, 512, 513, 514, 515, 516, 517, 518, 519, 520, 521, 522, 523, 524, 525, 526, 527, 528, 529, 530, 531, 532, 533, 534, 535, 536, 537, 538, 539, 540, 541, 542, 543, 544, 545, 546, 547, 548, 549, 550, 551, 552, 553, 554, 555, 556, 557, 558, 559, 560, 561, 562, 563, 564, 565, 566, 567, 568, 569, 570, 571, 572, 573, 574, 575, 576, 577, 578, 579, 580, 581],
      "AcquisitionTime": ["144117.302500", "144118.090000", "144118.880000", "144119.667500", "144120.455000", "144121.242500", "144122.032500", "144122.820000", "144123.607500", "144124.395000", "144125.185000", "144125.972500", "144126.760000", "144127.547500", "144128.337500", "144129.125000", "144129.912500", "144130.702500", "144131.490000", "144132.277500", "144133.065000", "144133.855000", "144134.642500", "144135.430000", "144136.217500", "144137.007500", "144137.795000", "144138.582500", "144139.370000", "144140.160000", "144140.947500", "144141.735000", "144142.522500", "144143.312500", "144144.100000", "144144.887500", "144145.675000", "144146.465000", "144147.252500", "144148.040000", "144148.830000", "144149.617500", "144150.405000", "144151.192500", "144151.982500", "144152.770000", "144153.557500", "144154.345000", "144155.135000", "144155.922500", "144156.710000", "144157.497500", "144158.287500", "144159.075000", "144159.862500", "144200.650000", "144201.440000", "144202.227500", "144203.015000", "144203.802500", "144204.592500", "144205.380000", "144206.167500", "144206.957500", "144207.745000", "144208.532500", "144209.320000", "144210.110000", "144210.897500", "144211.685000", "144212.472500", "144213.262500", "144214.050000", "144214.837500", "144215.625000", "144216.415000", "144217.202500", "144217.990000", "144218.777500", "144219.567500", "144220.355000", "144221.142500", "144221.930000", "144222.720000", "144223.507500", "144224.295000", "144225.085000", "144225.872500", "144226.660000", "144227.447500", "144228.237500", "144229.025000", "144229.812500", "144230.600000", "144231.390000", "144232.177500", "144232.965000", "144233.752500", "144234.542500", "144235.330000", "144236.117500", "144236.905000", "144237.695000", "144238.482500", "144239.270000", "144240.057500", "144240.847500", "144241.635000", "144242.422500", "144243.212500", "144244.000000", "144244.787500", "144245.575000", "144246.365000", "144247.152500", "144247.940000", "144248.727500", "144249.517500", "144250.305000", "144251.092500", "144251.880000", "144252.670000", "144253.457500", "144254.245000", "144255.032500", "144255.822500", "144256.610000", "144257.397500", "144258.185000", "144258.975000", "144259.762500", "144300.550000", "144301.340000", "144302.127500", "144302.915000", "144303.702500", "144304.492500", "144305.280000", "144306.067500", "144306.855000", "144307.645000", "144308.432500", "144309.220000", "144310.007500", "144310.797500", "144311.585000", "144312.372500", "144313.160000", "144313.950000", "144314.737500", "144315.525000", "144316.312500", "144317.102500", "144317.890000", "144318.677500", "144319.467500", "144320.255000", "144321.042500", "144321.830000", "144322.620000", "144323.407500", "144324.195000", "144324.982500", "144325.772500", "144326.560000", "144327.347500", "144328.135000", "144328.925000", "144329.712500", "144330.500000", "144331.287500", "144332.077500", "144332.865000", "144333.652500", "144334.440000", "144335.230000", "144336.017500", "144336.805000", "144337.595000", "144338.382500", "144339.170000", "144339.957500", "144340.747500", "144341.535000", "144342.322500", "144343.110000", "144343.900000", "144344.687500", "144345.475000", "144346.262500", "144347.052500", "144347.840000", "144348.627500", "144349.415000", "144350.205000", "144350.992500", "144351.780000", "144352.567500", "144353.357500", "144354.145000", "144354.932500", "144355.722500", "144356.510000", "144357.297500", "144358.085000", "144358.875000", "144359.662500", "144400.450000", "144401.237500", "144402.027500", "144402.815000", "144403.602500", "144404.390000", "144405.180000", "144405.967500", "144406.755000", "144407.542500", "144408.332500", "144409.120000", "144409.907500", "144410.697500", "144411.485000", "144412.272500", "144413.060000", "144413.850000", "144414.637500", "144415.425000", "144416.212500", "144417.002500", "144417.790000", "144418.577500", "144419.365000", "144420.155000", "144420.942500", "144421.730000", "144422.517500", "144423.307500", "144424.095000", "144424.882500", "144425.670000", "144426.460000", "144427.247500", "144428.035000", "144428.825000", "144429.612500", "144430.400000", "144431.187500", "144431.977500", "144432.765000", "144433.552500", "144434.340000", "144435.130000", "144435.917500", "144436.705000", "144437.492500", "144438.282500", "144439.070000", "144439.857500", "144440.645000", "144441.435000", "144442.222500", "144443.010000", "144443.797500", "144444.587500", "144445.375000", "144446.162500", "144446.952500", "144447.740000", "144448.527500", "144449.315000", "144450.105000", "144450.892500", "144451.680000", "144452.467500", "144453.257500", "144454.045000", "144454.832500", "144455.620000", "144456.410000", "144457.197500", "144457.985000", "144458.772500", "144459.562500", "144500.350000", "144501.137500", "144501.925000", "144502.715000", "144503.502500", "144504.290000", "144505.080000", "144505.867500", "144506.655000", "144507.442500", "144508.232500", "144509.020000", "144509.807500", "144510.595000", "144511.385000", "144512.172500", "144512.960000", "144513.747500", "144514.537500", "144515.325000", "144516.112500", "144516.900000", "144517.690000", "144518.477500", "144519.265000", "144520.052500", "144520.842500", "144521.630000", "144522.417500", "144523.207500", "144523.995000", "144524.782500", "144525.570000", "144526.360000", "144527.147500", "144527.935000", "144528.722500", "144529.512500", "144530.300000", "144531.087500", "144531.875000", "144532.665000", "144533.452500", "144534.240000", "144535.027500", "144535.817500", "144536.605000", "144537.392500", "144538.180000", "144538.970000", "144539.757500", "144540.545000", "144541.335000", "144542.122500", "144542.910000", "144543.697500", "144544.487500", "144545.275000", "144546.062500", "144546.850000", "144547.640000", "144548.427500", "144549.215000", "144550.002500", "144550.792500", "144551.580000", "144552.367500", "144553.155000", "144553.945000", "144554.732500", "144555.520000", "144556.307500", "144557.097500", "144557.885000", "144558.672500", "144559.462500", "144600.250000", "144601.037500", "144601.825000", "144602.615000", "144603.402500", "144604.190000", "144604.977500", "144605.767500", "144606.555000", "144607.342500", "144608.130000", "144608.920000", "144609.707500", "144610.495000", "144611.282500", "144612.072500", "144612.860000", "144613.647500", "144614.435000", "144615.225000", "144616.012500", "144616.800000", "144617.590000", "144618.377500", "144619.165000", "144619.952500", "144620.742500", "144621.530000", "144622.317500", "144623.105000", "144623.895000", "144624.682500", "144625.470000", "144626.257500", "144627.047500", "144627.835000", "144628.622500", "144629.410000", "144630.200000", "144630.987500", "144631.775000", "144632.562500", "144633.352500", "144634.140000", "144634.927500", "144635.717500", "144636.505000", "144637.292500", "144638.080000", "144638.870000", "144639.657500", "144640.445000", "144641.232500", "144642.022500", "144642.810000", "144643.597500", "144644.385000", "144645.175000", "144645.962500", "144646.750000", "144647.537500", "144648.327500", "144649.115000", "144649.902500", "144650.690000", "144651.480000", "144652.267500", "144653.055000", "144653.845000", "144654.632500", "144655.420000", "144656.207500", "144656.997500", "144657.785000", "144658.572500", "144659.360000", "144700.150000", "144700.937500", "144701.725000", "144702.512500", "144703.302500", "144704.090000", "144704.877500", "144705.665000", "144706.455000", "144707.242500", "144708.030000", "144708.817500", "144709.607500", "144710.395000", "144711.182500", "144711.972500", "144712.760000", "144713.547500", "144714.335000", "144715.125000", "144715.912500", "144716.700000", "144717.487500", "144718.277500", "144719.065000", "144719.852500", "144720.640000", "144721.430000", "144722.217500", "144723.005000", "144723.792500", "144724.582500", "144725.370000", "144726.157500", "144726.947500", "144727.735000", "144728.522500", "144729.310000", "144730.100000", "144730.887500", "144731.675000", "144732.462500", "144733.252500", "144734.040000", "144734.827500", "144735.615000", "144736.405000", "144737.192500", "144737.980000", "144738.767500", "144739.557500", "144740.345000", "144741.132500", "144741.920000", "144742.710000", "144743.497500", "144744.285000", "144745.075000", "144745.862500", "144746.650000", "144747.437500", "144748.227500", "144749.015000", "144749.802500", "144750.590000", "144751.380000", "144752.167500", "144752.955000", "144753.742500", "144754.532500", "144755.320000", "144756.107500", "144756.895000", "144757.685000", "144758.472500", "144759.260000", "144800.047500", "144800.837500", "144801.625000", "144802.412500", "144803.202500", "144803.990000", "144804.777500", "144805.565000", "144806.355000", "144807.142500", "144807.930000", "144808.717500", "144809.507500", "144810.295000", "144811.082500", "144811.870000", "144812.660000", "144813.447500", "144814.235000", "144815.022500", "144815.812500", "144816.600000", "144817.387500", "144818.175000", "144818.965000", "144819.752500", "144820.540000", "144821.330000", "144822.117500", "144822.905000", "144823.692500", "144824.482500", "144825.270000", "144826.057500", "144826.845000", "144827.635000", "144828.422500", "144829.210000", "144829.997500", "144830.787500", "144831.575000", "144832.362500", "144833.150000", "144833.940000", "144834.727500", "144835.515000", "144836.302500", "144837.092500", "144837.880000", "144838.667500", "144839.457500", "144840.245000", "144841.032500", "144841.820000", "144842.610000", "144843.397500", "144844.185000", "144844.972500", "144845.762500", "144846.550000", "144847.337500", "144848.125000", "144848.915000", "144849.702500", "144850.490000", "144851.277500", "144852.067500", "144852.855000", "144853.642500", "144854.430000"],
      "ContentTime": ["144135.218000", "144135.218000", "144135.218000", "144135.234000", "144135.234000", "144135.234000", "144135.234000", "144135.234000", "144135.234000", "144135.250000", "144135.250000", "144135.250000", "144135.250000", "144135.250000", "144135.250000", "144135.250000", "144135.265000", "144135.265000", "144135.265000", "144135.265000", "144135.265000", "144135.265000", "144155.203000", "144155.203000", "144155.203000", "144155.203000", "144155.218000", "144155.218000", "144155.218000", "144155.218000", "144155.218000", "144155.218000", "144155.218000", "144155.234000", "144155.234000", "144155.234000", "144155.234000", "144155.234000", "144155.234000", "144155.234000", "144155.250000", "144155.250000", "144155.250000", "144155.250000", "144155.250000", "144155.250000", "144155.250000", "144215.203000", "144215.203000", "144215.203000", "144215.203000", "144215.218000", "144215.218000", "144215.218000", "144215.218000", "144215.218000", "144215.218000", "144215.218000", "144215.234000", "144215.234000", "144215.234000", "144215.234000", "144215.234000", "144215.234000", "144215.234000", "144215.250000", "144215.250000", "144215.250000", "144215.250000", "144215.250000", "144215.250000", "144215.250000", "144215.265000", "144235.203000", "144235.203000", "144235.203000", "144235.203000", "144235.218000", "144235.218000", "144235.218000", "144235.218000", "144235.218000", "144235.218000", "144235.218000", "144235.234000", "144235.234000", "144235.234000", "144235.234000", "144235.234000", "144235.234000", "144235.234000", "144235.250000", "144235.250000", "144235.250000", "144235.250000", "144235.250000", "144235.250000", "144235.250000", "144255.203000", "144255.203000", "144255.203000", "144255.203000", "144255.218000", "144255.218000", "144255.218000", "144255.218000", "144255.218000", "144255.218000", "144255.218000", "144255.234000", "144255.234000", "144255.234000", "144255.234000", "144255.234000", "144255.234000", "144255.234000", "144255.250000", "144255.250000", "144255.250000", "144255.250000", "144255.250000", "144255.250000", "144255.250000", "144255.265000", "144315.203000", "144315.203000", "144315.203000", "144315.203000", "144315.218000", "144315.218000", "144315.218000", "144315.218000", "144315.218000", "144315.218000", "144315.218000", "144315.234000", "144315.234000", "144315.234000", "144315.234000", "144315.234000", "144315.234000", "144315.234000", "144315.250000", "144315.250000", "144315.250000", "144315.250000", "144315.250000", "144315.250000", "144315.250000", "144335.203000", "144335.203000", "144335.203000", "144335.203000", "144335.218000", "144335.218000", "144335.218000", "144335.218000", "144335.218000", "144335.218000", "144335.218000", "144335.234000", "144335.234000", "144335.234000", "144335.234000", "144335.234000", "144335.234000", "144335.234000", "144335.250000", "144335.250000", "144335.250000", "144335.250000", "144335.250000", "144335.250000", "144335.250000", "144335.265000", "144355.203000", "144355.203000", "144355.203000", "144355.203000", "144355.218000", "144355.218000", "144355.218000", "144355.218000", "144355.218000", "144355.218000", "144355.218000", "144355.234000", "144355.234000", "144355.234000", "144355.234000", "144355.234000", "144355.234000", "144355.234000", "144355.250000", "144355.250000", "144355.250000", "144355.250000", "144355.250000", "144355.265000", "144355.265000", "144415.203000", "144415.203000", "144415.203000", "144415.203000", "144415.218000", "144415.218000", "144415.218000", "144415.218000", "144415.218000", "144415.218000", "144415.218000", "144415.234000", "144415.234000", "144415.234000", "144415.234000", "144415.234000", "144415.234000", "144415.234000", "144415.250000", "144415.250000", "144415.250000", "144415.250000", "144415.250000", "144415.250000", "144415.265000", "144435.203000", "144435.203000", "144435.203000", "144435.203000", "144435.218000", "144435.218000", "144435.218000", "144435.218000", "144435.218000", "144435.218000", "144435.218000", "144435.234000", "144435.234000", "144435.234000", "144435.234000", "144435.234000", "144435.234000", "144435.234000", "144435.250000", "144435.250000", "144435.250000", "144435.250000", "144435.265000", "144435.265000", "144435.265000", "144435.265000", "144455.203000", "144455.203000", "144455.203000", "144455.203000", "144455.218000", "144455.234000", "144455.234000", "144455.234000", "144455.234000", "144455.250000", "144455.250000", "144455.250000", "144455.250000", "144455.250000", "144455.250000", "144455.250000", "144455.265000", "144455.265000", "144455.265000", "144455.265000", "144455.265000", "144455.265000", "144455.265000", "144455.281000", "144455.281000", "144515.203000", "144515.203000", "144515.203000", "144515.218000", "144515.218000", "144515.218000", "144515.218000", "144515.218000", "144515.218000", "144515.218000", "144515.234000", "144515.234000", "144515.234000", "144515.234000", "144515.234000", "144515.234000", "144515.250000", "144515.250000", "144515.250000", "144515.250000", "144515.250000", "144515.250000", "144515.265000", "144515.265000", "144515.265000", "144515.265000", "144535.203000", "144535.203000", "144535.203000", "144535.203000", "144535.218000", "144535.218000", "144535.218000", "144535.218000", "144535.218000", "144535.218000", "144535.218000", "144535.234000", "144535.234000", "144535.234000", "144535.234000", "144535.234000", "144535.234000", "144535.250000", "144535.250000", "144535.250000", "144535.250000", "144535.250000", "144535.250000", "144535.265000", "144535.265000", "144555.203000", "144555.203000", "144555.203000", "144555.203000", "144555.218000", "144555.218000", "144555.218000", "144555.218000", "144555.218000", "144555.218000", "144555.218000", "144555.234000", "144555.234000", "144555.234000", "144555.234000", "144555.234000", "144555.234000", "144555.234000", "144555.250000", "144555.250000", "144555.250000", "144555.250000", "144555.250000", "144555.265000", "144555.265000", "144555.265000", "144615.203000", "144615.203000", "144615.203000", "144615.218000", "144615.218000", "144615.218000", "144615.218000", "144615.218000", "144615.218000", "144615.234000", "144615.234000", "144615.234000", "144615.234000", "144615.234000", "144615.234000", "144615.250000", "144615.250000", "144615.250000", "144615.250000", "144615.265000", "144615.265000", "144615.265000", "144615.265000", "144615.265000", "144615.265000", "144635.203000", "144635.203000", "144635.203000", "144635.203000", "144635.218000", "144635.218000", "144635.218000", "144635.218000", "144635.218000", "144635.218000", "144635.234000", "144635.234000", "144635.234000", "144635.234000", "144635.234000", "144635.250000", "144635.250000", "144635.250000", "144635.250000", "144635.250000", "144635.250000", "144635.265000", "144635.265000", "144635.265000", "144635.265000", "144635.265000", "144655.203000", "144655.203000", "144655.203000", "144655.203000", "144655.218000", "144655.218000", "144655.218000", "144655.218000", "144655.218000", "144655.218000", "144655.218000", "144655.234000", "144655.234000", "144655.234000", "144655.234000", "144655.234000", "144655.234000", "144655.234000", "144655.250000", "144655.250000", "144655.250000", "144655.250000", "144655.250000", "144655.250000", "144655.265000", "144715.203000", "144715.203000", "144715.203000", "144715.203000", "144715.218000", "144715.218000", "144715.218000", "144715.218000", "144715.218000", "144715.218000", "144715.218000", "144715.234000", "144715.234000", "144715.234000", "144715.234000", "144715.234000", "144715.234000", "144715.234000", "144715.250000", "144715.250000", "144715.250000", "144715.250000", "144715.250000", "144715.265000", "144715.265000", "144715.265000", "144735.203000", "144735.203000", "144735.203000", "144735.203000", "144735.218000", "144735.218000", "144735.218000", "144735.218000", "144735.218000", "144735.234000", "144735.234000", "144735.234000", "144735.234000", "144735.234000", "144735.234000", "144735.234000", "144735.250000", "144735.250000", "144735.250000", "144735.250000", "144735.250000", "144735.250000", "144735.265000", "144735.265000", "144735.265000", "144755.203000", "144755.203000", "144755.203000", "144755.203000", "144755.218000", "144755.218000", "144755.218000", "144755.218000", "144755.218000", "144755.218000", "144755.218000", "144755.234000", "144755.234000", "144755.234000", "144755.234000", "144755.234000", "144755.234000", "144755.234000", "144755.250000", "144755.250000", "144755.250000", "144755.250000", "144755.250000", "144755.250000", "144755.250000", "144755.265000", "144815.203000", "144815.203000", "144815.203000", "144815.203000", "144815.218000", "144815.218000", "144815.218000", "144815.218000", "144815.218000", "144815.218000", "144815.218000", "144815.234000", "144815.234000", "144815.234000", "144815.234000", "144815.234000", "144815.234000", "144815.250000", "144815.250000", "144815.250000", "144815.250000", "144815.250000", "144815.250000", "144815.250000", "144815.265000", "144835.203000", "144835.203000", "144835.203000", "144835.203000", "144835.218000", "144835.218000", "144835.218000", "144835.218000", "144835.218000", "144835.218000", "144835.218000", "144835.234000", "144835.234000", "144835.234000", "144835.234000", "144835.234000", "144835.234000", "144835.234000", "144835.250000", "144835.250000", "144835.250000", "144835.250000", "144835.250000", "144835.250000", "144835.250000", "144835.265000", "144853.968000", "144853.968000", "144853.968000", "144853.968000", "144853.984000", "144853.984000", "144853.984000", "144853.984000", "144853.984000", "144853.984000", "144853.984000", "144854.000000", "144854.000000", "144854.000000", "144854.000000", "144854.000000", "144854.000000", "144854.000000", "144854.015000", "144854.015000", "144854.015000", "144854.015000", "144854.015000", "144854.015000"],
