{
  "AcquisitionMatrixPE": 104,
  "AcquisitionNumber": 1,
  "AcquisitionTime": "14:57:34.710000",
  "BandwidthPerPixelPhaseEncode": 13.935,
  "BaseResolution": 104,
  "CoilString": "C:HEA;HEP",
  "ConversionSoftware": "dcm2niix",
  "ConversionSoftwareVersion": "v1.0.20210317",
  "DerivedVendorReportedEchoSpacing": 0.000690017,
  "DeviceSerialNumber": "35450",
  "DwellTime": 2.5e-06,
  "EchoTime": 0.0348,
  "EffectiveEchoSpacing": 0.000690017,
  "FlipAngle": 55,
  "ImageComments": "Unaliased MB8/PE3 (remote)",
  "ImageOrientationPatientDICOM": [1, 0, 0, 0, 0.971134, -0.238533],
  "ImageType": [
    "ORIGINAL",
    "PRIMARY",
    "M",
    "MB",
    "ND",
    "MOSAIC"
],
  "ImagingFrequency": 123.235,
  "InPlanePhaseEncodingDirectionDICOM": "COL",
  "InstitutionAddress": "Univeristy Ave. 197,Newark,North East,US,07102-1814",
  "InstitutionName": "RUBIC",
  "InstitutionalDepartmentName": "Department",
  "MRAcquisitionType": "2D",
  "MagneticFieldStrength": 3,
  "Manufacturer": "Siemens",
  "ManufacturersModelName": "TrioTim",
  "Modality": "MR",
  "MultibandAccelerationFactor": 8,
  "PartialFourier": 0.875,
  "PatientPosition": "HFS",
  "PercentPhaseFOV": 100,
  "PercentSampling": 100,
  "PhaseEncodingDirection": "j-",
  "PhaseEncodingSteps": 91,
  "PhaseResolution": 1,
  "PixelBandwidth": 1923,
  "ProcedureStepDescription": "Cole^Michael",
  "ProtocolName": "cmrr_mbep2d_bold_2mm_MB8_Task_8x",
  "PulseSequenceDetails": "%CustomerSeq%\\cmrr_mbep2d_bold",
  "ReceiveCoilName": "32Ch_Head",
  "ReconMatrixPE": 104,
  "RepetitionTime": 0.785,
  "SAR": 0.115469,
  "ScanOptions": "PFP\\FS",
  "ScanningSequence": "EP",
  "SequenceName": "epfid2d1_104",
  "SequenceVariant": "SK\\SS",
  "SeriesDescription": "cmrr_mbep2d_bold_2mm_MB8_Task_8x",
  "SeriesNumber": 17,
  "ShimSetting": [2114, -345, -7470, 385, -7, -101, -89, -45],
  "SliceThickness": 2,
  "SliceTiming": [0, 0.4375, 0.0875, 0.525, 0.175, 0.6125, 0.2625, 0.7, 0.35, 0, 0.4375, 0.0875, 0.525, 0.175, 0.6125, 0.2625, 0.7, 0.35, 0, 0.4375, 0.0875, 0.525, 0.175, 0.6125, 0.2625, 0.7, 0.35, 0, 0.4375, 0.0875, 0.525, 0.175, 0.6125, 0.2625, 0.7, 0.35, 0, 0.4375, 0.0875, 0.525, 0.175, 0.6125, 0.2625, 0.7, 0.35, 0, 0.4375, 0.0875, 0.525, 0.175, 0.6125, 0.2625, 0.7, 0.35, 0, 0.4375, 0.0875, 0.525, 0.175, 0.6125, 0.2625, 0.7, 0.35, 0, 0.4375, 0.0875, 0.525, 0.175, 0.6125, 0.2625, 0.7, 0.35],
  "SoftwareVersions": "syngo MR B19",
  "SpacingBetweenSlices": 2,
  "StationName": "MRC35450",
  "TaskName": "cpro",
  "TotalReadoutTime": 0.0710717,
  "TxRefAmp": 321.221,
  "dcmmeta_affine": [
    [-2.0, 0.0, 0.0, 106.03389739990234],
    [0.0, 1.9422686100006104, -0.47706693410873413, -71.96723937988281],
    [0.0, 0.47706693410873413, 1.9422684907913208, -114.36250305175781],
    [0.0, 0.0, 0.0, 1.0]
],
  "dcmmeta_reorient_transform": [
    [0.0, -1.0, 0.0, 103.0],
    [1.0, 0.0, 0.0, 0.0],
    [0.0, 0.0, 1.0, 0.0],
    [0.0, 0.0, 0.0, 1.0]
],
  "dcmmeta_shape": [104, 104, 72, 581],
  "dcmmeta_slice_dim": 2,
  "dcmmeta_version": 0.6,
  "global": {
    "const": {
      "AcquisitionMatrix": [104, 0, 0, 104],
      "AngioFlag": "N",
      "BitsAllocated": 16,
      "BitsStored": 12,
      "Columns": 936,
      "EchoNumbers": 1,
      "EchoTime": 34.8,
      "EchoTrainLength": 1,
      "FlipAngle": 55.0,
      "HighBit": 11,
      "ImageOrientationPatient": [1.0, 0.0, 0.0, 0.0, 0.97113427618897, -0.2385334727264],
      "ImagePositionPatient": [-938.03389835358, -936.07014152777, 133.23524123852],
      "ImageType": [
        "ORIGINAL",
        "PRIMARY",
        "M",
        "MB",
        "ND",
        "MOSAIC"
],
      "ImagedNucleus": "1H",
      "ImagingFrequency": 123.234589,
      "InPlanePhaseEncodingDirection": "COL",
      "MRAcquisitionType": "2D",
      "MagneticFieldStrength": 3.0,
      "Manufacturer": "SIEMENS",
      "ManufacturerModelName": "TrioTim",
      "Modality": "MR",
      "NumberOfAverages": 1.0,
      "NumberOfPhaseEncodingSteps": 91,
      "PercentPhaseFieldOfView": 100.0,
      "PercentSampling": 100.0,
      "PerformedProcedureStepStartTime": "133156.031000",
      "PhotometricInterpretation": "MONOCHROME2",
      "PixelBandwidth": 1923.0,
      "PixelRepresentation": 0,
      "PixelSpacing": [2.0, 2.0],
      "ProtocolName": "cmrr_mbep2d_bold_2mm_MB8_Task_8x",
      "RepetitionTime": 785.0,
      "Rows": 936,
      "SAR": 0.11546922682158,
      "SamplesPerPixel": 1,
      "ScanOptions": [
        "PFP",
        "FS"
],
      "ScanningSequence": "EP",
      "SequenceName": "epfid2d1_104",
      "SequenceVariant": [
        "SK",
        "SS"
],
      "SeriesDescription": "cmrr_mbep2d_bold_2mm_MB8_Task_8x",
      "SeriesNumber": 17,
      "SeriesTime": "145800.828000",
      "SliceLocation": -93.894752011087,
      "SliceThickness": 2.0,
      "SmallestImagePixelValue": 0,
      "SoftwareVersions": "syngo MR B19",
      "SpacingBetweenSlices": 1.9999999764464,
      "SpecificCharacterSet": "ISO_IR 100",
      "StudyID": "1",
      "StudyTime": "133155.984000",
      "TransmitCoilName": "Body",
      "VariableFlipAngleFlag": "N",
      "WindowCenterWidthExplanation": "Algo1",
      "dBdt": 0.0},
    "slices": {}
  },
  "time": {
    "samples": {
      "AcquisitionNumber": [1, 2, 3, 4, 5, 6, 7, 8, 9, 10, 11, 12, 13, 14, 15, 16, 17, 18, 19, 20, 21, 22, 23, 24, 25, 26, 27, 28, 29, 30, 31, 32, 33, 34, 35, 36, 37, 38, 39, 40, 41, 42, 43, 44, 45, 46, 47, 48, 49, 50, 51, 52, 53, 54, 55, 56, 57, 58, 59, 60, 61, 62, 63, 64, 65, 66, 67, 68, 69, 70, 71, 72, 73, 74, 75, 76, 77, 78, 79, 80, 81, 82, 83, 84, 85, 86, 87, 88, 89, 90, 91, 92, 93, 94, 95, 96, 97, 98, 99, 100, 101, 102, 103, 104, 105, 106, 107, 108, 109, 110, 111, 112, 113, 114, 115, 116, 117, 118, 119, 120, 121, 122, 123, 124, 125, 126, 127, 128, 129, 130, 131, 132, 133, 134, 135, 136, 137, 138, 139, 140, 141, 142, 143, 144, 145, 146, 147, 148, 149, 150, 151, 152, 153, 154, 155, 156, 157, 158, 159, 160, 161, 162, 163, 164, 165, 166, 167, 168, 169, 170, 171, 172, 173, 174, 175, 176, 177, 178, 179, 180, 181, 182, 183, 184, 185, 186, 187, 188, 189, 190, 191, 192, 193, 194, 195, 196, 197, 198, 199, 200, 201, 202, 203, 204, 205, 206, 207, 208, 209, 210, 211, 212, 213, 214, 215, 216, 217, 218, 219, 220, 221, 222, 223, 224, 225, 226, 227, 228, 229, 230, 231, 232, 233, 234, 235, 236, 237, 238, 239, 240, 241, 242, 243, 244, 245, 246, 247, 248, 249, 250, 251, 252, 253, 254, 255, 256, 257, 258, 259, 260, 261, 262, 263, 264, 265, 266, 267, 268, 269, 270, 271, 272, 273, 274, 275, 276, 277, 278, 279, 280, 281, 282, 283, 284, 285, 286, 287, 288, 289, 290, 291, 292, 293, 294, 295, 296, 297, 298, 299, 300, 301, 302, 303, 304, 305, 306, 307, 308, 309, 310, 311, 312, 313, 314, 315, 316, 317, 318, 319, 320, 321, 322, 323, 324, 325, 326, 327, 328, 329, 330, 331, 332, 333, 334, 335, 336, 337, 338, 339, 340, 341, 342, 343, 344, 345, 346, 347, 348, 349, 350, 351, 352, 353, 354, 355, 356, 357, 358, 359, 360, 361, 362, 363, 364, 365, 366, 367, 368, 369, 370, 371, 372, 373, 374, 375, 376, 377, 378, 379, 380, 381, 382, 383, 384, 385, 386, 387, 388, 389, 390, 391, 392, 393, 394, 395, 396, 397, 398, 399, 400, 401, 402, 403, 404, 405, 406, 407, 408, 409, 410, 411, 412, 413, 414, 415, 416, 417, 418, 419, 420, 421, 422, 423, 424, 425, 426, 427, 428, 429, 430, 431, 432, 433, 434, 435, 436, 437, 438, 439, 440, 441, 442, 443, 444, 445, 446, 447, 448, 449, 450, 451, 452, 453, 454, 455, 456, 457, 458, 459, 460, 461, 462, 463, 464, 465, 466, 467, 468, 469, 470, 471, 472, 473, 474, 475, 476, 477, 478, 479, 480, 481, 482, 483, 484, 485, 486, 487, 488, 489, 490, 491, 492, 493, 494, 495, 496, 497, 498, 499, 500, 501, 502, 503, 504, 505, 506, 507, 508, 509, 510, 511, 512, 513, 514, 515, 516, 517, 518, 519, 520, 521, 522, 523, 524, 525, 526, 527, 528, 529, 530, 531, 532, 533, 534, 535, 536, 537, 538, 539, 540, 541, 542, 543, 544, 545, 546, 547, 548, 549, 550, 551, 552, 553, 554, 555, 556, 557, 558, 559, 560, 561, 562, 563, 564, 565, 566, 567, 568, 569, 570, 571, 572, 573, 574, 575, 576, 577, 578, 579, 580, 581],
      "AcquisitionTime": ["145734.710000", "145735.497500", "145736.285000", "145737.072500", "145737.862500", "145738.650000", "145739.437500", "145740.225000", "145741.015000", "145741.802500", "145742.590000", "145743.377500", "145744.167500", "145744.955000", "145745.742500", "145746.530000", "145747.320000", "145748.107500", "145748.895000", "145749.685000", "145750.472500", "145751.260000", "145752.047500", "145752.837500", "145753.625000", "145754.412500", "145755.200000", "145755.990000", "145756.777500", "145757.565000", "145758.352500", "145759.142500", "145759.930000", "145800.717500", "145801.505000", "145802.295000", "145803.082500", "145803.870000", "145804.657500", "145805.447500", "145806.235000", "145807.022500", "145807.812500", "145808.600000", "145809.387500", "145810.175000", "145810.965000", "145811.752500", "145812.540000", "145813.327500", "145814.117500", "145814.905000", "145815.692500", "145816.480000", "145817.270000", "145818.057500", "145818.845000", "145819.632500", "145820.422500", "145821.210000", "145821.997500", "145822.785000", "145823.575000", "145824.362500", "145825.150000", "145825.940000", "145826.727500", "145827.515000", "145828.302500", "145829.092500", "145829.880000", "145830.667500", "145831.455000", "145832.245000", "145833.032500", "145833.820000", "145834.607500", "145835.397500", "145836.185000", "145836.972500", "145837.760000", "145838.550000", "145839.337500", "145840.125000", "145840.912500", "145841.702500", "145842.490000", "145843.277500", "145844.067500", "145844.855000", "145845.642500", "145846.430000", "145847.220000", "145848.007500", "145848.795000", "145849.582500", "145850.372500", "145851.160000", "145851.947500", "145852.735000", "145853.525000", "145854.312500", "145855.100000", "145855.887500", "145856.677500", "145857.465000", "145858.252500", "145859.040000", "145859.830000", "145900.617500", "145901.405000", "145902.195000", "145902.982500", "145903.770000", "145904.557500", "145905.347500", "145906.135000", "145906.922500", "145907.710000", "145908.500000", "145909.287500", "145910.075000", "145910.862500", "145911.652500", "145912.440000", "145913.227500", "145914.015000", "145914.805000", "145915.592500", "145916.380000", "145917.167500", "145917.957500", "145918.745000", "145919.532500", "145920.322500", "145921.110000", "145921.897500", "145922.685000", "145923.475000", "145924.262500", "145925.050000", "145925.837500", "145926.627500", "145927.415000", "145928.202500", "145928.990000", "145929.780000", "145930.567500", "145931.355000", "145932.142500", "145932.932500", "145933.720000", "145934.507500", "145935.295000", "145936.085000", "145936.872500", "145937.660000", "145938.450000", "145939.237500", "145940.025000", "145940.812500", "145941.602500", "145942.390000", "145943.177500", "145943.965000", "145944.755000", "145945.542500", "145946.330000", "145947.117500", "145947.907500", "145948.695000", "145949.482500", "145950.270000", "145951.060000", "145951.847500", "145952.635000", "145953.422500", "145954.212500", "145955.000000", "145955.787500", "145956.577500", "145957.365000", "145958.152500", "145958.940000", "145959.730000", "150000.517500", "150001.305000", "150002.092500", "150002.882500", "150003.670000", "150004.457500", "150005.245000", "150006.035000", "150006.822500", "150007.610000", "150008.397500", "150009.187500", "150009.975000", "150010.762500", "150011.550000", "150012.340000", "150013.127500", "150013.915000", "150014.705000", "150015.492500", "150016.280000", "150017.067500", "150017.857500", "150018.645000", "150019.432500", "150020.220000", "150021.010000", "150021.797500", "150022.585000", "150023.372500", "150024.162500", "150024.950000", "150025.737500", "150026.525000", "150027.315000", "150028.102500", "150028.890000", "150029.677500", "150030.467500", "150031.255000", "150032.042500", "150032.832500", "150033.620000", "150034.407500", "150035.195000", "150035.985000", "150036.772500", "150037.560000", "150038.347500", "150039.137500", "150039.925000", "150040.712500", "150041.500000", "150042.290000", "150043.077500", "150043.865000", "150044.652500", "150045.442500", "150046.230000", "150047.017500", "150047.805000", "150048.595000", "150049.382500", "150050.170000", "150050.960000", "150051.747500", "150052.535000", "150053.322500", "150054.112500", "150054.900000", "150055.687500", "150056.475000", "150057.265000", "150058.052500", "150058.840000", "150059.627500", "150100.417500", "150101.205000", "150101.992500", "150102.780000", "150103.570000", "150104.357500", "150105.145000", "150105.935000", "150106.722500", "150107.510000", "150108.297500", "150109.087500", "150109.875000", "150110.662500", "150111.450000", "150112.240000", "150113.027500", "150113.815000", "150114.602500", "150115.392500", "150116.180000", "150116.967500", "150117.755000", "150118.545000", "150119.332500", "150120.120000", "150120.907500", "150121.697500", "150122.485000", "150123.272500", "150124.062500", "150124.850000", "150125.637500", "150126.425000", "150127.215000", "150128.002500", "150128.790000", "150129.577500", "150130.367500", "150131.155000", "150131.942500", "150132.730000", "150133.520000", "150134.307500", "150135.095000", "150135.882500", "150136.672500", "150137.460000", "150138.247500", "150139.035000", "150139.825000", "150140.612500", "150141.400000", "150142.190000", "150142.977500", "150143.765000", "150144.552500", "150145.342500", "150146.130000", "150146.917500", "150147.705000", "150148.495000", "150149.282500", "150150.070000", "150150.857500", "150151.647500", "150152.435000", "150153.222500", "150154.010000", "150154.800000", "150155.587500", "150156.375000", "150157.162500", "150157.952500", "150158.740000", "150159.527500", "150200.317500", "150201.105000", "150201.892500", "150202.680000", "150203.470000", "150204.257500", "150205.045000", "150205.832500", "150206.622500", "150207.410000", "150208.197500", "150208.985000", "150209.775000", "150210.562500", "150211.350000", "150212.137500", "150212.927500", "150213.715000", "150214.502500", "150215.290000", "150216.080000", "150216.867500", "150217.655000", "150218.445000", "150219.232500", "150220.020000", "150220.807500", "150221.597500", "150222.385000", "150223.172500", "150223.960000", "150224.750000", "150225.537500", "150226.325000", "150227.112500", "150227.902500", "150228.690000", "150229.477500", "150230.265000", "150231.055000", "150231.842500", "150232.630000", "150233.417500", "150234.207500", "150234.995000", "150235.782500", "150236.572500", "150237.360000", "150238.147500", "150238.935000", "150239.725000", "150240.512500", "150241.300000", "150242.087500", "150242.877500", "150243.665000", "150244.452500", "150245.240000", "150246.030000", "150246.817500", "150247.605000", "150248.392500", "150249.182500", "150249.970000", "150250.757500", "150251.545000", "150252.335000", "150253.122500", "150253.910000", "150254.700000", "150255.487500", "150256.275000", "150257.062500", "150257.852500", "150258.640000", "150259.427500", "150300.215000", "150301.005000", "150301.792500", "150302.580000", "150303.367500", "150304.157500", "150304.945000", "150305.732500", "150306.520000", "150307.310000", "150308.097500", "150308.885000", "150309.672500", "150310.462500", "150311.250000", "150312.037500", "150312.827500", "150313.615000", "150314.402500", "150315.190000", "150315.980000", "150316.767500", "150317.555000", "150318.342500", "150319.132500", "150319.920000", "150320.707500", "150321.495000", "150322.285000", "150323.072500", "150323.860000", "150324.647500", "150325.437500", "150326.225000", "150327.012500", "150327.800000", "150328.590000", "150329.377500", "150330.165000", "150330.955000", "150331.742500", "150332.530000", "150333.317500", "150334.107500", "150334.895000", "150335.682500", "150336.470000", "150337.260000", "150338.047500", "150338.835000", "150339.622500", "150340.412500", "150341.200000", "150341.987500", "150342.775000", "150343.565000", "150344.352500", "150345.140000", "150345.927500", "150346.717500", "150347.505000", "150348.292500", "150349.082500", "150349.870000", "150350.657500", "150351.445000", "150352.235000", "150353.022500", "150353.810000", "150354.597500", "150355.387500", "150356.175000", "150356.962500", "150357.750000", "150358.540000", "150359.327500", "150400.115000", "150400.902500", "150401.692500", "150402.480000", "150403.267500", "150404.055000", "150404.845000", "150405.632500", "150406.420000", "150407.210000", "150407.997500", "150408.785000", "150409.572500", "150410.362500", "150411.150000", "150411.937500", "150412.725000", "150413.515000", "150414.302500", "150415.090000", "150415.877500", "150416.667500", "150417.455000", "150418.242500", "150419.030000", "150419.820000", "150420.607500", "150421.395000", "150422.185000", "150422.972500", "150423.760000", "150424.547500", "150425.337500", "150426.125000", "150426.912500", "150427.700000", "150428.490000", "150429.277500", "150430.065000", "150430.852500", "150431.642500", "150432.430000", "150433.217500", "150434.005000", "150434.795000", "150435.582500", "150436.370000", "150437.157500", "150437.947500", "150438.735000", "150439.522500", "150440.312500", "150441.100000", "150441.887500", "150442.675000", "150443.465000", "150444.252500", "150445.040000", "150445.827500", "150446.617500", "150447.405000", "150448.192500", "150448.980000", "150449.770000", "150450.557500", "150451.345000", "150452.132500", "150452.922500", "150453.710000", "150454.497500", "150455.285000", "150456.075000", "150456.862500", "150457.650000", "150458.440000", "150459.227500", "150500.015000", "150500.802500", "150501.592500", "150502.380000", "150503.167500", "150503.955000", "150504.745000", "150505.532500", "150506.320000", "150507.107500", "150507.897500", "150508.685000", "150509.472500", "150510.260000", "150511.050000", "150511.837500"],
      "ContentTime": ["145800.828000", "145800.828000", "145800.828000", "145800.828000", "145800.843000", "145800.843000", "145800.843000", "145800.843000", "145800.843000", "145800.843000", "145800.843000", "145800.859000", "145800.859000", "145800.859000", "145800.859000", "145800.859000", "145800.859000", "145800.875000", "145800.875000", "145800.875000", "145800.875000", "145800.875000", "145800.875000", "145800.875000", "145800.890000", "145800.890000", "145800.890000", "145800.890000", "145800.890000", "145800.906000", "145800.906000", "145820.796000", "145820.796000", "145820.796000", "145820.796000", "145820.812000", "145820.812000", "145820.812000", "145820.812000", "145820.812000", "145820.812000", "145820.812000", "145820.828000", "145820.828000", "145820.828000", "145820.828000", "145820.828000", "145820.828000", "145820.843000", "145820.843000", "145820.843000", "145820.843000", "145820.859000", "145820.859000", "145820.875000", "145820.875000", "145820.875000", "145840.796000", "145840.796000", "145840.796000", "145840.796000", "145840.812000", "145840.812000", "145840.812000", "145840.812000", "145840.812000", "145840.812000", "145840.812000", "145840.828000", "145840.828000", "145840.828000", "145840.828000", "145840.828000", "145840.828000", "145840.828000", "145840.843000", "145840.843000", "145840.843000", "145840.843000", "145840.843000", "145840.843000", "145840.843000", "145900.796000", "145900.796000", "145900.796000", "145900.796000", "145900.812000", "145900.812000", "145900.812000", "145900.812000", "145900.812000", "145900.812000", "145900.812000", "145900.828000", "145900.828000", "145900.828000", "145900.828000", "145900.828000", "145900.828000", "145900.828000", "145900.843000", "145900.843000", "145900.843000", "145900.843000", "145900.843000", "145900.843000", "145900.843000", "145900.859000", "145920.796000", "145920.796000", "145920.796000", "145920.796000", "145920.812000", "145920.812000", "145920.812000", "145920.812000", "145920.812000", "145920.812000", "145920.812000", "145920.828000", "145920.828000", "145920.828000", "145920.828000", "145920.828000", "145920.828000", "145920.828000", "145920.843000", "145920.843000", "145920.843000", "145920.843000", "145920.843000", "145920.843000", "145920.843000", "145940.796000", "145940.796000", "145940.796000", "145940.796000", "145940.812000", "145940.812000", "145940.812000", "145940.812000", "145940.812000", "145940.812000", "145940.812000", "145940.828000", "145940.828000", "145940.828000", "145940.828000", "145940.828000", "145940.828000", "145940.828000", "145940.843000", "145940.843000", "145940.843000", "145940.843000", "145940.843000", "145940.843000", "145940.843000", "145940.859000", "150000.796000", "150000.796000", "150000.796000", "150000.796000", "150000.812000", "150000.812000", "150000.812000", "150000.812000", "150000.812000", "150000.812000", "150000.812000", "150000.828000", "150000.828000", "150000.828000", "150000.828000", "150000.828000", "150000.828000", "150000.828000", "150000.843000", "150000.843000", "150000.843000", "150000.843000", "150000.843000", "150000.843000", "150000.859000", "150020.796000", "150020.796000", "150020.796000", "150020.796000", "150020.812000", "150020.812000", "150020.812000", "150020.812000", "150020.812000", "150020.812000", "150020.812000", "150020.828000", "150020.828000", "150020.828000", "150020.828000", "150020.828000", "150020.828000", "150020.828000", "150020.843000", "150020.843000", "150020.843000", "150020.843000", "150020.843000", "150020.843000", "150020.859000", "150020.859000", "150040.796000", "150040.796000", "150040.796000", "150040.796000", "150040.812000", "150040.812000", "150040.812000", "150040.812000", "150040.812000", "150040.812000", "150040.812000", "150040.828000", "150040.828000", "150040.828000", "150040.828000", "150040.828000", "150040.828000", "150040.828000", "150040.843000", "150040.843000", "150040.843000", "150040.843000", "150040.843000", "150040.859000", "150040.859000", "150100.796000", "150100.796000", "150100.796000", "150100.796000", "150100.812000", "150100.812000", "150100.812000", "150100.812000", "150100.812000", "150100.812000", "150100.812000", "150100.828000", "150100.828000", "150100.828000", "150100.828000", "150100.828000", "150100.828000", "150100.828000", "150100.843000", "150100.843000", "150100.843000", "150100.843000", "150100.843000", "150100.843000", "150100.843000", "150100.859000", "150120.796000", "150120.796000", "150120.796000", "150120.796000", "150120.812000", "150120.812000", "150120.812000", "150120.812000", "150120.812000", "150120.812000", "150120.812000", "150120.828000", "150120.828000", "150120.828000", "150120.828000", "150120.843000", "150120.843000", "150120.843000", "150120.843000", "150120.843000", "150120.843000", "150120.843000", "150120.859000", "150120.859000", "150120.859000", "150140.796000", "150140.796000", "150140.796000", "150140.796000", "150140.812000", "150140.812000", "150140.812000", "150140.812000", "150140.812000", "150140.812000", "150140.812000", "150140.828000", "150140.828000", "150140.828000", "150140.828000", "150140.828000", "150140.828000", "150140.828000", "150140.843000", "150140.843000", "150140.843000", "150140.843000", "150140.843000", "150140.843000", "150140.843000", "150140.859000", "150200.796000", "150200.796000", "150200.796000", "150200.796000", "150200.812000", "150200.812000", "150200.812000", "150200.812000", "150200.812000", "150200.812000", "150200.812000", "150200.828000", "150200.828000", "150200.828000", "150200.828000", "150200.828000", "150200.828000", "150200.828000", "150200.843000", "150200.843000", "150200.843000", "150200.843000", "150200.843000", "150200.843000", "150200.859000", "150220.796000", "150220.796000", "150220.796000", "150220.796000", "150220.812000", "150220.812000", "150220.812000", "150220.812000", "150220.812000", "150220.812000", "150220.812000", "150220.828000", "150220.828000", "150220.828000", "150220.828000", "150220.828000", "150220.828000", "150220.828000", "150220.843000", "150220.843000", "150220.843000", "150220.843000", "150220.843000", "150220.843000", "150220.859000", "150220.859000", "150240.796000", "150240.796000", "150240.796000", "150240.796000", "150240.812000", "150240.812000", "150240.812000", "150240.812000", "150240.812000", "150240.812000", "150240.812000", "150240.828000", "150240.828000", "150240.828000", "150240.828000", "150240.828000", "150240.828000", "150240.828000", "150240.843000", "150240.843000", "150240.843000", "150240.843000", "150240.843000", "150240.843000", "150240.843000", "150300.796000", "150300.796000", "150300.796000", "150300.796000", "150300.812000", "150300.812000", "150300.812000", "150300.812000", "150300.828000", "150300.828000", "150300.828000", "150300.828000", "150300.828000", "150300.828000", "150300.828000", "150300.843000", "150300.843000", "150300.843000", "150300.843000", "150300.843000", "150300.843000", "150300.843000", "150300.859000", "150300.859000", "150300.859000", "150320.796000", "150320.796000", "150320.796000", "150320.796000", "150320.812000", "150320.812000", "150320.812000", "150320.812000", "150320.812000", "150320.812000", "150320.828000", "150320.828000", "150320.828000", "150320.828000", "150320.828000", "150320.828000", "150320.828000", "150320.843000", "150320.843000", "150320.843000", "150320.843000", "150320.843000", "150320.843000", "150320.843000", "150320.859000", "150320.859000", "150340.796000", "150340.796000", "150340.796000", "150340.796000", "150340.812000", "150340.812000", "150340.812000", "150340.812000", "150340.812000", "150340.812000", "150340.828000", "150340.828000", "150340.828000", "150340.828000", "150340.828000", "150340.843000", "150340.843000", "150340.843000", "150340.843000", "150340.843000", "150340.843000", "150340.843000", "150340.859000", "150340.859000", "150340.859000", "150400.796000", "150400.796000", "150400.812000", "150400.812000", "150400.812000", "150400.812000", "150400.812000", "150400.812000", "150400.812000", "150400.828000", "150400.828000", "150400.828000", "150400.828000", "150400.828000", "150400.828000", "150400.828000", "150400.843000", "150400.843000", "150400.843000", "150400.843000", "150400.843000", "150400.843000", "150400.843000", "150400.859000", "150400.859000", "150400.859000", "150420.796000", "150420.796000", "150420.796000", "150420.796000", "150420.812000", "150420.812000", "150420.812000", "150420.812000", "150420.812000", "150420.812000", "150420.812000", "150420.828000", "150420.828000", "150420.828000", "150420.828000", "150420.828000", "150420.843000", "150420.843000", "150420.843000", "150420.843000", "150420.843000", "150420.859000", "150420.859000", "150420.859000", "150420.859000", "150440.796000", "150440.796000", "150440.796000", "150440.796000", "150440.812000", "150440.812000", "150440.812000", "150440.812000", "150440.812000", "150440.828000", "150440.828000", "150440.828000", "150440.828000", "150440.828000", "150440.828000", "150440.828000", "150440.843000", "150440.843000", "150440.843000", "150440.843000", "150440.843000", "150440.843000", "150440.843000", "150440.859000", "150440.859000", "150440.859000", "150500.796000", "150500.796000", "150500.796000", "150500.796000", "150500.812000", "150500.812000", "150500.812000", "150500.812000", "150500.812000", "150500.812000", "150500.812000", "150500.828000", "150500.828000", "150500.828000", "150500.828000", "150500.828000", "150500.828000", "150500.843000", "150500.843000", "150500.843000", "150500.843000", "150500.843000", "150500.843000", "150500.859000", "150500.859000", "150511.968000", "150511.984000", "150511.984000", "150511.984000", "150511.984000", "150511.984000", "150511.984000", "150511.984000", "150512.000000", "150512.000000", "150512.000000", "150512.000000", "150512.000000", "150512.000000", "150512.000000"],
