{
  "AcquisitionMatrixPE": 104,
  "AcquisitionNumber": 1,
  "AcquisitionTime": "14:18:3.880000",
  "BandwidthPerPixelPhaseEncode": 13.935,
  "BaseResolution": 104,
  "CoilString": "C:HEA;HEP",
  "ConversionSoftware": "dcm2niix",
  "ConversionSoftwareVersion": "v1.0.20210317",
  "DerivedVendorReportedEchoSpacing": 0.000690017,
  "DeviceSerialNumber": "35450",
  "DwellTime": 2.5e-06,
  "EchoTime": 0.0348,
  "EffectiveEchoSpacing": 0.000690017,
  "FlipAngle": 55,
  "ImageComments": "Unaliased MB8/PE3 (remote)",
  "ImageOrientationPatientDICOM": [1, 0, 0, 0, 0.971134, -0.238533],
  "ImageType": [
    "ORIGINAL",
    "PRIMARY",
    "M",
    "MB",
    "ND",
    "MOSAIC"
],
  "ImagingFrequency": 123.235,
  "InPlanePhaseEncodingDirectionDICOM": "COL",
  "InstitutionAddress": "Univeristy Ave. 197,Newark,North East,US,07102-1814",
  "InstitutionName": "RUBIC",
  "InstitutionalDepartmentName": "Department",
  "MRAcquisitionType": "2D",
  "MagneticFieldStrength": 3,
  "Manufacturer": "Siemens",
  "ManufacturersModelName": "TrioTim",
  "Modality": "MR",
  "MultibandAccelerationFactor": 8,
  "PartialFourier": 0.875,
  "PatientPosition": "HFS",
  "PercentPhaseFOV": 100,
  "PercentSampling": 100,
  "PhaseEncodingDirection": "j-",
  "PhaseEncodingSteps": 91,
  "PhaseResolution": 1,
  "PixelBandwidth": 1923,
  "ProcedureStepDescription": "Cole^Michael",
  "ProtocolName": "cmrr_mbep2d_bold_2mm_MB8_Rest",
  "PulseSequenceDetails": "%CustomerSeq%\\cmrr_mbep2d_bold",
  "ReceiveCoilName": "32Ch_Head",
  "ReconMatrixPE": 104,
  "RepetitionTime": 0.785,
  "SAR": 0.1133,
  "ScanOptions": "PFP\\FS",
  "ScanningSequence": "EP",
  "SequenceName": "epfid2d1_104",
  "SequenceVariant": "SK\\SS",
  "SeriesDescription": "cmrr_mbep2d_bold_2mm_MB8_Rest",
  "SeriesNumber": 9,
  "ShimSetting": [2114, -345, -7470, 385, -7, -101, -89, -45],
  "SliceThickness": 2,
  "SliceTiming": [0, 0.4375, 0.0875, 0.525, 0.175, 0.6125, 0.2625, 0.7, 0.35, 0, 0.4375, 0.0875, 0.525, 0.175, 0.6125, 0.2625, 0.7, 0.35, 0, 0.4375, 0.0875, 0.525, 0.175, 0.6125, 0.2625, 0.7, 0.35, 0, 0.4375, 0.0875, 0.525, 0.175, 0.6125, 0.2625, 0.7, 0.35, 0, 0.4375, 0.0875, 0.525, 0.175, 0.6125, 0.2625, 0.7, 0.35, 0, 0.4375, 0.0875, 0.525, 0.175, 0.6125, 0.2625, 0.7, 0.35, 0, 0.4375, 0.0875, 0.525, 0.175, 0.6125, 0.2625, 0.7, 0.35, 0, 0.4375, 0.0875, 0.525, 0.175, 0.6125, 0.2625, 0.7, 0.35],
  "SoftwareVersions": "syngo MR B19",
  "SpacingBetweenSlices": 2,
  "StationName": "MRC35450",
  "TaskName": "rest",
  "TotalReadoutTime": 0.0710717,
  "TxRefAmp": 321.221,
  "dcmmeta_affine": [
    [-2.0, 0.0, 0.0, 106.03389739990234],
    [0.0, 1.9422686100006104, -0.47706693410873413, -71.96723937988281],
    [0.0, 0.47706693410873413, 1.9422684907913208, -114.36250305175781],
    [0.0, 0.0, 0.0, 1.0]
],
  "dcmmeta_reorient_transform": [
    [0.0, -1.0, 0.0, 103.0],
    [1.0, 0.0, 0.0, 0.0],
    [0.0, 0.0, 1.0, 0.0],
    [0.0, 0.0, 0.0, 1.0]
],
  "dcmmeta_shape": [104, 104, 72, 1070],
  "dcmmeta_slice_dim": 2,
  "dcmmeta_version": 0.6,
  "global": {
    "const": {
      "AcquisitionMatrix": [104, 0, 0, 104],
      "AngioFlag": "N",
      "BitsAllocated": 16,
      "BitsStored": 12,
      "Columns": 936,
      "EchoNumbers": 1,
      "EchoTime": 34.8,
      "EchoTrainLength": 1,
      "FlipAngle": 55.0,
      "HighBit": 11,
      "ImageOrientationPatient": [1.0, 0.0, 0.0, 0.0, 0.97113427618897, -0.2385334727264],
      "ImagePositionPatient": [-938.03389835358, -936.07014152777, 133.23524123852],
      "ImageType": [
        "ORIGINAL",
        "PRIMARY",
        "M",
        "MB",
        "ND",
        "MOSAIC"
],
      "ImagedNucleus": "1H",
      "ImagingFrequency": 123.23453,
      "InPlanePhaseEncodingDirection": "COL",
      "MRAcquisitionType": "2D",
      "MagneticFieldStrength": 3.0,
      "Manufacturer": "SIEMENS",
      "ManufacturerModelName": "TrioTim",
      "Modality": "MR",
      "NumberOfAverages": 1.0,
      "NumberOfPhaseEncodingSteps": 91,
      "PercentPhaseFieldOfView": 100.0,
      "PercentSampling": 100.0,
      "PerformedProcedureStepStartTime": "133156.031000",
      "PhotometricInterpretation": "MONOCHROME2",
      "PixelBandwidth": 1923.0,
      "PixelRepresentation": 0,
      "PixelSpacing": [2.0, 2.0],
      "ProtocolName": "cmrr_mbep2d_bold_2mm_MB8_Rest",
      "RepetitionTime": 785.0,
      "Rows": 936,
      "SAR": 0.11330009734802,
      "SamplesPerPixel": 1,
      "ScanOptions": [
        "PFP",
        "FS"
],
      "ScanningSequence": "EP",
      "SequenceName": "epfid2d1_104",
      "SequenceVariant": [
        "SK",
        "SS"
],
      "SeriesDescription": "cmrr_mbep2d_bold_2mm_MB8_Rest",
      "SeriesNumber": 9,
      "SeriesTime": "141833.250000",
      "SliceLocation": -93.894752011087,
      "SliceThickness": 2.0,
      "SmallestImagePixelValue": 0,
      "SoftwareVersions": "syngo MR B19",
      "SpacingBetweenSlices": 1.9999999764464,
      "SpecificCharacterSet": "ISO_IR 100",
      "StudyID": "1",
      "StudyTime": "133155.984000",
      "TransmitCoilName": "Body",
      "VariableFlipAngleFlag": "N",
      "WindowCenterWidthExplanation": "Algo1",
      "dBdt": 0.0},
    "slices": {}
  },
  "time": {
    "samples": {
      "AcquisitionNumber": [1, 2, 3, 4, 5, 6, 7, 8, 9, 10, 11, 12, 13, 14, 15, 16, 17, 18, 19, 20, 21, 22, 23, 24, 25, 26, 27, 28, 29, 30, 31, 32, 33, 34, 35, 36, 37, 38, 39, 40, 41, 42, 43, 44, 45, 46, 47, 48, 49, 50, 51, 52, 53, 54, 55, 56, 57, 58, 59, 60, 61, 62, 63, 64, 65, 66, 67, 68, 69, 70, 71, 72, 73, 74, 75, 76, 77, 78, 79, 80, 81, 82, 83, 84, 85, 86, 87, 88, 89, 90, 91, 92, 93, 94, 95, 96, 97, 98, 99, 100, 101, 102, 103, 104, 105, 106, 107, 108, 109, 110, 111, 112, 113, 114, 115, 116, 117, 118, 119, 120, 121, 122, 123, 124, 125, 126, 127, 128, 129, 130, 131, 132, 133, 134, 135, 136, 137, 138, 139, 140, 141, 142, 143, 144, 145, 146, 147, 148, 149, 150, 151, 152, 153, 154, 155, 156, 157, 158, 159, 160, 161, 162, 163, 164, 165, 166, 167, 168, 169, 170, 171, 172, 173, 174, 175, 176, 177, 178, 179, 180, 181, 182, 183, 184, 185, 186, 187, 188, 189, 190, 191, 192, 193, 194, 195, 196, 197, 198, 199, 200, 201, 202, 203, 204, 205, 206, 207, 208, 209, 210, 211, 212, 213, 214, 215, 216, 217, 218, 219, 220, 221, 222, 223, 224, 225, 226, 227, 228, 229, 230, 231, 232, 233, 234, 235, 236, 237, 238, 239, 240, 241, 242, 243, 244, 245, 246, 247, 248, 249, 250, 251, 252, 253, 254, 255, 256, 257, 258, 259, 260, 261, 262, 263, 264, 265, 266, 267, 268, 269, 270, 271, 272, 273, 274, 275, 276, 277, 278, 279, 280, 281, 282, 283, 284, 285, 286, 287, 288, 289, 290, 291, 292, 293, 294, 295, 296, 297, 298, 299, 300, 301, 302, 303, 304, 305, 306, 307, 308, 309, 310, 311, 312, 313, 314, 315, 316, 317, 318, 319, 320, 321, 322, 323, 324, 325, 326, 327, 328, 329, 330, 331, 332, 333, 334, 335, 336, 337, 338, 339, 340, 341, 342, 343, 344, 345, 346, 347, 348, 349, 350, 351, 352, 353, 354, 355, 356, 357, 358, 359, 360, 361, 362, 363, 364, 365, 366, 367, 368, 369, 370, 371, 372, 373, 374, 375, 376, 377, 378, 379, 380, 381, 382, 383, 384, 385, 386, 387, 388, 389, 390, 391, 392, 393, 394, 395, 396, 397, 398, 399, 400, 401, 402, 403, 404, 405, 406, 407, 408, 409, 410, 411, 412, 413, 414, 415, 416, 417, 418, 419, 420, 421, 422, 423, 424, 425, 426, 427, 428, 429, 430, 431, 432, 433, 434, 435, 436, 437, 438, 439, 440, 441, 442, 443, 444, 445, 446, 447, 448, 449, 450, 451, 452, 453, 454, 455, 456, 457, 458, 459, 460, 461, 462, 463, 464, 465, 466, 467, 468, 469, 470, 471, 472, 473, 474, 475, 476, 477, 478, 479, 480, 481, 482, 483, 484, 485, 486, 487, 488, 489, 490, 491, 492, 493, 494, 495, 496, 497, 498, 499, 500, 501, 502, 503, 504, 505, 506, 507, 508, 509, 510, 511, 512, 513, 514, 515, 516, 517, 518, 519, 520, 521, 522, 523, 524, 525, 526, 527, 528, 529, 530, 531, 532, 533, 534, 535, 536, 537, 538, 539, 540, 541, 542, 543, 544, 545, 546, 547, 548, 549, 550, 551, 552, 553, 554, 555, 556, 557, 558, 559, 560, 561, 562, 563, 564, 565, 566, 567, 568, 569, 570, 571, 572, 573, 574, 575, 576, 577, 578, 579, 580, 581, 582, 583, 584, 585, 586, 587, 588, 589, 590, 591, 592, 593, 594, 595, 596, 597, 598, 599, 600, 601, 602, 603, 604, 605, 606, 607, 608, 609, 610, 611, 612, 613, 614, 615, 616, 617, 618, 619, 620, 621, 622, 623, 624, 625, 626, 627, 628, 629, 630, 631, 632, 633, 634, 635, 636, 637, 638, 639, 640, 641, 642, 643, 644, 645, 646, 647, 648, 649, 650, 651, 652, 653, 654, 655, 656, 657, 658, 659, 660, 661, 662, 663, 664, 665, 666, 667, 668, 669, 670, 671, 672, 673, 674, 675, 676, 677, 678, 679, 680, 681, 682, 683, 684, 685, 686, 687, 688, 689, 690, 691, 692, 693, 694, 695, 696, 697, 698, 699, 700, 701, 702, 703, 704, 705, 706, 707, 708, 709, 710, 711, 712, 713, 714, 715, 716, 717, 718, 719, 720, 721, 722, 723, 724, 725, 726, 727, 728, 729, 730, 731, 732, 733, 734, 735, 736, 737, 738, 739, 740, 741, 742, 743, 744, 745, 746, 747, 748, 749, 750, 751, 752, 753, 754, 755, 756, 757, 758, 759, 760, 761, 762, 763, 764, 765, 766, 767, 768, 769, 770, 771, 772, 773, 774, 775, 776, 777, 778, 779, 780, 781, 782, 783, 784, 785, 786, 787, 788, 789, 790, 791, 792, 793, 794, 795, 796, 797, 798, 799, 800, 801, 802, 803, 804, 805, 806, 807, 808, 809, 810, 811, 812, 813, 814, 815, 816, 817, 818, 819, 820, 821, 822, 823, 824, 825, 826, 827, 828, 829, 830, 831, 832, 833, 834, 835, 836, 837, 838, 839, 840, 841, 842, 843, 844, 845, 846, 847, 848, 849, 850, 851, 852, 853, 854, 855, 856, 857, 858, 859, 860, 861, 862, 863, 864, 865, 866, 867, 868, 869, 870, 871, 872, 873, 874, 875, 876, 877, 878, 879, 880, 881, 882, 883, 884, 885, 886, 887, 888, 889, 890, 891, 892, 893, 894, 895, 896, 897, 898, 899, 900, 901, 902, 903, 904, 905, 906, 907, 908, 909, 910, 911, 912, 913, 914, 915, 916, 917, 918, 919, 920, 921, 922, 923, 924, 925, 926, 927, 928, 929, 930, 931, 932, 933, 934, 935, 936, 937, 938, 939, 940, 941, 942, 943, 944, 945, 946, 947, 948, 949, 950, 951, 952, 953, 954, 955, 956, 957, 958, 959, 960, 961, 962, 963, 964, 965, 966, 967, 968, 969, 970, 971, 972, 973, 974, 975, 976, 977, 978, 979, 980, 981, 982, 983, 984, 985, 986, 987, 988, 989, 990, 991, 992, 993, 994, 995, 996, 997, 998, 999, 1000, 1001, 1002, 1003, 1004, 1005, 1006, 1007, 1008, 1009, 1010, 1011, 1012, 1013, 1014, 1015, 1016, 1017, 1018, 1019, 1020, 1021, 1022, 1023, 1024, 1025, 1026, 1027, 1028, 1029, 1030, 1031, 1032, 1033, 1034, 1035, 1036, 1037, 1038, 1039, 1040, 1041, 1042, 1043, 1044, 1045, 1046, 1047, 1048, 1049, 1050, 1051, 1052, 1053, 1054, 1055, 1056, 1057, 1058, 1059, 1060, 1061, 1062, 1063, 1064, 1065, 1066, 1067, 1068, 1069, 1070],
      "AcquisitionTime": ["141803.880000", "141804.667500", "141805.457500", "141806.245000", "141807.032500", "141807.820000", "141808.610000", "141809.397500", "141810.185000", "141810.972500", "141811.762500", "141812.550000", "141813.337500", "141814.125000", "141814.915000", "141815.702500", "141816.490000", "141817.277500", "141818.067500", "141818.855000", "141819.642500", "141820.430000", "141821.220000", "141822.007500", "141822.795000", "141823.585000", "141824.372500", "141825.160000", "141825.947500", "141826.737500", "141827.525000", "141828.312500", "141829.100000", "141829.890000", "141830.677500", "141831.465000", "141832.252500", "141833.042500", "141833.830000", "141834.617500", "141835.405000", "141836.195000", "141836.982500", "141837.770000", "141838.557500", "141839.347500", "141840.135000", "141840.922500", "141841.712500", "141842.500000", "141843.287500", "141844.075000", "141844.865000", "141845.652500", "141846.440000", "141847.227500", "141848.017500", "141848.805000", "141849.592500", "141850.380000", "141851.170000", "141851.957500", "141852.745000", "141853.532500", "141854.322500", "141855.110000", "141855.897500", "141856.685000", "141857.475000", "141858.262500", "141859.050000", "141859.840000", "141900.627500", "141901.415000", "141902.202500", "141902.992500", "141903.780000", "141904.567500", "141905.355000", "141906.145000", "141906.932500", "141907.720000", "141908.507500", "141909.297500", "141910.085000", "141910.872500", "141911.660000", "141912.450000", "141913.237500", "141914.025000", "141914.812500", "141915.602500", "141916.390000", "141917.177500", "141917.967500", "141918.755000", "141919.542500", "141920.330000", "141921.120000", "141921.907500", "141922.695000", "141923.482500", "141924.272500", "141925.060000", "141925.847500", "141926.635000", "141927.425000", "141928.212500", "141929.000000", "141929.787500", "141930.577500", "141931.365000", "141932.152500", "141932.940000", "141933.730000", "141934.517500", "141935.305000", "141936.095000", "141936.882500", "141937.670000", "141938.457500", "141939.247500", "141940.035000", "141940.822500", "141941.610000", "141942.400000", "141943.187500", "141943.975000", "141944.762500", "141945.552500", "141946.340000", "141947.127500", "141947.915000", "141948.705000", "141949.492500", "141950.280000", "141951.067500", "141951.857500", "141952.645000", "141953.432500", "141954.222500", "141955.010000", "141955.797500", "141956.585000", "141957.375000", "141958.162500", "141958.950000", "141959.737500", "142000.527500", "142001.315000", "142002.102500", "142002.890000", "142003.680000", "142004.467500", "142005.255000", "142006.042500", "142006.832500", "142007.620000", "142008.407500", "142009.195000", "142009.985000", "142010.772500", "142011.560000", "142012.350000", "142013.137500", "142013.925000", "142014.712500", "142015.502500", "142016.290000", "142017.077500", "142017.865000", "142018.655000", "142019.442500", "142020.230000", "142021.017500", "142021.807500", "142022.595000", "142023.382500", "142024.170000", "142024.960000", "142025.747500", "142026.535000", "142027.322500", "142028.112500", "142028.900000", "142029.687500", "142030.477500", "142031.265000", "142032.052500", "142032.840000", "142033.630000", "142034.417500", "142035.205000", "142035.992500", "142036.782500", "142037.570000", "142038.357500", "142039.145000", "142039.935000", "142040.722500", "142041.510000", "142042.297500", "142043.087500", "142043.875000", "142044.662500", "142045.450000", "142046.240000", "142047.027500", "142047.815000", "142048.605000", "142049.392500", "142050.180000", "142050.967500", "142051.757500", "142052.545000", "142053.332500", "142054.120000", "142054.910000", "142055.697500", "142056.485000", "142057.272500", "142058.062500", "142058.850000", "142059.637500", "142100.425000", "142101.215000", "142102.002500", "142102.790000", "142103.580000", "142104.367500", "142105.155000", "142105.942500", "142106.732500", "142107.520000", "142108.307500", "142109.095000", "142109.885000", "142110.672500", "142111.460000", "142112.247500", "142113.037500", "142113.825000", "142114.612500", "142115.400000", "142116.190000", "142116.977500", "142117.765000", "142118.552500", "142119.342500", "142120.130000", "142120.917500", "142121.707500", "142122.495000", "142123.282500", "142124.070000", "142124.860000", "142125.647500", "142126.435000", "142127.222500", "142128.012500", "142128.800000", "142129.587500", "142130.375000", "142131.165000", "142131.952500", "142132.740000", "142133.527500", "142134.317500", "142135.105000", "142135.892500", "142136.680000", "142137.470000", "142138.257500", "142139.045000", "142139.835000", "142140.622500", "142141.410000", "142142.197500", "142142.987500", "142143.775000", "142144.562500", "142145.350000", "142146.140000", "142146.927500", "142147.715000", "142148.502500", "142149.292500", "142150.080000", "142150.867500", "142151.655000", "142152.445000", "142153.232500", "142154.020000", "142154.807500", "142155.597500", "142156.385000", "142157.172500", "142157.962500", "142158.750000", "142159.537500", "142200.325000", "142201.115000", "142201.902500", "142202.690000", "142203.477500", "142204.267500", "142205.055000", "142205.842500", "142206.630000", "142207.420000", "142208.207500", "142208.995000", "142209.782500", "142210.572500", "142211.360000", "142212.147500", "142212.935000", "142213.725000", "142214.512500", "142215.300000", "142216.090000", "142216.877500", "142217.665000", "142218.452500", "142219.242500", "142220.030000", "142220.817500", "142221.605000", "142222.395000", "142223.182500", "142223.970000", "142224.757500", "142225.547500", "142226.335000", "142227.122500", "142227.910000", "142228.700000", "142229.487500", "142230.275000", "142231.062500", "142231.852500", "142232.640000", "142233.427500", "142234.217500", "142235.005000", "142235.792500", "142236.580000", "142237.370000", "142238.157500", "142238.945000", "142239.732500", "142240.522500", "142241.310000", "142242.097500", "142242.885000", "142243.675000", "142244.462500", "142245.250000", "142246.037500", "142246.827500", "142247.615000", "142248.402500", "142249.190000", "142249.980000", "142250.767500", "142251.555000", "142252.345000", "142253.132500", "142253.920000", "142254.707500", "142255.497500", "142256.285000", "142257.072500", "142257.860000", "142258.650000", "142259.437500", "142300.225000", "142301.012500", "142301.802500", "142302.590000", "142303.377500", "142304.165000", "142304.955000", "142305.742500", "142306.530000", "142307.317500", "142308.107500", "142308.895000", "142309.682500", "142310.472500", "142311.260000", "142312.047500", "142312.835000", "142313.625000", "142314.412500", "142315.200000", "142315.987500", "142316.777500", "142317.565000", "142318.352500", "142319.140000", "142319.930000", "142320.717500", "142321.505000", "142322.292500", "142323.082500", "142323.870000", "142324.657500", "142325.445000", "142326.235000", "142327.022500", "142327.810000", "142328.600000", "142329.387500", "142330.175000", "142330.962500", "142331.752500", "142332.540000", "142333.327500", "142334.115000", "142334.905000", "142335.692500", "142336.480000", "142337.267500", "142338.057500", "142338.845000", "142339.632500", "142340.420000", "142341.210000", "142341.997500", "142342.785000", "142343.572500", "142344.362500", "142345.150000", "142345.937500", "142346.727500", "142347.515000", "142348.302500", "142349.090000", "142349.880000", "142350.667500", "142351.455000", "142352.242500", "142353.032500", "142353.820000", "142354.607500", "142355.395000", "142356.185000", "142356.972500", "142357.760000", "142358.547500", "142359.337500", "142400.125000", "142400.912500", "142401.700000", "142402.490000", "142403.277500", "142404.065000", "142404.855000", "142405.642500", "142406.430000", "142407.217500", "142408.007500", "142408.795000", "142409.582500", "142410.370000", "142411.160000", "142411.947500", "142412.735000", "142413.522500", "142414.312500", "142415.100000", "142415.887500", "142416.675000", "142417.465000", "142418.252500", "142419.040000", "142419.830000", "142420.617500", "142421.405000", "142422.192500", "142422.982500", "142423.770000", "142424.557500", "142425.345000", "142426.135000", "142426.922500", "142427.710000", "142428.497500", "142429.287500", "142430.075000", "142430.862500", "142431.650000", "142432.440000", "142433.227500", "142434.015000", "142434.802500", "142435.592500", "142436.380000", "142437.167500", "142437.957500", "142438.745000", "142439.532500", "142440.320000", "142441.110000", "142441.897500", "142442.685000", "142443.472500", "142444.262500", "142445.050000", "142445.837500", "142446.625000", "142447.415000", "142448.202500", "142448.990000", "142449.777500", "142450.567500", "142451.355000", "142452.142500", "142452.930000", "142453.720000", "142454.507500", "142455.295000", "142456.085000", "142456.872500", "142457.660000", "142458.447500", "142459.237500", "142500.025000", "142500.812500", "142501.600000", "142502.390000", "142503.177500", "142503.965000", "142504.752500", "142505.542500", "142506.330000", "142507.117500", "142507.905000", "142508.695000", "142509.482500", "142510.270000", "142511.057500", "142511.847500", "142512.635000", "142513.422500", "142514.212500", "142515.000000", "142515.787500", "142516.575000", "142517.365000", "142518.152500", "142518.940000", "142519.727500", "142520.517500", "142521.305000", "142522.092500", "142522.880000", "142523.670000", "142524.457500", "142525.245000", "142526.032500", "142526.822500", "142527.610000", "142528.397500", "142529.185000", "142529.975000", "142530.762500", "142531.550000", "142532.340000", "142533.127500", "142533.915000", "142534.702500", "142535.492500", "142536.280000", "142537.067500", "142537.855000", "142538.645000", "142539.432500", "142540.220000", "142541.007500", "142541.797500", "142542.585000", "142543.372500", "142544.160000", "142544.950000", "142545.737500", "142546.525000", "142547.312500", "142548.102500", "142548.890000", "142549.677500", "142550.467500", "142551.255000", "142552.042500", "142552.830000", "142553.620000", "142554.407500", "142555.195000", "142555.982500", "142556.772500", "142557.560000", "142558.347500", "142559.135000", "142559.925000", "142600.712500", "142601.500000", "142602.287500", "142603.077500", "142603.865000", "142604.652500", "142605.440000", "142606.230000", "142607.017500", "142607.805000", "142608.595000", "142609.382500", "142610.170000", "142610.957500", "142611.747500", "142612.535000", "142613.322500", "142614.110000", "142614.900000", "142615.687500", "142616.475000", "142617.262500", "142618.052500", "142618.840000", "142619.627500", "142620.415000", "142621.205000", "142621.992500", "142622.780000", "142623.567500", "142624.357500", "142625.145000", "142625.932500", "142626.722500", "142627.510000", "142628.297500", "142629.085000", "142629.875000", "142630.662500", "142631.450000", "142632.237500", "142633.027500", "142633.815000", "142634.602500", "142635.390000", "142636.180000", "142636.967500", "142637.755000", "142638.542500", "142639.332500", "142640.120000", "142640.907500", "142641.695000", "142642.485000", "142643.272500", "142644.060000", "142644.850000", "142645.637500", "142646.425000", "142647.212500", "142648.002500", "142648.790000", "142649.577500", "142650.365000", "142651.155000", "142651.942500", "142652.730000", "142653.517500", "142654.307500", "142655.095000", "142655.882500", "142656.670000", "142657.460000", "142658.247500", "142659.035000", "142659.822500", "142700.612500", "142701.400000", "142702.187500", "142702.977500", "142703.765000", "142704.552500", "142705.340000", "142706.130000", "142706.917500", "142707.705000", "142708.492500", "142709.282500", "142710.070000", "142710.857500", "142711.645000", "142712.435000", "142713.222500", "142714.010000", "142714.797500", "142715.587500", "142716.375000", "142717.162500", "142717.950000", "142718.740000", "142719.527500", "142720.315000", "142721.105000", "142721.892500", "142722.680000", "142723.467500", "142724.257500", "142725.045000", "142725.832500", "142726.620000", "142727.410000", "142728.197500", "142728.985000", "142729.772500", "142730.562500", "142731.350000", "142732.137500", "142732.925000", "142733.715000", "142734.502500", "142735.290000", "142736.080000", "142736.867500", "142737.655000", "142738.442500", "142739.232500", "142740.020000", "142740.807500", "142741.595000", "142742.385000", "142743.172500", "142743.960000", "142744.747500", "142745.537500", "142746.325000", "142747.112500", "142747.900000", "142748.690000", "142749.477500", "142750.265000", "142751.052500", "142751.842500", "142752.630000", "142753.417500", "142754.207500", "142754.995000", "142755.782500", "142756.570000", "142757.360000", "142758.147500", "142758.935000", "142759.722500", "142800.512500", "142801.300000", "142802.087500", "142802.875000", "142803.665000", "142804.452500", "142805.240000", "142806.027500", "142806.817500", "142807.605000", "142808.392500", "142809.180000", "142809.970000", "142810.757500", "142811.545000", "142812.335000", "142813.122500", "142813.910000", "142814.697500", "142815.487500", "142816.275000", "142817.062500", "142817.850000", "142818.640000", "142819.427500", "142820.215000", "142821.002500", "142821.792500", "142822.580000", "142823.367500", "142824.155000", "142824.945000", "142825.732500", "142826.520000", "142827.307500", "142828.097500", "142828.885000", "142829.672500", "142830.462500", "142831.250000", "142832.037500", "142832.825000", "142833.615000", "142834.402500", "142835.190000", "142835.977500", "142836.767500", "142837.555000", "142838.342500", "142839.130000", "142839.920000", "142840.707500", "142841.495000", "142842.282500", "142843.072500", "142843.860000", "142844.647500", "142845.435000", "142846.225000", "142847.012500", "142847.800000", "142848.590000", "142849.377500", "142850.165000", "142850.952500", "142851.742500", "142852.530000", "142853.317500", "142854.105000", "142854.895000", "142855.682500", "142856.470000", "142857.257500", "142858.047500", "142858.835000", "142859.622500", "142900.410000", "142901.200000", "142901.987500", "142902.775000", "142903.562500", "142904.352500", "142905.140000", "142905.927500", "142906.717500", "142907.505000", "142908.292500", "142909.080000", "142909.870000", "142910.657500", "142911.445000", "142912.232500", "142913.022500", "142913.810000", "142914.597500", "142915.385000", "142916.175000", "142916.962500", "142917.750000", "142918.537500", "142919.327500", "142920.115000", "142920.902500", "142921.690000", "142922.480000", "142923.267500", "142924.055000", "142924.845000", "142925.632500", "142926.420000", "142927.207500", "142927.997500", "142928.785000", "142929.572500", "142930.360000", "142931.150000", "142931.937500", "142932.725000", "142933.512500", "142934.302500", "142935.090000", "142935.877500", "142936.665000", "142937.455000", "142938.242500", "142939.030000", "142939.817500", "142940.607500", "142941.395000", "142942.182500", "142942.972500", "142943.760000", "142944.547500", "142945.335000", "142946.125000", "142946.912500", "142947.700000", "142948.487500", "142949.277500", "142950.065000", "142950.852500", "142951.640000", "142952.430000", "142953.217500", "142954.005000", "142954.792500", "142955.582500", "142956.370000", "142957.157500", "142957.945000", "142958.735000", "142959.522500", "143000.310000", "143001.100000", "143001.887500", "143002.675000", "143003.462500", "143004.252500", "143005.040000", "143005.827500", "143006.615000", "143007.405000", "143008.192500", "143008.980000", "143009.767500", "143010.557500", "143011.345000", "143012.132500", "143012.920000", "143013.710000", "143014.497500", "143015.285000", "143016.072500", "143016.862500", "143017.650000", "143018.437500", "143019.227500", "143020.015000", "143020.802500", "143021.590000", "143022.380000", "143023.167500", "143023.955000", "143024.742500", "143025.532500", "143026.320000", "143027.107500", "143027.895000", "143028.685000", "143029.472500", "143030.260000", "143031.047500", "143031.837500", "143032.625000", "143033.412500", "143034.200000", "143034.990000", "143035.777500", "143036.565000", "143037.355000", "143038.142500", "143038.930000", "143039.717500", "143040.507500", "143041.295000", "143042.082500", "143042.870000", "143043.660000", "143044.447500", "143045.235000", "143046.022500", "143046.812500", "143047.600000", "143048.387500", "143049.175000", "143049.965000", "143050.752500", "143051.540000", "143052.330000", "143053.117500", "143053.905000", "143054.692500", "143055.482500", "143056.270000", "143057.057500", "143057.845000", "143058.635000", "143059.422500", "143100.210000", "143100.997500", "143101.787500", "143102.575000", "143103.362500", "143104.150000", "143104.940000", "143105.727500", "143106.515000", "143107.302500", "143108.092500", "143108.880000", "143109.667500", "143110.457500", "143111.245000", "143112.032500", "143112.820000", "143113.610000", "143114.397500", "143115.185000", "143115.972500", "143116.762500", "143117.550000", "143118.337500", "143119.125000", "143119.915000", "143120.702500", "143121.490000", "143122.277500", "143123.067500", "143123.855000", "143124.642500", "143125.430000", "143126.220000", "143127.007500", "143127.795000", "143128.585000", "143129.372500", "143130.160000", "143130.947500", "143131.737500", "143132.525000", "143133.312500", "143134.100000", "143134.890000", "143135.677500", "143136.465000", "143137.252500", "143138.042500", "143138.830000", "143139.617500", "143140.405000", "143141.195000", "143141.982500", "143142.770000", "143143.557500", "143144.347500", "143145.135000", "143145.922500", "143146.712500", "143147.500000", "143148.287500", "143149.075000", "143149.865000", "143150.652500", "143151.440000", "143152.227500", "143153.017500", "143153.805000", "143154.592500", "143155.380000", "143156.170000", "143156.957500", "143157.745000", "143158.532500", "143159.322500", "143200.110000", "143200.897500", "143201.685000", "143202.475000", "143203.262500", "143204.050000", "143204.840000", "143205.627500", "143206.415000"],
