{
  "AcquisitionMatrixPE": 104,
  "AcquisitionNumber": 1,
  "AcquisitionTime": "15:44:40.965000",
  "BandwidthPerPixelPhaseEncode": 13.935,
  "BaseResolution": 104,
  "CoilString": "C:HEA;HEP",
  "ConversionSoftware": "dcm2niix",
  "ConversionSoftwareVersion": "v1.0.20210317",
  "DerivedVendorReportedEchoSpacing": 0.000690017,
  "DeviceSerialNumber": "35450",
  "DwellTime": 2.5e-06,
  "EchoTime": 0.0348,
  "EffectiveEchoSpacing": 0.000690017,
  "FlipAngle": 55,
  "ImageComments": "Unaliased MB8/PE3 (remote)",
  "ImageOrientationPatientDICOM": [0.999874, 0.00174098, 0.0157718, -2.87278e-08, 0.993963, -0.109718],
  "ImageType": [
    "ORIGINAL",
    "PRIMARY",
    "M",
    "MB",
    "ND",
    "MOSAIC"
],
  "ImagingFrequency": 123.235,
  "InPlanePhaseEncodingDirectionDICOM": "COL",
  "InstitutionAddress": "Univeristy Ave. 197,Newark,North East,US,07102-1814",
  "InstitutionName": "RUBIC",
  "InstitutionalDepartmentName": "Department",
  "MRAcquisitionType": "2D",
  "MagneticFieldStrength": 3,
  "Manufacturer": "Siemens",
  "ManufacturersModelName": "TrioTim",
  "Modality": "MR",
  "MultibandAccelerationFactor": 8,
  "PartialFourier": 0.875,
  "PatientPosition": "HFS",
  "PercentPhaseFOV": 100,
  "PercentSampling": 100,
  "PhaseEncodingDirection": "j-",
  "PhaseEncodingSteps": 91,
  "PhaseResolution": 1,
  "PixelBandwidth": 1923,
  "ProcedureStepDescription": "Cole^Michael",
  "ProtocolName": "cmrr_mbep2d_bold_2mm_MB8_Task_8x",
  "PulseSequenceDetails": "%CustomerSeq%\\cmrr_mbep2d_bold",
  "ReceiveCoilName": "32Ch_Head",
  "ReconMatrixPE": 104,
  "RepetitionTime": 0.785,
  "SAR": 0.137598,
  "ScanOptions": "PFP\\FS",
  "ScanningSequence": "EP",
  "SequenceName": "epfid2d1_104",
  "SequenceVariant": "SK\\SS",
  "SeriesDescription": "cmrr_mbep2d_bold_2mm_MB8_Task_8x",
  "SeriesNumber": 13,
  "ShimSetting": [2093, -472, -7297, 678, -4, -438, -102, -40],
  "SliceThickness": 2,
  "SliceTiming": [0, 0.4375, 0.0875, 0.525, 0.175, 0.6125, 0.2625, 0.7, 0.35, 0, 0.4375, 0.0875, 0.525, 0.175, 0.6125, 0.2625, 0.7, 0.35, 0, 0.4375, 0.0875, 0.525, 0.175, 0.6125, 0.2625, 0.7, 0.35, 0, 0.4375, 0.0875, 0.525, 0.175, 0.6125, 0.2625, 0.7, 0.35, 0, 0.4375, 0.0875, 0.525, 0.175, 0.6125, 0.2625, 0.7, 0.35, 0, 0.4375, 0.0875, 0.525, 0.175, 0.6125, 0.2625, 0.7, 0.35, 0, 0.4375, 0.0875, 0.525, 0.175, 0.6125, 0.2625, 0.7, 0.35, 0, 0.4375, 0.0875, 0.525, 0.175, 0.6125, 0.2625, 0.7, 0.35],
  "SoftwareVersions": "syngo MR B19",
  "SpacingBetweenSlices": 2,
  "StationName": "MRC35450",
  "TaskName": "cpro",
  "TotalReadoutTime": 0.0710717,
  "TxRefAmp": 355.164,
  "dcmmeta_affine": [
    [-1.9997482299804688, -5.745553366409695e-08, 0.03173511102795601, 106.8963394165039],
    [-0.003481964347884059, 1.9879255294799805, -0.21940800547599792, -80.91150665283203],
    [0.031543511897325516, 0.21943563222885132, 1.9876753091812134, -100.34929656982422],
    [0.0, 0.0, 0.0, 1.0]
],
  "dcmmeta_reorient_transform": [
    [0.0, -1.0, 0.0, 103.0],
    [1.0, 0.0, 0.0, 0.0],
    [0.0, 0.0, 1.0, 0.0],
    [0.0, 0.0, 0.0, 1.0]
],
  "dcmmeta_shape": [104, 104, 72, 581],
  "dcmmeta_slice_dim": 2,
  "dcmmeta_version": 0.6,
  "global": {
    "const": {
      "AcquisitionMatrix": [104, 0, 0, 104],
      "AngioFlag": "N",
      "BitsAllocated": 16,
      "BitsStored": 12,
      "Columns": 936,
      "EchoNumbers": 1,
      "EchoTime": 34.8,
      "EchoTrainLength": 1,
      "FlipAngle": 55.0,
      "HighBit": 11,
      "ImageOrientationPatient": [0.9998741024139, 0.0017409821262, 0.01577175650466, -2.8727766e-08, 0.99396277621545, -0.1097178175962],
      "ImagePositionPatient": [-938.79156347407, -952.27035522844, 0.41569854547998],
      "ImageType": [
        "ORIGINAL",
        "PRIMARY",
        "M",
        "MB",
        "ND",
        "MOSAIC"
],
      "ImagedNucleus": "1H",
      "ImagingFrequency": 123.234947,
      "InPlanePhaseEncodingDirection": "COL",
      "MRAcquisitionType": "2D",
      "MagneticFieldStrength": 3.0,
      "Manufacturer": "SIEMENS",
      "ManufacturerModelName": "TrioTim",
      "Modality": "MR",
      "NumberOfAverages": 1.0,
      "NumberOfPhaseEncodingSteps": 91,
      "PercentPhaseFieldOfView": 100.0,
      "PercentSampling": 100.0,
      "PerformedProcedureStepStartTime": "142802.015000",
      "PhotometricInterpretation": "MONOCHROME2",
      "PixelBandwidth": 1923.0,
      "PixelRepresentation": 0,
      "PixelSpacing": [2.0, 2.0],
      "ProtocolName": "cmrr_mbep2d_bold_2mm_MB8_Task_8x",
      "RepetitionTime": 785.0,
      "Rows": 936,
      "SAR": 0.13759847412208,
      "SamplesPerPixel": 1,
      "ScanOptions": [
        "PFP",
        "FS"
],
      "ScanningSequence": "EP",
      "SequenceName": "epfid2d1_104",
      "SequenceVariant": [
        "SK",
        "SS"
],
      "SeriesDescription": "cmrr_mbep2d_bold_2mm_MB8_Task_8x",
      "SeriesNumber": 13,
      "SeriesTime": "154502.593000",
      "SliceLocation": -89.158406567778,
      "SliceThickness": 2.0,
      "SmallestImagePixelValue": 0,
      "SoftwareVersions": "syngo MR B19",
      "SpacingBetweenSlices": 1.9999999737706,
      "SpecificCharacterSet": "ISO_IR 100",
      "StudyID": "1",
      "StudyTime": "142801.984000",
      "TransmitCoilName": "Body",
      "VariableFlipAngleFlag": "N",
      "WindowCenterWidthExplanation": "Algo1",
      "dBdt": 0.0},
    "slices": {}
  },
  "time": {
    "samples": {
      "AcquisitionNumber": [1, 2, 3, 4, 5, 6, 7, 8, 9, 10, 11, 12, 13, 14, 15, 16, 17, 18, 19, 20, 21, 22, 23, 24, 25, 26, 27, 28, 29, 30, 31, 32, 33, 34, 35, 36, 37, 38, 39, 40, 41, 42, 43, 44, 45, 46, 47, 48, 49, 50, 51, 52, 53, 54, 55, 56, 57, 58, 59, 60, 61, 62, 63, 64, 65, 66, 67, 68, 69, 70, 71, 72, 73, 74, 75, 76, 77, 78, 79, 80, 81, 82, 83, 84, 85, 86, 87, 88, 89, 90, 91, 92, 93, 94, 95, 96, 97, 98, 99, 100, 101, 102, 103, 104, 105, 106, 107, 108, 109, 110, 111, 112, 113, 114, 115, 116, 117, 118, 119, 120, 121, 122, 123, 124, 125, 126, 127, 128, 129, 130, 131, 132, 133, 134, 135, 136, 137, 138, 139, 140, 141, 142, 143, 144, 145, 146, 147, 148, 149, 150, 151, 152, 153, 154, 155, 156, 157, 158, 159, 160, 161, 162, 163, 164, 165, 166, 167, 168, 169, 170, 171, 172, 173, 174, 175, 176, 177, 178, 179, 180, 181, 182, 183, 184, 185, 186, 187, 188, 189, 190, 191, 192, 193, 194, 195, 196, 197, 198, 199, 200, 201, 202, 203, 204, 205, 206, 207, 208, 209, 210, 211, 212, 213, 214, 215, 216, 217, 218, 219, 220, 221, 222, 223, 224, 225, 226, 227, 228, 229, 230, 231, 232, 233, 234, 235, 236, 237, 238, 239, 240, 241, 242, 243, 244, 245, 246, 247, 248, 249, 250, 251, 252, 253, 254, 255, 256, 257, 258, 259, 260, 261, 262, 263, 264, 265, 266, 267, 268, 269, 270, 271, 272, 273, 274, 275, 276, 277, 278, 279, 280, 281, 282, 283, 284, 285, 286, 287, 288, 289, 290, 291, 292, 293, 294, 295, 296, 297, 298, 299, 300, 301, 302, 303, 304, 305, 306, 307, 308, 309, 310, 311, 312, 313, 314, 315, 316, 317, 318, 319, 320, 321, 322, 323, 324, 325, 326, 327, 328, 329, 330, 331, 332, 333, 334, 335, 336, 337, 338, 339, 340, 341, 342, 343, 344, 345, 346, 347, 348, 349, 350, 351, 352, 353, 354, 355, 356, 357, 358, 359, 360, 361, 362, 363, 364, 365, 366, 367, 368, 369, 370, 371, 372, 373, 374, 375, 376, 377, 378, 379, 380, 381, 382, 383, 384, 385, 386, 387, 388, 389, 390, 391, 392, 393, 394, 395, 396, 397, 398, 399, 400, 401, 402, 403, 404, 405, 406, 407, 408, 409, 410, 411, 412, 413, 414, 415, 416, 417, 418, 419, 420, 421, 422, 423, 424, 425, 426, 427, 428, 429, 430, 431, 432, 433, 434, 435, 436, 437, 438, 439, 440, 441, 442, 443, 444, 445, 446, 447, 448, 449, 450, 451, 452, 453, 454, 455, 456, 457, 458, 459, 460, 461, 462, 463, 464, 465, 466, 467, 468, 469, 470, 471, 472, 473, 474, 475, 476, 477, 478, 479, 480, 481, 482, 483, 484, 485, 486, 487, 488, 489, 490, 491, 492, 493, 494, 495, 496, 497, 498, 499, 500, 501, 502, 503, 504, 505, 506, 507, 508, 509, 510, 511, 512, 513, 514, 515, 516, 517, 518, 519, 520, 521, 522, 523, 524, 525, 526, 527, 528, 529, 530, 531, 532, 533, 534, 535, 536, 537, 538, 539, 540, 541, 542, 543, 544, 545, 546, 547, 548, 549, 550, 551, 552, 553, 554, 555, 556, 557, 558, 559, 560, 561, 562, 563, 564, 565, 566, 567, 568, 569, 570, 571, 572, 573, 574, 575, 576, 577, 578, 579, 580, 581],
      "AcquisitionTime": ["154440.965000", "154441.752500", "154442.540000", "154443.330000", "154444.117500", "154444.905000", "154445.692500", "154446.482500", "154447.270000", "154448.057500", "154448.845000", "154449.635000", "154450.422500", "154451.210000", "154451.997500", "154452.787500", "154453.575000", "154454.362500", "154455.150000", "154455.940000", "154456.727500", "154457.515000", "154458.302500", "154459.092500", "154459.880000", "154500.667500", "154501.457500", "154502.245000", "154503.032500", "154503.820000", "154504.610000", "154505.397500", "154506.185000", "154506.972500", "154507.762500", "154508.550000", "154509.337500", "154510.125000", "154510.915000", "154511.702500", "154512.490000", "154513.277500", "154514.067500", "154514.855000", "154515.642500", "154516.430000", "154517.220000", "154518.007500", "154518.795000", "154519.585000", "154520.372500", "154521.160000", "154521.947500", "154522.737500", "154523.525000", "154524.312500", "154525.100000", "154525.890000", "154526.677500", "154527.465000", "154528.252500", "154529.042500", "154529.830000", "154530.617500", "154531.405000", "154532.195000", "154532.982500", "154533.770000", "154534.557500", "154535.347500", "154536.135000", "154536.922500", "154537.712500", "154538.500000", "154539.287500", "154540.075000", "154540.865000", "154541.652500", "154542.440000", "154543.227500", "154544.017500", "154544.805000", "154545.592500", "154546.380000", "154547.170000", "154547.957500", "154548.745000", "154549.532500", "154550.322500", "154551.110000", "154551.897500", "154552.685000", "154553.475000", "154554.262500", "154555.050000", "154555.840000", "154556.627500", "154557.415000", "154558.202500", "154558.992500", "154559.780000", "154600.567500", "154601.355000", "154602.145000", "154602.932500", "154603.720000", "154604.507500", "154605.297500", "154606.085000", "154606.872500", "154607.660000", "154608.450000", "154609.237500", "154610.025000", "154610.812500", "154611.602500", "154612.390000", "154613.177500", "154613.967500", "154614.755000", "154615.542500", "154616.330000", "154617.120000", "154617.907500", "154618.695000", "154619.482500", "154620.272500", "154621.060000", "154621.847500", "154622.635000", "154623.425000", "154624.212500", "154625.000000", "154625.787500", "154626.577500", "154627.365000", "154628.152500", "154628.940000", "154629.730000", "154630.517500", "154631.305000", "154632.095000", "154632.882500", "154633.670000", "154634.457500", "154635.247500", "154636.035000", "154636.822500", "154637.610000", "154638.400000", "154639.187500", "154639.975000", "154640.762500", "154641.552500", "154642.340000", "154643.127500", "154643.915000", "154644.705000", "154645.492500", "154646.280000", "154647.067500", "154647.857500", "154648.645000", "154649.432500", "154650.222500", "154651.010000", "154651.797500", "154652.585000", "154653.375000", "154654.162500", "154654.950000", "154655.737500", "154656.527500", "154657.315000", "154658.102500", "154658.890000", "154659.680000", "154700.467500", "154701.255000", "154702.042500", "154702.832500", "154703.620000", "154704.407500", "154705.195000", "154705.985000", "154706.772500", "154707.560000", "154708.350000", "154709.137500", "154709.925000", "154710.712500", "154711.502500", "154712.290000", "154713.077500", "154713.865000", "154714.655000", "154715.442500", "154716.230000", "154717.017500", "154717.807500", "154718.595000", "154719.382500", "154720.170000", "154720.960000", "154721.747500", "154722.535000", "154723.325000", "154724.112500", "154724.900000", "154725.687500", "154726.477500", "154727.265000", "154728.052500", "154728.840000", "154729.630000", "154730.417500", "154731.205000", "154731.992500", "154732.782500", "154733.570000", "154734.357500", "154735.145000", "154735.935000", "154736.722500", "154737.510000", "154738.297500", "154739.087500", "154739.875000", "154740.662500", "154741.452500", "154742.240000", "154743.027500", "154743.815000", "154744.605000", "154745.392500", "154746.180000", "154746.967500", "154747.757500", "154748.545000", "154749.332500", "154750.120000", "154750.910000", "154751.697500", "154752.485000", "154753.272500", "154754.062500", "154754.850000", "154755.637500", "154756.425000", "154757.215000", "154758.002500", "154758.790000", "154759.580000", "154800.367500", "154801.155000", "154801.942500", "154802.732500", "154803.520000", "154804.307500", "154805.095000", "154805.885000", "154806.672500", "154807.460000", "154808.247500", "154809.037500", "154809.825000", "154810.612500", "154811.400000", "154812.190000", "154812.977500", "154813.765000", "154814.552500", "154815.342500", "154816.130000", "154816.917500", "154817.707500", "154818.495000", "154819.282500", "154820.070000", "154820.860000", "154821.647500", "154822.435000", "154823.222500", "154824.012500", "154824.800000", "154825.587500", "154826.375000", "154827.165000", "154827.952500", "154828.740000", "154829.527500", "154830.317500", "154831.105000", "154831.892500", "154832.680000", "154833.470000", "154834.257500", "154835.045000", "154835.835000", "154836.622500", "154837.410000", "154838.197500", "154838.987500", "154839.775000", "154840.562500", "154841.350000", "154842.140000", "154842.927500", "154843.715000", "154844.502500", "154845.292500", "154846.080000", "154846.867500", "154847.655000", "154848.445000", "154849.232500", "154850.020000", "154850.807500", "154851.597500", "154852.385000", "154853.172500", "154853.962500", "154854.750000", "154855.537500", "154856.325000", "154857.115000", "154857.902500", "154858.690000", "154859.477500", "154900.267500", "154901.055000", "154901.842500", "154902.630000", "154903.420000", "154904.207500", "154904.995000", "154905.782500", "154906.572500", "154907.360000", "154908.147500", "154908.935000", "154909.725000", "154910.512500", "154911.300000", "154912.090000", "154912.877500", "154913.665000", "154914.452500", "154915.242500", "154916.030000", "154916.817500", "154917.605000", "154918.395000", "154919.182500", "154919.970000", "154920.757500", "154921.547500", "154922.335000", "154923.122500", "154923.910000", "154924.700000", "154925.487500", "154926.275000", "154927.062500", "154927.852500", "154928.640000", "154929.427500", "154930.217500", "154931.005000", "154931.792500", "154932.580000", "154933.370000", "154934.157500", "154934.945000", "154935.732500", "154936.522500", "154937.310000", "154938.097500", "154938.885000", "154939.675000", "154940.462500", "154941.250000", "154942.037500", "154942.827500", "154943.615000", "154944.402500", "154945.190000", "154945.980000", "154946.767500", "154947.555000", "154948.345000", "154949.132500", "154949.920000", "154950.707500", "154951.497500", "154952.285000", "154953.072500", "154953.860000", "154954.650000", "154955.437500", "154956.225000", "154957.012500", "154957.802500", "154958.590000", "154959.377500", "155000.165000", "155000.955000", "155001.742500", "155002.530000", "155003.317500", "155004.107500", "155004.895000", "155005.682500", "155006.472500", "155007.260000", "155008.047500", "155008.835000", "155009.625000", "155010.412500", "155011.200000", "155011.987500", "155012.777500", "155013.565000", "155014.352500", "155015.140000", "155015.930000", "155016.717500", "155017.505000", "155018.292500", "155019.082500", "155019.870000", "155020.657500", "155021.445000", "155022.235000", "155023.022500", "155023.810000", "155024.600000", "155025.387500", "155026.175000", "155026.962500", "155027.752500", "155028.540000", "155029.327500", "155030.115000", "155030.905000", "155031.692500", "155032.480000", "155033.267500", "155034.057500", "155034.845000", "155035.632500", "155036.420000", "155037.210000", "155037.997500", "155038.785000", "155039.575000", "155040.362500", "155041.150000", "155041.937500", "155042.727500", "155043.515000", "155044.302500", "155045.090000", "155045.880000", "155046.667500", "155047.455000", "155048.242500", "155049.032500", "155049.820000", "155050.607500", "155051.395000", "155052.185000", "155052.972500", "155053.760000", "155054.547500", "155055.337500", "155056.125000", "155056.912500", "155057.702500", "155058.490000", "155059.277500", "155100.065000", "155100.855000", "155101.642500", "155102.430000", "155103.217500", "155104.007500", "155104.795000", "155105.582500", "155106.370000", "155107.160000", "155107.947500", "155108.735000", "155109.522500", "155110.312500", "155111.100000", "155111.887500", "155112.675000", "155113.465000", "155114.252500", "155115.040000", "155115.830000", "155116.617500", "155117.405000", "155118.192500", "155118.982500", "155119.770000", "155120.557500", "155121.345000", "155122.135000", "155122.922500", "155123.710000", "155124.497500", "155125.287500", "155126.075000", "155126.862500", "155127.650000", "155128.440000", "155129.227500", "155130.015000", "155130.802500", "155131.592500", "155132.380000", "155133.167500", "155133.957500", "155134.745000", "155135.532500", "155136.320000", "155137.110000", "155137.897500", "155138.685000", "155139.472500", "155140.262500", "155141.050000", "155141.837500", "155142.625000", "155143.415000", "155144.202500", "155144.990000", "155145.777500", "155146.567500", "155147.355000", "155148.142500", "155148.930000", "155149.720000", "155150.507500", "155151.295000", "155152.085000", "155152.872500", "155153.660000", "155154.447500", "155155.237500", "155156.025000", "155156.812500", "155157.600000", "155158.390000", "155159.177500", "155159.965000", "155200.752500", "155201.542500", "155202.330000", "155203.117500", "155203.905000", "155204.695000", "155205.482500", "155206.270000", "155207.057500", "155207.847500", "155208.635000", "155209.422500", "155210.212500", "155211.000000", "155211.787500", "155212.575000", "155213.365000", "155214.152500", "155214.940000", "155215.727500", "155216.517500", "155217.305000", "155218.092500"],
      "ContentTime": ["154502.609000", "154502.609000", "154502.609000", "154502.609000", "154502.609000", "154502.609000", "154502.609000", "154502.625000", "154502.625000", "154502.625000", "154502.625000", "154502.625000", "154502.625000", "154502.625000", "154502.640000", "154502.640000", "154502.640000", "154502.640000", "154502.640000", "154502.640000", "154502.640000", "154502.656000", "154502.656000", "154502.656000", "154502.656000", "154502.656000", "154522.562000", "154522.562000", "154522.562000", "154522.562000", "154522.578000", "154522.578000", "154522.578000", "154522.578000", "154522.578000", "154522.578000", "154522.593000", "154522.593000", "154522.593000", "154522.593000", "154522.593000", "154522.593000", "154522.593000", "154522.609000", "154522.609000", "154522.609000", "154522.609000", "154522.609000", "154522.609000", "154522.609000", "154522.625000", "154542.562000", "154542.562000", "154542.562000", "154542.562000", "154542.578000", "154542.578000", "154542.578000", "154542.578000", "154542.578000", "154542.578000", "154542.593000", "154542.593000", "154542.593000", "154542.593000", "154542.593000", "154542.593000", "154542.593000", "154542.609000", "154542.609000", "154542.609000", "154542.609000", "154542.609000", "154542.609000", "154542.609000", "154542.625000", "154542.625000", "154602.562000", "154602.562000", "154602.562000", "154602.562000", "154602.578000", "154602.578000", "154602.578000", "154602.578000", "154602.578000", "154602.578000", "154602.593000", "154602.593000", "154602.593000", "154602.593000", "154602.593000", "154602.593000", "154602.593000", "154602.609000", "154602.609000", "154602.609000", "154602.609000", "154602.609000", "154602.609000", "154602.609000", "154602.625000", "154622.562000", "154622.562000", "154622.562000", "154622.562000", "154622.578000", "154622.578000", "154622.578000", "154622.578000", "154622.578000", "154622.578000", "154622.593000", "154622.593000", "154622.593000", "154622.593000", "154622.593000", "154622.593000", "154622.593000", "154622.609000", "154622.609000", "154622.609000", "154622.609000", "154622.609000", "154622.609000", "154622.609000", "154622.625000", "154622.625000", "154642.562000", "154642.562000", "154642.562000", "154642.562000", "154642.578000", "154642.578000", "154642.578000", "154642.578000", "154642.578000", "154642.578000", "154642.593000", "154642.593000", "154642.593000", "154642.593000", "154642.609000", "154642.609000", "154642.609000", "154642.609000", "154642.609000", "154642.609000", "154642.609000", "154642.625000", "154642.625000", "154642.625000", "154642.625000", "154702.562000", "154702.562000", "154702.562000", "154702.562000", "154702.578000", "154702.578000", "154702.578000", "154702.578000", "154702.578000", "154702.578000", "154702.593000", "154702.593000", "154702.593000", "154702.593000", "154702.593000", "154702.593000", "154702.609000", "154702.609000", "154702.609000", "154702.609000", "154702.609000", "154702.609000", "154702.609000", "154702.625000", "154702.625000", "154722.562000", "154722.562000", "154722.562000", "154722.578000", "154722.578000", "154722.578000", "154722.578000", "154722.578000", "154722.593000", "154722.593000", "154722.593000", "154722.593000", "154722.593000", "154722.609000", "154722.609000", "154722.609000", "154722.609000", "154722.609000", "154722.625000", "154722.625000", "154722.625000", "154722.625000", "154722.625000", "154722.625000", "154722.625000", "154722.640000", "154742.562000", "154742.562000", "154742.562000", "154742.562000", "154742.578000", "154742.578000", "154742.578000", "154742.578000", "154742.578000", "154742.578000", "154742.593000", "154742.593000", "154742.593000", "154742.593000", "154742.593000", "154742.593000", "154742.593000", "154742.609000", "154742.609000", "154742.609000", "154742.609000", "154742.609000", "154742.609000", "154742.609000", "154742.625000", "154742.625000", "154802.562000", "154802.562000", "154802.562000", "154802.578000", "154802.578000", "154802.578000", "154802.578000", "154802.578000", "154802.578000", "154802.593000", "154802.593000", "154802.593000", "154802.593000", "154802.593000", "154802.593000", "154802.593000", "154802.609000", "154802.609000", "154802.609000", "154802.609000", "154802.609000", "154802.609000", "154802.609000", "154802.625000", "154802.625000", "154822.562000", "154822.562000", "154822.562000", "154822.578000", "154822.578000", "154822.578000", "154822.578000", "154822.593000", "154822.593000", "154822.593000", "154822.593000", "154822.609000", "154822.609000", "154822.609000", "154822.609000", "154822.609000", "154822.609000", "154822.609000", "154822.625000", "154822.625000", "154822.625000", "154822.625000", "154822.625000", "154822.625000", "154822.625000", "154842.562000", "154842.562000", "154842.562000", "154842.578000", "154842.578000", "154842.578000", "154842.578000", "154842.578000", "154842.578000", "154842.578000", "154842.593000", "154842.593000", "154842.593000", "154842.593000", "154842.593000", "154842.593000", "154842.593000", "154842.609000", "154842.609000", "154842.609000", "154842.609000", "154842.609000", "154842.609000", "154842.609000", "154842.625000", "154842.625000", "154902.562000", "154902.562000", "154902.578000", "154902.578000", "154902.578000", "154902.578000", "154902.578000", "154902.578000", "154902.578000", "154902.593000", "154902.593000", "154902.593000", "154902.593000", "154902.593000", "154902.609000", "154902.609000", "154902.609000", "154902.609000", "154902.609000", "154902.625000", "154902.625000", "154902.625000", "154902.625000", "154902.625000", "154902.640000", "154922.562000", "154922.562000", "154922.562000", "154922.562000", "154922.578000", "154922.578000", "154922.578000", "154922.578000", "154922.578000", "154922.578000", "154922.593000", "154922.593000", "154922.593000", "154922.593000", "154922.593000", "154922.593000", "154922.593000", "154922.609000", "154922.609000", "154922.609000", "154922.609000", "154922.609000", "154922.625000", "154922.625000", "154922.625000", "154922.625000", "154942.562000", "154942.562000", "154942.562000", "154942.562000", "154942.578000", "154942.578000", "154942.578000", "154942.578000", "154942.578000", "154942.578000", "154942.593000", "154942.593000", "154942.593000", "154942.593000", "154942.593000", "154942.593000", "154942.593000", "154942.609000", "154942.609000", "154942.609000", "154942.609000", "154942.609000", "154942.609000", "154942.625000", "154942.625000", "155002.562000", "155002.562000", "155002.562000", "155002.578000", "155002.578000", "155002.578000", "155002.578000", "155002.578000", "155002.578000", "155002.578000", "155002.593000", "155002.593000", "155002.593000", "155002.593000", "155002.593000", "155002.593000", "155002.593000", "155002.609000", "155002.609000", "155002.609000", "155002.609000", "155002.609000", "155002.609000", "155002.609000", "155002.625000", "155002.625000", "155022.562000", "155022.562000", "155022.562000", "155022.562000", "155022.578000", "155022.578000", "155022.578000", "155022.578000", "155022.578000", "155022.578000", "155022.593000", "155022.593000", "155022.593000", "155022.593000", "155022.593000", "155022.593000", "155022.593000", "155022.609000", "155022.609000", "155022.609000", "155022.609000", "155022.625000", "155022.625000", "155022.625000", "155022.625000", "155042.562000", "155042.562000", "155042.562000", "155042.562000", "155042.578000", "155042.578000", "155042.578000", "155042.578000", "155042.578000", "155042.578000", "155042.593000", "155042.593000", "155042.593000", "155042.593000", "155042.593000", "155042.593000", "155042.593000", "155042.609000", "155042.609000", "155042.609000", "155042.609000", "155042.609000", "155042.609000", "155042.609000", "155042.625000", "155042.625000", "155102.562000", "155102.562000", "155102.562000", "155102.562000", "155102.578000", "155102.578000", "155102.578000", "155102.578000", "155102.578000", "155102.578000", "155102.593000", "155102.593000", "155102.593000", "155102.593000", "155102.593000", "155102.593000", "155102.593000", "155102.609000", "155102.609000", "155102.609000", "155102.609000", "155102.609000", "155102.609000", "155102.609000", "155102.625000", "155122.562000", "155122.562000", "155122.562000", "155122.578000", "155122.578000", "155122.578000", "155122.578000", "155122.578000", "155122.593000", "155122.593000", "155122.593000", "155122.593000", "155122.593000", "155122.593000", "155122.593000", "155122.609000", "155122.609000", "155122.609000", "155122.609000", "155122.609000", "155122.609000", "155122.625000", "155122.625000", "155122.625000", "155122.625000", "155122.625000", "155142.562000", "155142.562000", "155142.562000", "155142.578000", "155142.578000", "155142.578000", "155142.578000", "155142.578000", "155142.578000", "155142.578000", "155142.593000", "155142.593000", "155142.593000", "155142.593000", "155142.593000", "155142.593000", "155142.593000", "155142.609000", "155142.609000", "155142.609000", "155142.609000", "155142.609000", "155142.609000", "155142.609000", "155142.625000", "155202.562000", "155202.562000", "155202.562000", "155202.578000", "155202.578000", "155202.578000", "155202.578000", "155202.578000", "155202.578000", "155202.593000", "155202.593000", "155202.593000", "155202.593000", "155202.593000", "155202.593000", "155202.593000", "155202.609000", "155202.609000", "155202.609000", "155202.609000", "155202.609000", "155202.609000", "155202.625000", "155202.625000", "155202.625000", "155202.625000", "155218.203000", "155218.203000", "155218.203000", "155218.218000", "155218.218000", "155218.218000", "155218.218000", "155218.218000", "155218.218000", "155218.218000", "155218.234000", "155218.234000", "155218.234000", "155218.234000", "155218.234000", "155218.234000", "155218.250000", "155218.250000", "155218.250000", "155218.250000"],
      "DataSetTrailingPadding": [
        "\u0000\u0000\u0000\u0000\u0000\u0000\u0000\u0000\u0000\u0000\u0000\u0000\u0000\u0000\u0000\u0000\u0000\u0000\u0000\u0000\u0000\u0000\u0000\u0000\u0000\u0000\u0000\u0000\u0000\u0000\u0000\u0000\u0000\u0000\u0000\u0000\u0000\u0000\u0000\u0000\u0000\u0000\u0000\u0000\u0000\u0000\u0000\u0000\u0000\u0000\u0000\u0000\u0000\u0000\u0000\u0000\u0000\u0000\u0000\u0000\u0000\u0000\u0000\u0000\u0000\u0000\u0000\u0000\u0000\u0000\u0000\u0000\u0000\u0000\u0000\u0000\u0000\u0000\u0000\u0000\u0000\u0000\u0000\u0000\u0000\u0000",
        "\u0000\u0000\u0000\u0000\u0000\u0000\u0000\u0000\u0000\u0000\u0000\u0000\u0000\u0000\u0000\u0000\u0000\u0000\u0000\u0000\u0000\u0000\u0000\u0000\u0000\u0000\u0000\u0000\u0000\u0000\u0000\u0000\u0000\u0000\u0000\u0000\u0000\u0000\u0000\u0000\u0000\u0000\u0000\u0000\u0000\u0000\u0000\u0000\u0000\u0000\u0000\u0000\u0000\u0000\u0000\u0000\u0000\u0000\u0000\u0000\u0000\u0000\u0000\u0000\u0000\u0000\u0000\u0000\u0000\u0000\u0000\u0000\u0000\u0000\u0000\u0000\u0000\u0000\u0000\u0000\u0000\u0000\u0000\u0000\u0000\u0000",
        "\u0000\u0000\u0000\u0000\u0000\u0000\u0000\u0000\u0000\u0000\u0000\u0000\u0000\u0000\u0000\u0000\u0000\u0000\u0000\u0000\u0000\u0000\u0000\u0000\u0000\u0000\u0000\u0000\u0000\u0000\u0000\u0000\u0000\u0000\u0000\u0000\u0000\u0000\u0000\u0000\u0000\u0000\u0000\u0000\u0000\u0000\u0000\u0000\u0000\u0000\u0000\u0000\u0000\u0000\u0000\u0000\u0000\u0000\u0000\u0000\u0000\u0000\u0000\u0000\u0000\u0000\u0000\u0000\u0000\u0000\u0000\u0000\u0000\u0000\u0000\u0000\u0000\u0000\u0000\u0000\u0000\u0000\u0000\u0000",
