{
  "AcquisitionMatrixPE": 104,
  "AcquisitionNumber": 1,
  "AcquisitionTime": "16:09:0.690000",
  "BandwidthPerPixelPhaseEncode": 13.935,
  "BaseResolution": 104,
  "CoilString": "C:HEA;HEP",
  "ConversionSoftware": "dcm2niix",
  "ConversionSoftwareVersion": "v1.0.20210317",
  "DerivedVendorReportedEchoSpacing": 0.000690017,
  "DeviceSerialNumber": "35450",
  "DwellTime": 2.5e-06,
  "EchoTime": 0.0348,
  "EffectiveEchoSpacing": 0.000690017,
  "FlipAngle": 55,
  "ImageComments": "Unaliased MB8/PE3 (remote)",
  "ImageOrientationPatientDICOM": [0.999874, 0.00174098, 0.0157718, -2.87278e-08, 0.993963, -0.109718],
  "ImageType": [
    "ORIGINAL",
    "PRIMARY",
    "M",
    "MB",
    "ND",
    "MOSAIC"
],
  "ImagingFrequency": 123.235,
  "InPlanePhaseEncodingDirectionDICOM": "COL",
  "InstitutionAddress": "Univeristy Ave. 197,Newark,North East,US,07102-1814",
  "InstitutionName": "RUBIC",
  "InstitutionalDepartmentName": "Department",
  "MRAcquisitionType": "2D",
  "MagneticFieldStrength": 3,
  "Manufacturer": "Siemens",
  "ManufacturersModelName": "TrioTim",
  "Modality": "MR",
  "MultibandAccelerationFactor": 8,
  "PartialFourier": 0.875,
  "PatientPosition": "HFS",
  "PercentPhaseFOV": 100,
  "PercentSampling": 100,
  "PhaseEncodingDirection": "j-",
  "PhaseEncodingSteps": 91,
  "PhaseResolution": 1,
  "PixelBandwidth": 1923,
  "ProcedureStepDescription": "Cole^Michael",
  "ProtocolName": "cmrr_mbep2d_bold_2mm_MB8_Task_8x",
  "PulseSequenceDetails": "%CustomerSeq%\\cmrr_mbep2d_bold",
  "ReceiveCoilName": "32Ch_Head",
  "ReconMatrixPE": 104,
  "RepetitionTime": 0.785,
  "SAR": 0.128784,
  "ScanOptions": "PFP\\FS",
  "ScanningSequence": "EP",
  "SequenceName": "epfid2d1_104",
  "SequenceVariant": "SK\\SS",
  "SeriesDescription": "cmrr_mbep2d_bold_2mm_MB8_Task_8x",
  "SeriesNumber": 19,
  "ShimSetting": [2093, -472, -7297, 678, -4, -438, -102, -40],
  "SliceThickness": 2,
  "SliceTiming": [0, 0.4375, 0.0875, 0.525, 0.175, 0.6125, 0.2625, 0.7, 0.35, 0, 0.4375, 0.0875, 0.525, 0.175, 0.6125, 0.2625, 0.7, 0.35, 0, 0.4375, 0.0875, 0.525, 0.175, 0.6125, 0.2625, 0.7, 0.35, 0, 0.4375, 0.0875, 0.525, 0.175, 0.6125, 0.2625, 0.7, 0.35, 0, 0.4375, 0.0875, 0.525, 0.175, 0.6125, 0.2625, 0.7, 0.35, 0, 0.4375, 0.0875, 0.525, 0.175, 0.6125, 0.2625, 0.7, 0.35, 0, 0.4375, 0.0875, 0.525, 0.175, 0.6125, 0.2625, 0.7, 0.35, 0, 0.4375, 0.0875, 0.525, 0.175, 0.6125, 0.2625, 0.7, 0.35],
  "SoftwareVersions": "syngo MR B19",
  "SpacingBetweenSlices": 2,
  "StationName": "MRC35450",
  "TaskName": "cpro",
  "TotalReadoutTime": 0.0710717,
  "TxRefAmp": 355.164,
  "dcmmeta_affine": [
    [-1.9997482299804688, -5.745553366409695e-08, 0.03173511102795601, 106.8963394165039],
    [-0.003481964347884059, 1.9879255294799805, -0.21940800547599792, -80.91150665283203],
    [0.031543511897325516, 0.21943563222885132, 1.9876753091812134, -100.34929656982422],
    [0.0, 0.0, 0.0, 1.0]
],
  "dcmmeta_reorient_transform": [
    [0.0, -1.0, 0.0, 103.0],
    [1.0, 0.0, 0.0, 0.0],
    [0.0, 0.0, 1.0, 0.0],
    [0.0, 0.0, 0.0, 1.0]
],
  "dcmmeta_shape": [104, 104, 72, 581],
  "dcmmeta_slice_dim": 2,
  "dcmmeta_version": 0.6,
  "global": {
    "const": {
      "AcquisitionMatrix": [104, 0, 0, 104],
      "AngioFlag": "N",
      "BitsAllocated": 16,
      "BitsStored": 12,
      "Columns": 936,
      "EchoNumbers": 1,
      "EchoTime": 34.8,
      "EchoTrainLength": 1,
      "FlipAngle": 55.0,
      "HighBit": 11,
      "ImageOrientationPatient": [0.9998741024139, 0.0017409821262, 0.01577175650466, -2.8727766e-08, 0.99396277621545, -0.1097178175962],
      "ImagePositionPatient": [-938.79156347407, -952.27035522844, 0.41569854547998],
      "ImageType": [
        "ORIGINAL",
        "PRIMARY",
        "M",
        "MB",
        "ND",
        "MOSAIC"
],
      "ImagedNucleus": "1H",
      "ImagingFrequency": 123.234947,
      "InPlanePhaseEncodingDirection": "COL",
      "MRAcquisitionType": "2D",
      "MagneticFieldStrength": 3.0,
      "Manufacturer": "SIEMENS",
      "ManufacturerModelName": "TrioTim",
      "Modality": "MR",
      "NumberOfAverages": 1.0,
      "NumberOfPhaseEncodingSteps": 91,
      "PercentPhaseFieldOfView": 100.0,
      "PercentSampling": 100.0,
      "PerformedProcedureStepStartTime": "142802.015000",
      "PhotometricInterpretation": "MONOCHROME2",
      "PixelBandwidth": 1923.0,
      "PixelRepresentation": 0,
      "PixelSpacing": [2.0, 2.0],
      "ProtocolName": "cmrr_mbep2d_bold_2mm_MB8_Task_8x",
      "RepetitionTime": 785.0,
      "Rows": 936,
      "SAR": 0.12878351201447,
      "SamplesPerPixel": 1,
      "ScanOptions": [
        "PFP",
        "FS"
],
      "ScanningSequence": "EP",
      "SequenceName": "epfid2d1_104",
      "SequenceVariant": [
        "SK",
        "SS"
],
      "SeriesDescription": "cmrr_mbep2d_bold_2mm_MB8_Task_8x",
      "SeriesNumber": 19,
      "SeriesTime": "160922.593000",
      "SliceLocation": -89.158406567778,
      "SliceThickness": 2.0,
      "SmallestImagePixelValue": 0,
      "SoftwareVersions": "syngo MR B19",
      "SpacingBetweenSlices": 1.9999999737706,
      "SpecificCharacterSet": "ISO_IR 100",
      "StudyID": "1",
      "StudyTime": "142801.984000",
      "TransmitCoilName": "Body",
      "VariableFlipAngleFlag": "N",
      "WindowCenterWidthExplanation": "Algo1",
      "dBdt": 0.0},
    "slices": {}
  },
  "time": {
    "samples": {
      "AcquisitionNumber": [1, 2, 3, 4, 5, 6, 7, 8, 9, 10, 11, 12, 13, 14, 15, 16, 17, 18, 19, 20, 21, 22, 23, 24, 25, 26, 27, 28, 29, 30, 31, 32, 33, 34, 35, 36, 37, 38, 39, 40, 41, 42, 43, 44, 45, 46, 47, 48, 49, 50, 51, 52, 53, 54, 55, 56, 57, 58, 59, 60, 61, 62, 63, 64, 65, 66, 67, 68, 69, 70, 71, 72, 73, 74, 75, 76, 77, 78, 79, 80, 81, 82, 83, 84, 85, 86, 87, 88, 89, 90, 91, 92, 93, 94, 95, 96, 97, 98, 99, 100, 101, 102, 103, 104, 105, 106, 107, 108, 109, 110, 111, 112, 113, 114, 115, 116, 117, 118, 119, 120, 121, 122, 123, 124, 125, 126, 127, 128, 129, 130, 131, 132, 133, 134, 135, 136, 137, 138, 139, 140, 141, 142, 143, 144, 145, 146, 147, 148, 149, 150, 151, 152, 153, 154, 155, 156, 157, 158, 159, 160, 161, 162, 163, 164, 165, 166, 167, 168, 169, 170, 171, 172, 173, 174, 175, 176, 177, 178, 179, 180, 181, 182, 183, 184, 185, 186, 187, 188, 189, 190, 191, 192, 193, 194, 195, 196, 197, 198, 199, 200, 201, 202, 203, 204, 205, 206, 207, 208, 209, 210, 211, 212, 213, 214, 215, 216, 217, 218, 219, 220, 221, 222, 223, 224, 225, 226, 227, 228, 229, 230, 231, 232, 233, 234, 235, 236, 237, 238, 239, 240, 241, 242, 243, 244, 245, 246, 247, 248, 249, 250, 251, 252, 253, 254, 255, 256, 257, 258, 259, 260, 261, 262, 263, 264, 265, 266, 267, 268, 269, 270, 271, 272, 273, 274, 275, 276, 277, 278, 279, 280, 281, 282, 283, 284, 285, 286, 287, 288, 289, 290, 291, 292, 293, 294, 295, 296, 297, 298, 299, 300, 301, 302, 303, 304, 305, 306, 307, 308, 309, 310, 311, 312, 313, 314, 315, 316, 317, 318, 319, 320, 321, 322, 323, 324, 325, 326, 327, 328, 329, 330, 331, 332, 333, 334, 335, 336, 337, 338, 339, 340, 341, 342, 343, 344, 345, 346, 347, 348, 349, 350, 351, 352, 353, 354, 355, 356, 357, 358, 359, 360, 361, 362, 363, 364, 365, 366, 367, 368, 369, 370, 371, 372, 373, 374, 375, 376, 377, 378, 379, 380, 381, 382, 383, 384, 385, 386, 387, 388, 389, 390, 391, 392, 393, 394, 395, 396, 397, 398, 399, 400, 401, 402, 403, 404, 405, 406, 407, 408, 409, 410, 411, 412, 413, 414, 415, 416, 417, 418, 419, 420, 421, 422, 423, 424, 425, 426, 427, 428, 429, 430, 431, 432, 433, 434, 435, 436, 437, 438, 439, 440, 441, 442, 443, 444, 445, 446, 447, 448, 449, 450, 451, 452, 453, 454, 455, 456, 457, 458, 459, 460, 461, 462, 463, 464, 465, 466, 467, 468, 469, 470, 471, 472, 473, 474, 475, 476, 477, 478, 479, 480, 481, 482, 483, 484, 485, 486, 487, 488, 489, 490, 491, 492, 493, 494, 495, 496, 497, 498, 499, 500, 501, 502, 503, 504, 505, 506, 507, 508, 509, 510, 511, 512, 513, 514, 515, 516, 517, 518, 519, 520, 521, 522, 523, 524, 525, 526, 527, 528, 529, 530, 531, 532, 533, 534, 535, 536, 537, 538, 539, 540, 541, 542, 543, 544, 545, 546, 547, 548, 549, 550, 551, 552, 553, 554, 555, 556, 557, 558, 559, 560, 561, 562, 563, 564, 565, 566, 567, 568, 569, 570, 571, 572, 573, 574, 575, 576, 577, 578, 579, 580, 581],
      "AcquisitionTime": ["160900.690000", "160901.480000", "160902.267500", "160903.055000", "160903.842500", "160904.632500", "160905.420000", "160906.207500", "160906.995000", "160907.785000", "160908.572500", "160909.360000", "160910.147500", "160910.937500", "160911.725000", "160912.512500", "160913.300000", "160914.090000", "160914.877500", "160915.665000", "160916.455000", "160917.242500", "160918.030000", "160918.817500", "160919.607500", "160920.395000", "160921.182500", "160921.970000", "160922.760000", "160923.547500", "160924.335000", "160925.122500", "160925.912500", "160926.700000", "160927.487500", "160928.275000", "160929.065000", "160929.852500", "160930.640000", "160931.427500", "160932.217500", "160933.005000", "160933.792500", "160934.582500", "160935.370000", "160936.157500", "160936.945000", "160937.735000", "160938.522500", "160939.310000", "160940.097500", "160940.887500", "160941.675000", "160942.462500", "160943.250000", "160944.040000", "160944.827500", "160945.615000", "160946.402500", "160947.192500", "160947.980000", "160948.767500", "160949.555000", "160950.345000", "160951.132500", "160951.920000", "160952.710000", "160953.497500", "160954.285000", "160955.072500", "160955.862500", "160956.650000", "160957.437500", "160958.225000", "160959.015000", "160959.802500", "161000.590000", "161001.377500", "161002.167500", "161002.955000", "161003.742500", "161004.530000", "161005.320000", "161006.107500", "161006.895000", "161007.682500", "161008.472500", "161009.260000", "161010.047500", "161010.837500", "161011.625000", "161012.412500", "161013.200000", "161013.990000", "161014.777500", "161015.565000", "161016.352500", "161017.142500", "161017.930000", "161018.717500", "161019.505000", "161020.295000", "161021.082500", "161021.870000", "161022.657500", "161023.447500", "161024.235000", "161025.022500", "161025.810000", "161026.600000", "161027.387500", "161028.175000", "161028.965000", "161029.752500", "161030.540000", "161031.327500", "161032.117500", "161032.905000", "161033.692500", "161034.480000", "161035.270000", "161036.057500", "161036.845000", "161037.632500", "161038.422500", "161039.210000", "161039.997500", "161040.785000", "161041.575000", "161042.362500", "161043.150000", "161043.937500", "161044.727500", "161045.515000", "161046.302500", "161047.092500", "161047.880000", "161048.667500", "161049.455000", "161050.245000", "161051.032500", "161051.820000", "161052.607500", "161053.397500", "161054.185000", "161054.972500", "161055.760000", "161056.550000", "161057.337500", "161058.125000", "161058.912500", "161059.702500", "161100.490000", "161101.277500", "161102.065000", "161102.855000", "161103.642500", "161104.430000", "161105.220000", "161106.007500", "161106.795000", "161107.582500", "161108.372500", "161109.160000", "161109.947500", "161110.735000", "161111.525000", "161112.312500", "161113.100000", "161113.887500", "161114.677500", "161115.465000", "161116.252500", "161117.040000", "161117.830000", "161118.617500", "161119.405000", "161120.195000", "161120.982500", "161121.770000", "161122.557500", "161123.347500", "161124.135000", "161124.922500", "161125.710000", "161126.500000", "161127.287500", "161128.075000", "161128.862500", "161129.652500", "161130.440000", "161131.227500", "161132.015000", "161132.805000", "161133.592500", "161134.380000", "161135.167500", "161135.957500", "161136.745000", "161137.532500", "161138.322500", "161139.110000", "161139.897500", "161140.685000", "161141.475000", "161142.262500", "161143.050000", "161143.837500", "161144.627500", "161145.415000", "161146.202500", "161146.990000", "161147.780000", "161148.567500", "161149.355000", "161150.142500", "161150.932500", "161151.720000", "161152.507500", "161153.295000", "161154.085000", "161154.872500", "161155.660000", "161156.450000", "161157.237500", "161158.025000", "161158.812500", "161159.602500", "161200.390000", "161201.177500", "161201.965000", "161202.755000", "161203.542500", "161204.330000", "161205.117500", "161205.907500", "161206.695000", "161207.482500", "161208.270000", "161209.060000", "161209.847500", "161210.635000", "161211.422500", "161212.212500", "161213.000000", "161213.787500", "161214.577500", "161215.365000", "161216.152500", "161216.940000", "161217.730000", "161218.517500", "161219.305000", "161220.092500", "161220.882500", "161221.670000", "161222.457500", "161223.245000", "161224.035000", "161224.822500", "161225.610000", "161226.397500", "161227.187500", "161227.975000", "161228.762500", "161229.550000", "161230.340000", "161231.127500", "161231.915000", "161232.705000", "161233.492500", "161234.280000", "161235.067500", "161235.857500", "161236.645000", "161237.432500", "161238.220000", "161239.010000", "161239.797500", "161240.585000", "161241.372500", "161242.162500", "161242.950000", "161243.737500", "161244.525000", "161245.315000", "161246.102500", "161246.890000", "161247.677500", "161248.467500", "161249.255000", "161250.042500", "161250.832500", "161251.620000", "161252.407500", "161253.195000", "161253.985000", "161254.772500", "161255.560000", "161256.347500", "161257.137500", "161257.925000", "161258.712500", "161259.500000", "161300.290000", "161301.077500", "161301.865000", "161302.652500", "161303.442500", "161304.230000", "161305.017500", "161305.805000", "161306.595000", "161307.382500", "161308.170000", "161308.960000", "161309.747500", "161310.535000", "161311.322500", "161312.112500", "161312.900000", "161313.687500", "161314.475000", "161315.265000", "161316.052500", "161316.840000", "161317.627500", "161318.417500", "161319.205000", "161319.992500", "161320.780000", "161321.570000", "161322.357500", "161323.145000", "161323.932500", "161324.722500", "161325.510000", "161326.297500", "161327.087500", "161327.875000", "161328.662500", "161329.450000", "161330.240000", "161331.027500", "161331.815000", "161332.602500", "161333.392500", "161334.180000", "161334.967500", "161335.755000", "161336.545000", "161337.332500", "161338.120000", "161338.907500", "161339.697500", "161340.485000", "161341.272500", "161342.060000", "161342.850000", "161343.637500", "161344.425000", "161345.215000", "161346.002500", "161346.790000", "161347.577500", "161348.367500", "161349.155000", "161349.942500", "161350.730000", "161351.520000", "161352.307500", "161353.095000", "161353.882500", "161354.672500", "161355.460000", "161356.247500", "161357.035000", "161357.825000", "161358.612500", "161359.400000", "161400.187500", "161400.977500", "161401.765000", "161402.552500", "161403.342500", "161404.130000", "161404.917500", "161405.705000", "161406.495000", "161407.282500", "161408.070000", "161408.857500", "161409.647500", "161410.435000", "161411.222500", "161412.010000", "161412.800000", "161413.587500", "161414.375000", "161415.162500", "161415.952500", "161416.740000", "161417.527500", "161418.315000", "161419.105000", "161419.892500", "161420.680000", "161421.470000", "161422.257500", "161423.045000", "161423.832500", "161424.622500", "161425.410000", "161426.197500", "161426.985000", "161427.775000", "161428.562500", "161429.350000", "161430.137500", "161430.927500", "161431.715000", "161432.502500", "161433.290000", "161434.080000", "161434.867500", "161435.655000", "161436.445000", "161437.232500", "161438.020000", "161438.807500", "161439.597500", "161440.385000", "161441.172500", "161441.960000", "161442.750000", "161443.537500", "161444.325000", "161445.112500", "161445.902500", "161446.690000", "161447.477500", "161448.265000", "161449.055000", "161449.842500", "161450.630000", "161451.417500", "161452.207500", "161452.995000", "161453.782500", "161454.572500", "161455.360000", "161456.147500", "161456.935000", "161457.725000", "161458.512500", "161459.300000", "161500.087500", "161500.877500", "161501.665000", "161502.452500", "161503.240000", "161504.030000", "161504.817500", "161505.605000", "161506.392500", "161507.182500", "161507.970000", "161508.757500", "161509.545000", "161510.335000", "161511.122500", "161511.910000", "161512.700000", "161513.487500", "161514.275000", "161515.062500", "161515.852500", "161516.640000", "161517.427500", "161518.215000", "161519.005000", "161519.792500", "161520.580000", "161521.367500", "161522.157500", "161522.945000", "161523.732500", "161524.520000", "161525.310000", "161526.097500", "161526.885000", "161527.672500", "161528.462500", "161529.250000", "161530.037500", "161530.827500", "161531.615000", "161532.402500", "161533.190000", "161533.980000", "161534.767500", "161535.555000", "161536.342500", "161537.132500", "161537.920000", "161538.707500", "161539.495000", "161540.285000", "161541.072500", "161541.860000", "161542.647500", "161543.437500", "161544.225000", "161545.012500", "161545.800000", "161546.590000", "161547.377500", "161548.165000", "161548.955000", "161549.742500", "161550.530000", "161551.317500", "161552.107500", "161552.895000", "161553.682500", "161554.470000", "161555.260000", "161556.047500", "161556.835000", "161557.622500", "161558.412500", "161559.200000", "161559.987500", "161600.775000", "161601.565000", "161602.352500", "161603.140000", "161603.927500", "161604.717500", "161605.505000", "161606.292500", "161607.082500", "161607.870000", "161608.657500", "161609.445000", "161610.235000", "161611.022500", "161611.810000", "161612.597500", "161613.387500", "161614.175000", "161614.962500", "161615.750000", "161616.540000", "161617.327500", "161618.115000", "161618.902500", "161619.692500", "161620.480000", "161621.267500", "161622.055000", "161622.845000", "161623.632500", "161624.420000", "161625.210000", "161625.997500", "161626.785000", "161627.572500", "161628.362500", "161629.150000", "161629.937500", "161630.725000", "161631.515000", "161632.302500", "161633.090000", "161633.877500", "161634.667500", "161635.455000", "161636.242500", "161637.030000", "161637.820000"],
      "ContentTime": ["160922.593000", "160922.593000", "160922.593000", "160922.593000", "160922.593000", "160922.593000", "160922.609000", "160922.609000", "160922.609000", "160922.609000", "160922.609000", "160922.609000", "160922.609000", "160922.625000", "160922.625000", "160922.625000", "160922.625000", "160922.625000", "160922.625000", "160922.640000", "160922.640000", "160922.640000", "160922.640000", "160922.640000", "160922.640000", "160922.640000", "160942.562000", "160942.562000", "160942.562000", "160942.578000", "160942.578000", "160942.578000", "160942.578000", "160942.578000", "160942.578000", "160942.578000", "160942.593000", "160942.593000", "160942.593000", "160942.593000", "160942.593000", "160942.593000", "160942.593000", "160942.609000", "160942.609000", "160942.609000", "160942.609000", "160942.609000", "160942.609000", "160942.625000", "160942.625000", "161002.562000", "161002.562000", "161002.562000", "161002.562000", "161002.578000", "161002.578000", "161002.578000", "161002.578000", "161002.578000", "161002.578000", "161002.593000", "161002.593000", "161002.593000", "161002.593000", "161002.593000", "161002.593000", "161002.593000", "161002.593000", "161002.609000", "161002.609000", "161002.609000", "161002.609000", "161002.609000", "161002.609000", "161002.625000", "161002.625000", "161022.562000", "161022.562000", "161022.562000", "161022.578000", "161022.578000", "161022.578000", "161022.578000", "161022.578000", "161022.578000", "161022.578000", "161022.593000", "161022.593000", "161022.593000", "161022.593000", "161022.593000", "161022.593000", "161022.593000", "161022.593000", "161022.609000", "161022.609000", "161022.609000", "161022.609000", "161022.625000", "161022.625000", "161022.625000", "161042.562000", "161042.562000", "161042.562000", "161042.562000", "161042.578000", "161042.578000", "161042.578000", "161042.578000", "161042.578000", "161042.578000", "161042.578000", "161042.593000", "161042.593000", "161042.593000", "161042.593000", "161042.593000", "161042.593000", "161042.609000", "161042.609000", "161042.609000", "161042.609000", "161042.609000", "161042.625000", "161042.625000", "161042.625000", "161042.625000", "161102.562000", "161102.562000", "161102.562000", "161102.562000", "161102.578000", "161102.578000", "161102.578000", "161102.578000", "161102.578000", "161102.578000", "161102.578000", "161102.593000", "161102.593000", "161102.593000", "161102.593000", "161102.609000", "161102.609000", "161102.609000", "161102.609000", "161102.609000", "161102.609000", "161102.609000", "161102.625000", "161102.625000", "161102.625000", "161122.562000", "161122.562000", "161122.562000", "161122.562000", "161122.578000", "161122.578000", "161122.578000", "161122.578000", "161122.578000", "161122.578000", "161122.578000", "161122.593000", "161122.593000", "161122.593000", "161122.593000", "161122.593000", "161122.593000", "161122.593000", "161122.609000", "161122.609000", "161122.609000", "161122.609000", "161122.609000", "161122.609000", "161122.625000", "161122.625000", "161142.562000", "161142.562000", "161142.562000", "161142.562000", "161142.578000", "161142.578000", "161142.578000", "161142.578000", "161142.578000", "161142.578000", "161142.578000", "161142.593000", "161142.593000", "161142.593000", "161142.593000", "161142.593000", "161142.593000", "161142.593000", "161142.609000", "161142.609000", "161142.609000", "161142.609000", "161142.609000", "161142.609000", "161142.625000", "161202.562000", "161202.562000", "161202.562000", "161202.578000", "161202.578000", "161202.578000", "161202.578000", "161202.593000", "161202.593000", "161202.593000", "161202.593000", "161202.593000", "161202.593000", "161202.593000", "161202.609000", "161202.609000", "161202.609000", "161202.609000", "161202.609000", "161202.609000", "161202.609000", "161202.625000", "161202.625000", "161202.625000", "161202.625000", "161222.562000", "161222.562000", "161222.562000", "161222.562000", "161222.578000", "161222.578000", "161222.578000", "161222.578000", "161222.578000", "161222.578000", "161222.578000", "161222.593000", "161222.593000", "161222.593000", "161222.593000", "161222.593000", "161222.593000", "161222.593000", "161222.609000", "161222.609000", "161222.609000", "161222.609000", "161222.609000", "161222.609000", "161222.625000", "161222.625000", "161242.562000", "161242.562000", "161242.578000", "161242.578000", "161242.578000", "161242.578000", "161242.578000", "161242.578000", "161242.578000", "161242.593000", "161242.593000", "161242.593000", "161242.593000", "161242.593000", "161242.609000", "161242.609000", "161242.609000", "161242.609000", "161242.625000", "161242.625000", "161242.625000", "161242.625000", "161242.625000", "161242.625000", "161242.625000", "161302.562000", "161302.562000", "161302.562000", "161302.578000", "161302.578000", "161302.578000", "161302.578000", "161302.578000", "161302.578000", "161302.578000", "161302.578000", "161302.593000", "161302.593000", "161302.593000", "161302.593000", "161302.593000", "161302.593000", "161302.609000", "161302.609000", "161302.609000", "161302.609000", "161302.609000", "161302.625000", "161302.625000", "161302.625000", "161302.625000", "161322.562000", "161322.562000", "161322.562000", "161322.562000", "161322.578000", "161322.578000", "161322.578000", "161322.578000", "161322.578000", "161322.578000", "161322.593000", "161322.593000", "161322.593000", "161322.593000", "161322.593000", "161322.593000", "161322.593000", "161322.609000", "161322.609000", "161322.609000", "161322.609000", "161322.609000", "161322.609000", "161322.609000", "161322.625000", "161342.562000", "161342.562000", "161342.562000", "161342.562000", "161342.578000", "161342.578000", "161342.578000", "161342.578000", "161342.578000", "161342.578000", "161342.593000", "161342.593000", "161342.593000", "161342.593000", "161342.593000", "161342.593000", "161342.593000", "161342.609000", "161342.609000", "161342.609000", "161342.609000", "161342.609000", "161342.609000", "161342.625000", "161342.625000", "161342.625000", "161402.562000", "161402.562000", "161402.562000", "161402.562000", "161402.578000", "161402.578000", "161402.578000", "161402.578000", "161402.578000", "161402.578000", "161402.593000", "161402.593000", "161402.593000", "161402.593000", "161402.593000", "161402.593000", "161402.593000", "161402.609000", "161402.609000", "161402.609000", "161402.609000", "161402.609000", "161402.609000", "161402.609000", "161402.625000", "161422.562000", "161422.562000", "161422.578000", "161422.578000", "161422.578000", "161422.578000", "161422.578000", "161422.578000", "161422.593000", "161422.593000", "161422.593000", "161422.593000", "161422.593000", "161422.593000", "161422.593000", "161422.609000", "161422.609000", "161422.609000", "161422.609000", "161422.609000", "161422.609000", "161422.625000", "161422.625000", "161422.625000", "161422.625000", "161422.625000", "161442.562000", "161442.562000", "161442.562000", "161442.562000", "161442.578000", "161442.578000", "161442.578000", "161442.578000", "161442.578000", "161442.578000", "161442.593000", "161442.593000", "161442.593000", "161442.593000", "161442.593000", "161442.593000", "161442.593000", "161442.609000", "161442.609000", "161442.609000", "161442.609000", "161442.609000", "161442.609000", "161442.609000", "161442.625000", "161502.562000", "161502.562000", "161502.562000", "161502.562000", "161502.578000", "161502.578000", "161502.578000", "161502.578000", "161502.578000", "161502.578000", "161502.578000", "161502.593000", "161502.593000", "161502.593000", "161502.593000", "161502.593000", "161502.593000", "161502.609000", "161502.609000", "161502.609000", "161502.609000", "161502.609000", "161502.609000", "161502.609000", "161502.625000", "161502.625000", "161522.562000", "161522.562000", "161522.562000", "161522.562000", "161522.578000", "161522.578000", "161522.578000", "161522.578000", "161522.578000", "161522.578000", "161522.593000", "161522.593000", "161522.593000", "161522.593000", "161522.593000", "161522.593000", "161522.593000", "161522.609000", "161522.609000", "161522.609000", "161522.609000", "161522.609000", "161522.609000", "161522.609000", "161522.625000", "161542.562000", "161542.562000", "161542.562000", "161542.578000", "161542.578000", "161542.578000", "161542.578000", "161542.578000", "161542.578000", "161542.593000", "161542.593000", "161542.593000", "161542.593000", "161542.593000", "161542.593000", "161542.593000", "161542.609000", "161542.609000", "161542.609000", "161542.609000", "161542.609000", "161542.609000", "161542.609000", "161542.625000", "161542.625000", "161542.625000", "161602.562000", "161602.562000", "161602.562000", "161602.562000", "161602.578000", "161602.578000", "161602.578000", "161602.578000", "161602.578000", "161602.578000", "161602.578000", "161602.593000", "161602.593000", "161602.593000", "161602.593000", "161602.593000", "161602.593000", "161602.609000", "161602.609000", "161602.609000", "161602.609000", "161602.609000", "161602.609000", "161602.609000", "161602.625000", "161622.562000", "161622.562000", "161622.562000", "161622.562000", "161622.578000", "161622.578000", "161622.578000", "161622.578000", "161622.578000", "161622.578000", "161622.593000", "161622.593000", "161622.593000", "161622.593000", "161622.593000", "161622.593000", "161622.593000", "161622.609000", "161622.609000", "161622.609000", "161622.609000", "161622.609000", "161622.609000", "161622.609000", "161622.625000", "161622.625000", "161638.156000", "161638.156000", "161638.156000", "161638.156000", "161638.171000", "161638.171000", "161638.171000", "161638.171000", "161638.171000", "161638.171000", "161638.171000", "161638.187000", "161638.187000", "161638.187000", "161638.187000", "161638.187000", "161638.187000", "161638.187000", "161638.203000", "161638.203000"],
      "DataSetTrailingPadding": [
        "\u0000\u0000\u0000\u0000\u0000\u0000\u0000\u0000\u0000\u0000\u0000\u0000\u0000\u0000\u0000\u0000\u0000\u0000\u0000\u0000\u0000\u0000\u0000\u0000\u0000\u0000\u0000\u0000\u0000\u0000\u0000\u0000\u0000\u0000\u0000\u0000\u0000\u0000\u0000\u0000\u0000\u0000\u0000\u0000\u0000\u0000\u0000\u0000\u0000\u0000\u0000\u0000\u0000\u0000\u0000\u0000\u0000\u0000\u0000\u0000\u0000\u0000\u0000\u0000\u0000\u0000\u0000\u0000\u0000\u0000\u0000\u0000\u0000\u0000\u0000\u0000\u0000\u0000\u0000\u0000\u0000\u0000",
        "\u0000\u0000\u0000\u0000\u0000\u0000\u0000\u0000\u0000\u0000\u0000\u0000\u0000\u0000\u0000\u0000\u0000\u0000\u0000\u0000\u0000\u0000\u0000\u0000\u0000\u0000\u0000\u0000\u0000\u0000\u0000\u0000\u0000\u0000\u0000\u0000\u0000\u0000\u0000\u0000\u0000\u0000\u0000\u0000\u0000\u0000\u0000\u0000\u0000\u0000\u0000\u0000\u0000\u0000\u0000\u0000\u0000\u0000\u0000\u0000\u0000\u0000\u0000\u0000\u0000\u0000\u0000\u0000\u0000\u0000\u0000\u0000\u0000\u0000\u0000\u0000\u0000\u0000\u0000\u0000\u0000\u0000\u0000\u0000",
        "\u0000\u0000\u0000\u0000\u0000\u0000\u0000\u0000\u0000\u0000\u0000\u0000\u0000\u0000\u0000\u0000\u0000\u0000\u0000\u0000\u0000\u0000\u0000\u0000\u0000\u0000\u0000\u0000\u0000\u0000\u0000\u0000\u0000\u0000\u0000\u0000\u0000\u0000\u0000\u0000\u0000\u0000\u0000\u0000\u0000\u0000\u0000\u0000\u0000\u0000\u0000\u0000\u0000\u0000\u0000\u0000\u0000\u0000\u0000\u0000\u0000\u0000\u0000\u0000\u0000\u0000\u0000\u0000\u0000\u0000\u0000\u0000\u0000\u0000\u0000\u0000\u0000\u0000\u0000\u0000\u0000\u0000",
