{
  "AcquisitionMatrixPE": 104,
  "AcquisitionNumber": 1,
  "AcquisitionTime": "15:20:32.385000",
  "BandwidthPerPixelPhaseEncode": 13.935,
  "BaseResolution": 104,
  "CoilString": "C:HEA;HEP",
  "ConversionSoftware": "dcm2niix",
  "ConversionSoftwareVersion": "v1.0.20210317",
  "DerivedVendorReportedEchoSpacing": 0.000690017,
  "DeviceSerialNumber": "35450",
  "DwellTime": 2.5e-06,
  "EchoTime": 0.0348,
  "EffectiveEchoSpacing": 0.000690017,
  "FlipAngle": 55,
  "ImageComments": "Unaliased MB8/PE3 (remote)",
  "ImageOrientationPatientDICOM": [0.999874, 0.00174098, 0.0157718, -2.87278e-08, 0.993963, -0.109718],
  "ImageType": [
    "ORIGINAL",
    "PRIMARY",
    "M",
    "MB",
    "ND",
    "MOSAIC"
],
  "ImagingFrequency": 123.235,
  "InPlanePhaseEncodingDirectionDICOM": "COL",
  "InstitutionAddress": "Univeristy Ave. 197,Newark,North East,US,07102-1814",
  "InstitutionName": "RUBIC",
  "InstitutionalDepartmentName": "Department",
  "MRAcquisitionType": "2D",
  "MagneticFieldStrength": 3,
  "Manufacturer": "Siemens",
  "ManufacturersModelName": "TrioTim",
  "Modality": "MR",
  "MultibandAccelerationFactor": 8,
  "PartialFourier": 0.875,
  "PatientPosition": "HFS",
  "PercentPhaseFOV": 100,
  "PercentSampling": 100,
  "PhaseEncodingDirection": "j-",
  "PhaseEncodingSteps": 91,
  "PhaseResolution": 1,
  "PixelBandwidth": 1923,
  "ProcedureStepDescription": "Cole^Michael",
  "ProtocolName": "cmrr_mbep2d_bold_2mm_MB8_Rest",
  "PulseSequenceDetails": "%CustomerSeq%\\cmrr_mbep2d_bold",
  "ReceiveCoilName": "32Ch_Head",
  "ReconMatrixPE": 104,
  "RepetitionTime": 0.785,
  "SAR": 0.132498,
  "ScanOptions": "PFP\\FS",
  "ScanningSequence": "EP",
  "SequenceName": "epfid2d1_104",
  "SequenceVariant": "SK\\SS",
  "SeriesDescription": "cmrr_mbep2d_bold_2mm_MB8_Rest",
  "SeriesNumber": 9,
  "ShimSetting": [2093, -472, -7297, 678, -4, -438, -102, -40],
  "SliceThickness": 2,
  "SliceTiming": [0, 0.4375, 0.0875, 0.525, 0.175, 0.6125, 0.2625, 0.7, 0.35, 0, 0.4375, 0.0875, 0.525, 0.175, 0.6125, 0.2625, 0.7, 0.35, 0, 0.4375, 0.0875, 0.525, 0.175, 0.6125, 0.2625, 0.7, 0.35, 0, 0.4375, 0.0875, 0.525, 0.175, 0.6125, 0.2625, 0.7, 0.35, 0, 0.4375, 0.0875, 0.525, 0.175, 0.6125, 0.2625, 0.7, 0.35, 0, 0.4375, 0.0875, 0.525, 0.175, 0.6125, 0.2625, 0.7, 0.35, 0, 0.4375, 0.0875, 0.525, 0.175, 0.6125, 0.2625, 0.7, 0.35, 0, 0.4375, 0.0875, 0.525, 0.175, 0.6125, 0.2625, 0.7, 0.35],
  "SoftwareVersions": "syngo MR B19",
  "SpacingBetweenSlices": 2,
  "StationName": "MRC35450",
  "TaskName": "rest",
  "TotalReadoutTime": 0.0710717,
  "TxRefAmp": 355.164,
  "dcmmeta_affine": [
    [-1.9997482299804688, -5.745553366409695e-08, 0.03173511102795601, 106.8963394165039],
    [-0.003481964347884059, 1.9879255294799805, -0.21940800547599792, -80.91150665283203],
    [0.031543511897325516, 0.21943563222885132, 1.9876753091812134, -100.34929656982422],
    [0.0, 0.0, 0.0, 1.0]
],
  "dcmmeta_reorient_transform": [
    [0.0, -1.0, 0.0, 103.0],
    [1.0, 0.0, 0.0, 0.0],
    [0.0, 0.0, 1.0, 0.0],
    [0.0, 0.0, 0.0, 1.0]
],
  "dcmmeta_shape": [104, 104, 72, 1070],
  "dcmmeta_slice_dim": 2,
  "dcmmeta_version": 0.6,
  "global": {
    "const": {
      "AcquisitionMatrix": [104, 0, 0, 104],
      "AngioFlag": "N",
      "BitsAllocated": 16,
      "BitsStored": 12,
      "Columns": 936,
      "EchoNumbers": 1,
      "EchoTime": 34.8,
      "EchoTrainLength": 1,
      "FlipAngle": 55.0,
      "HighBit": 11,
      "ImageOrientationPatient": [0.9998741024139, 0.0017409821262, 0.01577175650466, -2.8727766e-08, 0.99396277621545, -0.1097178175962],
      "ImagePositionPatient": [-938.79156347407, -952.27035522844, 0.41569854547998],
      "ImageType": [
        "ORIGINAL",
        "PRIMARY",
        "M",
        "MB",
        "ND",
        "MOSAIC"
],
      "ImagedNucleus": "1H",
      "ImagingFrequency": 123.234887,
      "InPlanePhaseEncodingDirection": "COL",
      "MRAcquisitionType": "2D",
      "MagneticFieldStrength": 3.0,
      "Manufacturer": "SIEMENS",
      "ManufacturerModelName": "TrioTim",
      "Modality": "MR",
      "NumberOfAverages": 1.0,
      "NumberOfPhaseEncodingSteps": 91,
      "PercentPhaseFieldOfView": 100.0,
      "PercentSampling": 100.0,
      "PerformedProcedureStepStartTime": "142802.015000",
      "PhotometricInterpretation": "MONOCHROME2",
      "PixelBandwidth": 1923.0,
      "PixelRepresentation": 0,
      "PixelSpacing": [2.0, 2.0],
      "ProtocolName": "cmrr_mbep2d_bold_2mm_MB8_Rest",
      "RepetitionTime": 785.0,
      "Rows": 936,
      "SAR": 0.13249815316205,
      "SamplesPerPixel": 1,
      "ScanOptions": [
        "PFP",
        "FS"
],
      "ScanningSequence": "EP",
      "SequenceName": "epfid2d1_104",
      "SequenceVariant": [
        "SK",
        "SS"
],
      "SeriesDescription": "cmrr_mbep2d_bold_2mm_MB8_Rest",
      "SeriesNumber": 9,
      "SeriesTime": "152107.968000",
      "SliceLocation": -89.158406567778,
      "SliceThickness": 2.0,
      "SmallestImagePixelValue": 0,
      "SoftwareVersions": "syngo MR B19",
      "SpacingBetweenSlices": 1.9999999737706,
      "SpecificCharacterSet": "ISO_IR 100",
      "StudyID": "1",
      "StudyTime": "142801.984000",
      "TransmitCoilName": "Body",
      "VariableFlipAngleFlag": "N",
      "WindowCenterWidthExplanation": "Algo1",
      "dBdt": 0.0},
    "slices": {}
  },
  "time": {
    "samples": {
      "AcquisitionNumber": [1, 2, 3, 4, 5, 6, 7, 8, 9, 10, 11, 12, 13, 14, 15, 16, 17, 18, 19, 20, 21, 22, 23, 24, 25, 26, 27, 28, 29, 30, 31, 32, 33, 34, 35, 36, 37, 38, 39, 40, 41, 42, 43, 44, 45, 46, 47, 48, 49, 50, 51, 52, 53, 54, 55, 56, 57, 58, 59, 60, 61, 62, 63, 64, 65, 66, 67, 68, 69, 70, 71, 72, 73, 74, 75, 76, 77, 78, 79, 80, 81, 82, 83, 84, 85, 86, 87, 88, 89, 90, 91, 92, 93, 94, 95, 96, 97, 98, 99, 100, 101, 102, 103, 104, 105, 106, 107, 108, 109, 110, 111, 112, 113, 114, 115, 116, 117, 118, 119, 120, 121, 122, 123, 124, 125, 126, 127, 128, 129, 130, 131, 132, 133, 134, 135, 136, 137, 138, 139, 140, 141, 142, 143, 144, 145, 146, 147, 148, 149, 150, 151, 152, 153, 154, 155, 156, 157, 158, 159, 160, 161, 162, 163, 164, 165, 166, 167, 168, 169, 170, 171, 172, 173, 174, 175, 176, 177, 178, 179, 180, 181, 182, 183, 184, 185, 186, 187, 188, 189, 190, 191, 192, 193, 194, 195, 196, 197, 198, 199, 200, 201, 202, 203, 204, 205, 206, 207, 208, 209, 210, 211, 212, 213, 214, 215, 216, 217, 218, 219, 220, 221, 222, 223, 224, 225, 226, 227, 228, 229, 230, 231, 232, 233, 234, 235, 236, 237, 238, 239, 240, 241, 242, 243, 244, 245, 246, 247, 248, 249, 250, 251, 252, 253, 254, 255, 256, 257, 258, 259, 260, 261, 262, 263, 264, 265, 266, 267, 268, 269, 270, 271, 272, 273, 274, 275, 276, 277, 278, 279, 280, 281, 282, 283, 284, 285, 286, 287, 288, 289, 290, 291, 292, 293, 294, 295, 296, 297, 298, 299, 300, 301, 302, 303, 304, 305, 306, 307, 308, 309, 310, 311, 312, 313, 314, 315, 316, 317, 318, 319, 320, 321, 322, 323, 324, 325, 326, 327, 328, 329, 330, 331, 332, 333, 334, 335, 336, 337, 338, 339, 340, 341, 342, 343, 344, 345, 346, 347, 348, 349, 350, 351, 352, 353, 354, 355, 356, 357, 358, 359, 360, 361, 362, 363, 364, 365, 366, 367, 368, 369, 370, 371, 372, 373, 374, 375, 376, 377, 378, 379, 380, 381, 382, 383, 384, 385, 386, 387, 388, 389, 390, 391, 392, 393, 394, 395, 396, 397, 398, 399, 400, 401, 402, 403, 404, 405, 406, 407, 408, 409, 410, 411, 412, 413, 414, 415, 416, 417, 418, 419, 420, 421, 422, 423, 424, 425, 426, 427, 428, 429, 430, 431, 432, 433, 434, 435, 436, 437, 438, 439, 440, 441, 442, 443, 444, 445, 446, 447, 448, 449, 450, 451, 452, 453, 454, 455, 456, 457, 458, 459, 460, 461, 462, 463, 464, 465, 466, 467, 468, 469, 470, 471, 472, 473, 474, 475, 476, 477, 478, 479, 480, 481, 482, 483, 484, 485, 486, 487, 488, 489, 490, 491, 492, 493, 494, 495, 496, 497, 498, 499, 500, 501, 502, 503, 504, 505, 506, 507, 508, 509, 510, 511, 512, 513, 514, 515, 516, 517, 518, 519, 520, 521, 522, 523, 524, 525, 526, 527, 528, 529, 530, 531, 532, 533, 534, 535, 536, 537, 538, 539, 540, 541, 542, 543, 544, 545, 546, 547, 548, 549, 550, 551, 552, 553, 554, 555, 556, 557, 558, 559, 560, 561, 562, 563, 564, 565, 566, 567, 568, 569, 570, 571, 572, 573, 574, 575, 576, 577, 578, 579, 580, 581, 582, 583, 584, 585, 586, 587, 588, 589, 590, 591, 592, 593, 594, 595, 596, 597, 598, 599, 600, 601, 602, 603, 604, 605, 606, 607, 608, 609, 610, 611, 612, 613, 614, 615, 616, 617, 618, 619, 620, 621, 622, 623, 624, 625, 626, 627, 628, 629, 630, 631, 632, 633, 634, 635, 636, 637, 638, 639, 640, 641, 642, 643, 644, 645, 646, 647, 648, 649, 650, 651, 652, 653, 654, 655, 656, 657, 658, 659, 660, 661, 662, 663, 664, 665, 666, 667, 668, 669, 670, 671, 672, 673, 674, 675, 676, 677, 678, 679, 680, 681, 682, 683, 684, 685, 686, 687, 688, 689, 690, 691, 692, 693, 694, 695, 696, 697, 698, 699, 700, 701, 702, 703, 704, 705, 706, 707, 708, 709, 710, 711, 712, 713, 714, 715, 716, 717, 718, 719, 720, 721, 722, 723, 724, 725, 726, 727, 728, 729, 730, 731, 732, 733, 734, 735, 736, 737, 738, 739, 740, 741, 742, 743, 744, 745, 746, 747, 748, 749, 750, 751, 752, 753, 754, 755, 756, 757, 758, 759, 760, 761, 762, 763, 764, 765, 766, 767, 768, 769, 770, 771, 772, 773, 774, 775, 776, 777, 778, 779, 780, 781, 782, 783, 784, 785, 786, 787, 788, 789, 790, 791, 792, 793, 794, 795, 796, 797, 798, 799, 800, 801, 802, 803, 804, 805, 806, 807, 808, 809, 810, 811, 812, 813, 814, 815, 816, 817, 818, 819, 820, 821, 822, 823, 824, 825, 826, 827, 828, 829, 830, 831, 832, 833, 834, 835, 836, 837, 838, 839, 840, 841, 842, 843, 844, 845, 846, 847, 848, 849, 850, 851, 852, 853, 854, 855, 856, 857, 858, 859, 860, 861, 862, 863, 864, 865, 866, 867, 868, 869, 870, 871, 872, 873, 874, 875, 876, 877, 878, 879, 880, 881, 882, 883, 884, 885, 886, 887, 888, 889, 890, 891, 892, 893, 894, 895, 896, 897, 898, 899, 900, 901, 902, 903, 904, 905, 906, 907, 908, 909, 910, 911, 912, 913, 914, 915, 916, 917, 918, 919, 920, 921, 922, 923, 924, 925, 926, 927, 928, 929, 930, 931, 932, 933, 934, 935, 936, 937, 938, 939, 940, 941, 942, 943, 944, 945, 946, 947, 948, 949, 950, 951, 952, 953, 954, 955, 956, 957, 958, 959, 960, 961, 962, 963, 964, 965, 966, 967, 968, 969, 970, 971, 972, 973, 974, 975, 976, 977, 978, 979, 980, 981, 982, 983, 984, 985, 986, 987, 988, 989, 990, 991, 992, 993, 994, 995, 996, 997, 998, 999, 1000, 1001, 1002, 1003, 1004, 1005, 1006, 1007, 1008, 1009, 1010, 1011, 1012, 1013, 1014, 1015, 1016, 1017, 1018, 1019, 1020, 1021, 1022, 1023, 1024, 1025, 1026, 1027, 1028, 1029, 1030, 1031, 1032, 1033, 1034, 1035, 1036, 1037, 1038, 1039, 1040, 1041, 1042, 1043, 1044, 1045, 1046, 1047, 1048, 1049, 1050, 1051, 1052, 1053, 1054, 1055, 1056, 1057, 1058, 1059, 1060, 1061, 1062, 1063, 1064, 1065, 1066, 1067, 1068, 1069, 1070],
      "AcquisitionTime": ["152032.385000", "152033.172500", "152033.960000", "152034.750000", "152035.537500", "152036.325000", "152037.112500", "152037.902500", "152038.690000", "152039.477500", "152040.265000", "152041.055000", "152041.842500", "152042.630000", "152043.420000", "152044.207500", "152044.995000", "152045.782500", "152046.572500", "152047.360000", "152048.147500", "152048.935000", "152049.725000", "152050.512500", "152051.300000", "152052.087500", "152052.877500", "152053.665000", "152054.452500", "152055.240000", "152056.030000", "152056.817500", "152057.605000", "152058.392500", "152059.182500", "152059.970000", "152100.757500", "152101.547500", "152102.335000", "152103.122500", "152103.910000", "152104.700000", "152105.487500", "152106.275000", "152107.062500", "152107.852500", "152108.640000", "152109.427500", "152110.215000", "152111.005000", "152111.792500", "152112.580000", "152113.367500", "152114.157500", "152114.945000", "152115.732500", "152116.520000", "152117.310000", "152118.097500", "152118.885000", "152119.675000", "152120.462500", "152121.250000", "152122.037500", "152122.827500", "152123.615000", "152124.402500", "152125.190000", "152125.980000", "152126.767500", "152127.555000", "152128.342500", "152129.132500", "152129.920000", "152130.707500", "152131.495000", "152132.285000", "152133.072500", "152133.860000", "152134.647500", "152135.437500", "152136.225000", "152137.012500", "152137.802500", "152138.590000", "152139.377500", "152140.165000", "152140.955000", "152141.742500", "152142.530000", "152143.317500", "152144.107500", "152144.895000", "152145.682500", "152146.470000", "152147.260000", "152148.047500", "152148.835000", "152149.622500", "152150.412500", "152151.200000", "152151.987500", "152152.775000", "152153.565000", "152154.352500", "152155.140000", "152155.930000", "152156.717500", "152157.505000", "152158.292500", "152159.082500", "152159.870000", "152200.657500", "152201.445000", "152202.235000", "152203.022500", "152203.810000", "152204.597500", "152205.387500", "152206.175000", "152206.962500", "152207.750000", "152208.540000", "152209.327500", "152210.115000", "152210.902500", "152211.692500", "152212.480000", "152213.267500", "152214.057500", "152214.845000", "152215.632500", "152216.420000", "152217.210000", "152217.997500", "152218.785000", "152219.572500", "152220.362500", "152221.150000", "152221.937500", "152222.725000", "152223.515000", "152224.302500", "152225.090000", "152225.877500", "152226.667500", "152227.455000", "152228.242500", "152229.030000", "152229.820000", "152230.607500", "152231.395000", "152232.185000", "152232.972500", "152233.760000", "152234.547500", "152235.337500", "152236.125000", "152236.912500", "152237.700000", "152238.490000", "152239.277500", "152240.065000", "152240.852500", "152241.642500", "152242.430000", "152243.217500", "152244.005000", "152244.795000", "152245.582500", "152246.370000", "152247.157500", "152247.947500", "152248.735000", "152249.522500", "152250.312500", "152251.100000", "152251.887500", "152252.675000", "152253.465000", "152254.252500", "152255.040000", "152255.827500", "152256.617500", "152257.405000", "152258.192500", "152258.980000", "152259.770000", "152300.557500", "152301.345000", "152302.132500", "152302.922500", "152303.710000", "152304.497500", "152305.287500", "152306.075000", "152306.862500", "152307.650000", "152308.440000", "152309.227500", "152310.015000", "152310.802500", "152311.592500", "152312.380000", "152313.167500", "152313.955000", "152314.745000", "152315.532500", "152316.320000", "152317.107500", "152317.897500", "152318.685000", "152319.472500", "152320.260000", "152321.050000", "152321.837500", "152322.625000", "152323.415000", "152324.202500", "152324.990000", "152325.777500", "152326.567500", "152327.355000", "152328.142500", "152328.930000", "152329.720000", "152330.507500", "152331.295000", "152332.082500", "152332.872500", "152333.660000", "152334.447500", "152335.235000", "152336.025000", "152336.812500", "152337.600000", "152338.387500", "152339.177500", "152339.965000", "152340.752500", "152341.542500", "152342.330000", "152343.117500", "152343.905000", "152344.695000", "152345.482500", "152346.270000", "152347.057500", "152347.847500", "152348.635000", "152349.422500", "152350.210000", "152351.000000", "152351.787500", "152352.575000", "152353.362500", "152354.152500", "152354.940000", "152355.727500", "152356.515000", "152357.305000", "152358.092500", "152358.880000", "152359.670000", "152400.457500", "152401.245000", "152402.032500", "152402.822500", "152403.610000", "152404.397500", "152405.185000", "152405.975000", "152406.762500", "152407.550000", "152408.337500", "152409.127500", "152409.915000", "152410.702500", "152411.490000", "152412.280000", "152413.067500", "152413.855000", "152414.642500", "152415.432500", "152416.220000", "152417.007500", "152417.797500", "152418.585000", "152419.372500", "152420.160000", "152420.950000", "152421.737500", "152422.525000", "152423.312500", "152424.102500", "152424.890000", "152425.677500", "152426.465000", "152427.255000", "152428.042500", "152428.830000", "152429.617500", "152430.407500", "152431.195000", "152431.982500", "152432.770000", "152433.560000", "152434.347500", "152435.135000", "152435.925000", "152436.712500", "152437.500000", "152438.287500", "152439.077500", "152439.865000", "152440.652500", "152441.440000", "152442.230000", "152443.017500", "152443.805000", "152444.592500", "152445.382500", "152446.170000", "152446.957500", "152447.745000", "152448.535000", "152449.322500", "152450.110000", "152450.897500", "152451.687500", "152452.475000", "152453.262500", "152454.052500", "152454.840000", "152455.627500", "152456.415000", "152457.205000", "152457.992500", "152458.780000", "152459.567500", "152500.357500", "152501.145000", "152501.932500", "152502.720000", "152503.510000", "152504.297500", "152505.085000", "152505.872500", "152506.662500", "152507.450000", "152508.237500", "152509.025000", "152509.815000", "152510.602500", "152511.390000", "152512.180000", "152512.967500", "152513.755000", "152514.542500", "152515.332500", "152516.120000", "152516.907500", "152517.695000", "152518.485000", "152519.272500", "152520.060000", "152520.847500", "152521.637500", "152522.425000", "152523.212500", "152524.000000", "152524.790000", "152525.577500", "152526.365000", "152527.152500", "152527.942500", "152528.730000", "152529.517500", "152530.307500", "152531.095000", "152531.882500", "152532.670000", "152533.460000", "152534.247500", "152535.035000", "152535.822500", "152536.612500", "152537.400000", "152538.187500", "152538.975000", "152539.765000", "152540.552500", "152541.340000", "152542.127500", "152542.917500", "152543.705000", "152544.492500", "152545.280000", "152546.070000", "152546.857500", "152547.645000", "152548.435000", "152549.222500", "152550.010000", "152550.797500", "152551.587500", "152552.375000", "152553.162500", "152553.950000", "152554.740000", "152555.527500", "152556.315000", "152557.102500", "152557.892500", "152558.680000", "152559.467500", "152600.255000", "152601.045000", "152601.832500", "152602.620000", "152603.407500", "152604.197500", "152604.985000", "152605.772500", "152606.562500", "152607.350000", "152608.137500", "152608.925000", "152609.715000", "152610.502500", "152611.290000", "152612.077500", "152612.867500", "152613.655000", "152614.442500", "152615.230000", "152616.020000", "152616.807500", "152617.595000", "152618.382500", "152619.172500", "152619.960000", "152620.747500", "152621.537500", "152622.325000", "152623.112500", "152623.900000", "152624.690000", "152625.477500", "152626.265000", "152627.052500", "152627.842500", "152628.630000", "152629.417500", "152630.205000", "152630.995000", "152631.782500", "152632.570000", "152633.357500", "152634.147500", "152634.935000", "152635.722500", "152636.510000", "152637.300000", "152638.087500", "152638.875000", "152639.665000", "152640.452500", "152641.240000", "152642.027500", "152642.817500", "152643.605000", "152644.392500", "152645.180000", "152645.970000", "152646.757500", "152647.545000", "152648.332500", "152649.122500", "152649.910000", "152650.697500", "152651.485000", "152652.275000", "152653.062500", "152653.850000", "152654.637500", "152655.427500", "152656.215000", "152657.002500", "152657.792500", "152658.580000", "152659.367500", "152700.155000", "152700.945000", "152701.732500", "152702.520000", "152703.307500", "152704.097500", "152704.885000", "152705.672500", "152706.460000", "152707.250000", "152708.037500", "152708.825000", "152709.612500", "152710.402500", "152711.190000", "152711.977500", "152712.765000", "152713.555000", "152714.342500", "152715.130000", "152715.920000", "152716.707500", "152717.495000", "152718.282500", "152719.072500", "152719.860000", "152720.647500", "152721.435000", "152722.225000", "152723.012500", "152723.800000", "152724.587500", "152725.377500", "152726.165000", "152726.952500", "152727.740000", "152728.530000", "152729.317500", "152730.105000", "152730.892500", "152731.682500", "152732.470000", "152733.257500", "152734.047500", "152734.835000", "152735.622500", "152736.410000", "152737.200000", "152737.987500", "152738.775000", "152739.562500", "152740.352500", "152741.140000", "152741.927500", "152742.715000", "152743.505000", "152744.292500", "152745.080000", "152745.867500", "152746.657500", "152747.445000", "152748.232500", "152749.020000", "152749.810000", "152750.597500", "152751.385000", "152752.175000", "152752.962500", "152753.750000", "152754.537500", "152755.327500", "152756.115000", "152756.902500", "152757.690000", "152758.480000", "152759.267500", "152800.055000", "152800.842500", "152801.632500", "152802.420000", "152803.207500", "152803.995000", "152804.785000", "152805.572500", "152806.360000", "152807.147500", "152807.937500", "152808.725000", "152809.512500", "152810.302500", "152811.090000", "152811.877500", "152812.665000", "152813.455000", "152814.242500", "152815.030000", "152815.817500", "152816.607500", "152817.395000", "152818.182500", "152818.970000", "152819.760000", "152820.547500", "152821.335000", "152822.122500", "152822.912500", "152823.700000", "152824.487500", "152825.275000", "152826.065000", "152826.852500", "152827.640000", "152828.430000", "152829.217500", "152830.005000", "152830.792500", "152831.582500", "152832.370000", "152833.157500", "152833.945000", "152834.735000", "152835.522500", "152836.310000", "152837.097500", "152837.887500", "152838.675000", "152839.462500", "152840.250000", "152841.040000", "152841.827500", "152842.615000", "152843.402500", "152844.192500", "152844.980000", "152845.767500", "152846.557500", "152847.345000", "152848.132500", "152848.920000", "152849.710000", "152850.497500", "152851.285000", "152852.072500", "152852.862500", "152853.650000", "152854.437500", "152855.225000", "152856.015000", "152856.802500", "152857.590000", "152858.377500", "152859.167500", "152859.955000", "152900.742500", "152901.530000", "152902.320000", "152903.107500", "152903.895000", "152904.685000", "152905.472500", "152906.260000", "152907.047500", "152907.837500", "152908.625000", "152909.412500", "152910.200000", "152910.990000", "152911.777500", "152912.565000", "152913.352500", "152914.142500", "152914.930000", "152915.717500", "152916.505000", "152917.295000", "152918.082500", "152918.870000", "152919.657500", "152920.447500", "152921.235000", "152922.022500", "152922.812500", "152923.600000", "152924.387500", "152925.175000", "152925.965000", "152926.752500", "152927.540000", "152928.327500", "152929.117500", "152929.905000", "152930.692500", "152931.480000", "152932.270000", "152933.057500", "152933.845000", "152934.632500", "152935.422500", "152936.210000", "152936.997500", "152937.787500", "152938.575000", "152939.362500", "152940.150000", "152940.940000", "152941.727500", "152942.515000", "152943.302500", "152944.092500", "152944.880000", "152945.667500", "152946.455000", "152947.245000", "152948.032500", "152948.820000", "152949.607500", "152950.397500", "152951.185000", "152951.972500", "152952.760000", "152953.550000", "152954.337500", "152955.125000", "152955.915000", "152956.702500", "152957.490000", "152958.277500", "152959.067500", "152959.855000", "153000.642500", "153001.430000", "153002.220000", "153003.007500", "153003.795000", "153004.582500", "153005.372500", "153006.160000", "153006.947500", "153007.735000", "153008.525000", "153009.312500", "153010.100000", "153010.887500", "153011.677500", "153012.465000", "153013.252500", "153014.042500", "153014.830000", "153015.617500", "153016.405000", "153017.195000", "153017.982500", "153018.770000", "153019.557500", "153020.347500", "153021.135000", "153021.922500", "153022.710000", "153023.500000", "153024.287500", "153025.075000", "153025.862500", "153026.652500", "153027.440000", "153028.227500", "153029.015000", "153029.805000", "153030.592500", "153031.380000", "153032.170000", "153032.957500", "153033.745000", "153034.532500", "153035.322500", "153036.110000", "153036.897500", "153037.685000", "153038.475000", "153039.262500", "153040.050000", "153040.837500", "153041.627500", "153042.415000", "153043.202500", "153043.990000", "153044.780000", "153045.567500", "153046.355000", "153047.142500", "153047.932500", "153048.720000", "153049.507500", "153050.297500", "153051.085000", "153051.872500", "153052.660000", "153053.450000", "153054.237500", "153055.025000", "153055.812500", "153056.602500", "153057.390000", "153058.177500", "153058.965000", "153059.755000", "153100.542500", "153101.330000", "153102.117500", "153102.907500", "153103.695000", "153104.482500", "153105.270000", "153106.060000", "153106.847500", "153107.635000", "153108.425000", "153109.212500", "153110.000000", "153110.787500", "153111.577500", "153112.365000", "153113.152500", "153113.940000", "153114.730000", "153115.517500", "153116.305000", "153117.092500", "153117.882500", "153118.670000", "153119.457500", "153120.245000", "153121.035000", "153121.822500", "153122.610000", "153123.397500", "153124.187500", "153124.975000", "153125.762500", "153126.552500", "153127.340000", "153128.127500", "153128.915000", "153129.705000", "153130.492500", "153131.280000", "153132.067500", "153132.857500", "153133.645000", "153134.432500", "153135.220000", "153136.010000", "153136.797500", "153137.585000", "153138.372500", "153139.162500", "153139.950000", "153140.737500", "153141.525000", "153142.315000", "153143.102500", "153143.890000", "153144.680000", "153145.467500", "153146.255000", "153147.042500", "153147.832500", "153148.620000", "153149.407500", "153150.195000", "153150.985000", "153151.772500", "153152.560000", "153153.347500", "153154.137500", "153154.925000", "153155.712500", "153156.500000", "153157.290000", "153158.077500", "153158.865000", "153159.652500", "153200.442500", "153201.230000", "153202.017500", "153202.807500", "153203.595000", "153204.382500", "153205.170000", "153205.960000", "153206.747500", "153207.535000", "153208.322500", "153209.112500", "153209.900000", "153210.687500", "153211.475000", "153212.265000", "153213.052500", "153213.840000", "153214.627500", "153215.417500", "153216.205000", "153216.992500", "153217.780000", "153218.570000", "153219.357500", "153220.145000", "153220.935000", "153221.722500", "153222.510000", "153223.297500", "153224.087500", "153224.875000", "153225.662500", "153226.450000", "153227.240000", "153228.027500", "153228.815000", "153229.602500", "153230.392500", "153231.180000", "153231.967500", "153232.755000", "153233.545000", "153234.332500", "153235.120000", "153235.907500", "153236.697500", "153237.485000", "153238.272500", "153239.062500", "153239.850000", "153240.637500", "153241.425000", "153242.215000", "153243.002500", "153243.790000", "153244.577500", "153245.367500", "153246.155000", "153246.942500", "153247.730000", "153248.520000", "153249.307500", "153250.095000", "153250.882500", "153251.672500", "153252.460000", "153253.247500", "153254.037500", "153254.825000", "153255.612500", "153256.400000", "153257.190000", "153257.977500", "153258.765000", "153259.552500", "153300.342500", "153301.130000", "153301.917500", "153302.705000", "153303.495000", "153304.282500", "153305.070000", "153305.857500", "153306.647500", "153307.435000", "153308.222500", "153309.010000", "153309.800000", "153310.587500", "153311.375000", "153312.165000", "153312.952500", "153313.740000", "153314.527500", "153315.317500", "153316.105000", "153316.892500", "153317.680000", "153318.470000", "153319.257500", "153320.045000", "153320.832500", "153321.622500", "153322.410000", "153323.197500", "153323.985000", "153324.775000", "153325.562500", "153326.350000", "153327.137500", "153327.927500", "153328.715000", "153329.502500", "153330.292500", "153331.080000", "153331.867500", "153332.655000", "153333.445000", "153334.232500", "153335.020000", "153335.807500", "153336.597500", "153337.385000", "153338.172500", "153338.960000", "153339.750000", "153340.537500", "153341.325000", "153342.112500", "153342.902500", "153343.690000", "153344.477500", "153345.265000", "153346.055000", "153346.842500", "153347.630000", "153348.420000", "153349.207500", "153349.995000", "153350.782500", "153351.572500", "153352.360000", "153353.147500", "153353.935000", "153354.725000", "153355.512500", "153356.300000", "153357.087500", "153357.877500", "153358.665000", "153359.452500", "153400.240000", "153401.030000", "153401.817500", "153402.605000", "153403.392500", "153404.182500", "153404.970000", "153405.757500", "153406.547500", "153407.335000", "153408.122500", "153408.910000", "153409.700000", "153410.487500", "153411.275000", "153412.062500", "153412.852500", "153413.640000", "153414.427500", "153415.215000", "153416.005000", "153416.792500", "153417.580000", "153418.367500", "153419.157500", "153419.945000", "153420.732500", "153421.520000", "153422.310000", "153423.097500", "153423.885000", "153424.675000", "153425.462500", "153426.250000", "153427.037500", "153427.827500", "153428.615000", "153429.402500", "153430.190000", "153430.980000", "153431.767500", "153432.555000", "153433.342500", "153434.132500", "153434.920000"],
