{
  "AcquisitionMatrixPE": 104,
  "AcquisitionNumber": 1,
  "AcquisitionTime": "11:54:47.710000",
  "BandwidthPerPixelPhaseEncode": 13.935,
  "BaseResolution": 104,
  "CoilString": "C:HEA;HEP",
  "ConversionSoftware": "dcm2niix",
  "ConversionSoftwareVersion": "v1.0.20210317",
  "DerivedVendorReportedEchoSpacing": 0.000690017,
  "DeviceSerialNumber": "35450",
  "DwellTime": 2.5e-06,
  "EchoTime": 0.0348,
  "EffectiveEchoSpacing": 0.000690017,
  "FlipAngle": 55,
  "ImageComments": "Unaliased MB8/PE3 (remote)",
  "ImageOrientationPatientDICOM": [0.999616, 0.00399827, 0.0274065, -1.3752e-08, 0.989525, -0.144359],
  "ImageType": [
    "ORIGINAL",
    "PRIMARY",
    "M",
    "MB",
    "ND",
    "MOSAIC"
],
  "ImagingFrequency": 123.234,
  "InPlanePhaseEncodingDirectionDICOM": "COL",
  "InstitutionAddress": "Univeristy Ave. 197,Newark,North East,US,07102-1814",
  "InstitutionName": "RUBIC",
  "InstitutionalDepartmentName": "Department",
  "MRAcquisitionType": "2D",
  "MagneticFieldStrength": 3,
  "Manufacturer": "Siemens",
  "ManufacturersModelName": "TrioTim",
  "Modality": "MR",
  "MultibandAccelerationFactor": 8,
  "PartialFourier": 0.875,
  "PatientPosition": "HFS",
  "PercentPhaseFOV": 100,
  "PercentSampling": 100,
  "PhaseEncodingDirection": "j-",
  "PhaseEncodingSteps": 91,
  "PhaseResolution": 1,
  "PixelBandwidth": 1923,
  "ProcedureStepDescription": "Cole^Michael",
  "ProtocolName": "cmrr_mbep2d_bold_2mm_MB8_Task_8x",
  "PulseSequenceDetails": "%CustomerSeq%\\cmrr_mbep2d_bold",
  "ReceiveCoilName": "32Ch_Head",
  "ReconMatrixPE": 104,
  "RepetitionTime": 0.785,
  "SAR": 0.125016,
  "ScanOptions": "PFP\\FS",
  "ScanningSequence": "EP",
  "SequenceName": "epfid2d1_104",
  "SequenceVariant": "SK\\SS",
  "SeriesDescription": "cmrr_mbep2d_bold_2mm_MB8_Task_8x",
  "SeriesNumber": 21,
  "ShimSetting": [2128, -322, -7373, 547, 51, -542, -8, -10],
  "SliceThickness": 2,
  "SliceTiming": [0, 0.4375, 0.0875, 0.525, 0.175, 0.6125, 0.2625, 0.7, 0.35, 0, 0.4375, 0.0875, 0.525, 0.175, 0.6125, 0.2625, 0.7, 0.35, 0, 0.4375, 0.0875, 0.525, 0.175, 0.6125, 0.2625, 0.7, 0.35, 0, 0.4375, 0.0875, 0.525, 0.175, 0.6125, 0.2625, 0.7, 0.35, 0, 0.4375, 0.0875, 0.525, 0.175, 0.6125, 0.2625, 0.7, 0.35, 0, 0.4375, 0.0875, 0.525, 0.175, 0.6125, 0.2625, 0.7, 0.35, 0, 0.4375, 0.0875, 0.525, 0.175, 0.6125, 0.2625, 0.7, 0.35, 0, 0.4375, 0.0875, 0.525, 0.175, 0.6125, 0.2625, 0.7, 0.35],
  "SoftwareVersions": "syngo MR B19",
  "SpacingBetweenSlices": 2,
  "StationName": "MRC35450",
  "TaskName": "cpro",
  "TotalReadoutTime": 0.0710717,
  "TxRefAmp": 334.919,
  "dcmmeta_affine": [
    [-1.9992327690124512, -2.7503990196464656e-08, 0.055393192917108536, 104.67391204833984],
    [-0.007996533997356892, 1.9790507555007935, -0.28860729932785034, -80.97930908203125],
    [0.0548129677772522, 0.288718044757843, 1.978291630744934, -121.36760711669922],
    [0.0, 0.0, 0.0, 1.0]
],
  "dcmmeta_reorient_transform": [
    [0.0, -1.0, 0.0, 103.0],
    [1.0, 0.0, 0.0, 0.0],
    [0.0, 0.0, 1.0, 0.0],
    [0.0, 0.0, 0.0, 1.0]
],
  "dcmmeta_shape": [104, 104, 72, 581],
  "dcmmeta_slice_dim": 2,
  "dcmmeta_version": 0.6,
  "global": {
    "const": {
      "AcquisitionMatrix": [104, 0, 0, 104],
      "AngioFlag": "N",
      "BitsAllocated": 16,
      "BitsStored": 12,
      "Columns": 936,
      "EchoNumbers": 1,
      "EchoTime": 34.8,
      "EchoTrainLength": 1,
      "FlipAngle": 55.0,
      "HighBit": 11,
      "ImageOrientationPatient": [0.99961637568332, 0.00399826719521, 0.02740648326906, -1.3751995e-08, 0.98952537758873, -0.1443590215674],
      "ImagePositionPatient": [-936.35472246978, -949.47458857954, 5.6748664966275],
      "ImageType": [
        "ORIGINAL",
        "PRIMARY",
        "M",
        "MB",
        "ND",
        "MOSAIC"
],
      "ImagedNucleus": "1H",
      "ImagingFrequency": 123.234453,
      "InPlanePhaseEncodingDirection": "COL",
      "MRAcquisitionType": "2D",
      "MagneticFieldStrength": 3.0,
      "Manufacturer": "SIEMENS",
      "ManufacturerModelName": "TrioTim",
      "Modality": "MR",
      "NumberOfAverages": 1.0,
      "NumberOfPhaseEncodingSteps": 91,
      "PercentPhaseFieldOfView": 100.0,
      "PercentSampling": 100.0,
      "PerformedProcedureStepStartTime": "100138.484000",
      "PhotometricInterpretation": "MONOCHROME2",
      "PixelBandwidth": 1923.0,
      "PixelRepresentation": 0,
      "PixelSpacing": [2.0, 2.0],
      "ProtocolName": "cmrr_mbep2d_bold_2mm_MB8_Task_8x",
      "RepetitionTime": 785.0,
      "Rows": 936,
      "SAR": 0.12501569887107,
      "SamplesPerPixel": 1,
      "ScanOptions": [
        "PFP",
        "FS"
],
      "ScanningSequence": "EP",
      "SequenceName": "epfid2d1_104",
      "SequenceVariant": [
        "SK",
        "SS"
],
      "SeriesDescription": "cmrr_mbep2d_bold_2mm_MB8_Task_8x",
      "SeriesNumber": 21,
      "SeriesTime": "115521.640000",
      "SliceLocation": -105.46553143508,
      "SliceThickness": 2.0,
      "SmallestImagePixelValue": 0,
      "SoftwareVersions": "syngo MR B19",
      "SpacingBetweenSlices": 2.000000033951,
      "SpecificCharacterSet": "ISO_IR 100",
      "StudyID": "1",
      "StudyTime": "100138.359000",
      "TransmitCoilName": "Body",
      "VariableFlipAngleFlag": "N",
      "WindowCenterWidthExplanation": "Algo1",
      "dBdt": 0.0},
    "slices": {}
  },
  "time": {
    "samples": {
      "AcquisitionNumber": [1, 2, 3, 4, 5, 6, 7, 8, 9, 10, 11, 12, 13, 14, 15, 16, 17, 18, 19, 20, 21, 22, 23, 24, 25, 26, 27, 28, 29, 30, 31, 32, 33, 34, 35, 36, 37, 38, 39, 40, 41, 42, 43, 44, 45, 46, 47, 48, 49, 50, 51, 52, 53, 54, 55, 56, 57, 58, 59, 60, 61, 62, 63, 64, 65, 66, 67, 68, 69, 70, 71, 72, 73, 74, 75, 76, 77, 78, 79, 80, 81, 82, 83, 84, 85, 86, 87, 88, 89, 90, 91, 92, 93, 94, 95, 96, 97, 98, 99, 100, 101, 102, 103, 104, 105, 106, 107, 108, 109, 110, 111, 112, 113, 114, 115, 116, 117, 118, 119, 120, 121, 122, 123, 124, 125, 126, 127, 128, 129, 130, 131, 132, 133, 134, 135, 136, 137, 138, 139, 140, 141, 142, 143, 144, 145, 146, 147, 148, 149, 150, 151, 152, 153, 154, 155, 156, 157, 158, 159, 160, 161, 162, 163, 164, 165, 166, 167, 168, 169, 170, 171, 172, 173, 174, 175, 176, 177, 178, 179, 180, 181, 182, 183, 184, 185, 186, 187, 188, 189, 190, 191, 192, 193, 194, 195, 196, 197, 198, 199, 200, 201, 202, 203, 204, 205, 206, 207, 208, 209, 210, 211, 212, 213, 214, 215, 216, 217, 218, 219, 220, 221, 222, 223, 224, 225, 226, 227, 228, 229, 230, 231, 232, 233, 234, 235, 236, 237, 238, 239, 240, 241, 242, 243, 244, 245, 246, 247, 248, 249, 250, 251, 252, 253, 254, 255, 256, 257, 258, 259, 260, 261, 262, 263, 264, 265, 266, 267, 268, 269, 270, 271, 272, 273, 274, 275, 276, 277, 278, 279, 280, 281, 282, 283, 284, 285, 286, 287, 288, 289, 290, 291, 292, 293, 294, 295, 296, 297, 298, 299, 300, 301, 302, 303, 304, 305, 306, 307, 308, 309, 310, 311, 312, 313, 314, 315, 316, 317, 318, 319, 320, 321, 322, 323, 324, 325, 326, 327, 328, 329, 330, 331, 332, 333, 334, 335, 336, 337, 338, 339, 340, 341, 342, 343, 344, 345, 346, 347, 348, 349, 350, 351, 352, 353, 354, 355, 356, 357, 358, 359, 360, 361, 362, 363, 364, 365, 366, 367, 368, 369, 370, 371, 372, 373, 374, 375, 376, 377, 378, 379, 380, 381, 382, 383, 384, 385, 386, 387, 388, 389, 390, 391, 392, 393, 394, 395, 396, 397, 398, 399, 400, 401, 402, 403, 404, 405, 406, 407, 408, 409, 410, 411, 412, 413, 414, 415, 416, 417, 418, 419, 420, 421, 422, 423, 424, 425, 426, 427, 428, 429, 430, 431, 432, 433, 434, 435, 436, 437, 438, 439, 440, 441, 442, 443, 444, 445, 446, 447, 448, 449, 450, 451, 452, 453, 454, 455, 456, 457, 458, 459, 460, 461, 462, 463, 464, 465, 466, 467, 468, 469, 470, 471, 472, 473, 474, 475, 476, 477, 478, 479, 480, 481, 482, 483, 484, 485, 486, 487, 488, 489, 490, 491, 492, 493, 494, 495, 496, 497, 498, 499, 500, 501, 502, 503, 504, 505, 506, 507, 508, 509, 510, 511, 512, 513, 514, 515, 516, 517, 518, 519, 520, 521, 522, 523, 524, 525, 526, 527, 528, 529, 530, 531, 532, 533, 534, 535, 536, 537, 538, 539, 540, 541, 542, 543, 544, 545, 546, 547, 548, 549, 550, 551, 552, 553, 554, 555, 556, 557, 558, 559, 560, 561, 562, 563, 564, 565, 566, 567, 568, 569, 570, 571, 572, 573, 574, 575, 576, 577, 578, 579, 580, 581],
      "AcquisitionTime": ["115447.710000", "115448.497500", "115449.287500", "115450.075000", "115450.862500", "115451.650000", "115452.440000", "115453.227500", "115454.015000", "115454.805000", "115455.592500", "115456.380000", "115457.167500", "115457.957500", "115458.745000", "115459.532500", "115500.320000", "115501.110000", "115501.897500", "115502.685000", "115503.472500", "115504.262500", "115505.050000", "115505.837500", "115506.625000", "115507.415000", "115508.202500", "115508.990000", "115509.777500", "115510.567500", "115511.355000", "115512.142500", "115512.932500", "115513.720000", "115514.507500", "115515.295000", "115516.085000", "115516.872500", "115517.660000", "115518.447500", "115519.237500", "115520.025000", "115520.812500", "115521.600000", "115522.390000", "115523.177500", "115523.965000", "115524.752500", "115525.542500", "115526.330000", "115527.117500", "115527.905000", "115528.695000", "115529.482500", "115530.270000", "115531.060000", "115531.847500", "115532.635000", "115533.422500", "115534.212500", "115535.000000", "115535.787500", "115536.575000", "115537.365000", "115538.152500", "115538.940000", "115539.727500", "115540.517500", "115541.305000", "115542.092500", "115542.880000", "115543.670000", "115544.457500", "115545.245000", "115546.032500", "115546.822500", "115547.610000", "115548.397500", "115549.187500", "115549.975000", "115550.762500", "115551.550000", "115552.340000", "115553.127500", "115553.915000", "115554.702500", "115555.492500", "115556.280000", "115557.067500", "115557.855000", "115558.645000", "115559.432500", "115600.220000", "115601.007500", "115601.797500", "115602.585000", "115603.372500", "115604.160000", "115604.950000", "115605.737500", "115606.525000", "115607.315000", "115608.102500", "115608.890000", "115609.677500", "115610.467500", "115611.255000", "115612.042500", "115612.830000", "115613.620000", "115614.407500", "115615.195000", "115615.982500", "115616.772500", "115617.560000", "115618.347500", "115619.135000", "115619.925000", "115620.712500", "115621.500000", "115622.287500", "115623.077500", "115623.865000", "115624.652500", "115625.442500", "115626.230000", "115627.017500", "115627.805000", "115628.595000", "115629.382500", "115630.170000", "115630.957500", "115631.747500", "115632.535000", "115633.322500", "115634.110000", "115634.900000", "115635.687500", "115636.475000", "115637.262500", "115638.052500", "115638.840000", "115639.627500", "115640.417500", "115641.205000", "115641.992500", "115642.780000", "115643.570000", "115644.357500", "115645.145000", "115645.932500", "115646.722500", "115647.510000", "115648.297500", "115649.085000", "115649.875000", "115650.662500", "115651.450000", "115652.237500", "115653.027500", "115653.815000", "115654.602500", "115655.390000", "115656.180000", "115656.967500", "115657.755000", "115658.545000", "115659.332500", "115700.120000", "115700.907500", "115701.697500", "115702.485000", "115703.272500", "115704.060000", "115704.850000", "115705.637500", "115706.425000", "115707.212500", "115708.002500", "115708.790000", "115709.577500", "115710.365000", "115711.155000", "115711.942500", "115712.730000", "115713.517500", "115714.307500", "115715.095000", "115715.882500", "115716.672500", "115717.460000", "115718.247500", "115719.035000", "115719.825000", "115720.612500", "115721.400000", "115722.187500", "115722.977500", "115723.765000", "115724.552500", "115725.340000", "115726.130000", "115726.917500", "115727.705000", "115728.492500", "115729.282500", "115730.070000", "115730.857500", "115731.645000", "115732.435000", "115733.222500", "115734.010000", "115734.800000", "115735.587500", "115736.375000", "115737.162500", "115737.952500", "115738.740000", "115739.527500", "115740.315000", "115741.105000", "115741.892500", "115742.680000", "115743.467500", "115744.257500", "115745.045000", "115745.832500", "115746.620000", "115747.410000", "115748.197500", "115748.985000", "115749.772500", "115750.562500", "115751.350000", "115752.137500", "115752.927500", "115753.715000", "115754.502500", "115755.290000", "115756.080000", "115756.867500", "115757.655000", "115758.442500", "115759.232500", "115800.020000", "115800.807500", "115801.595000", "115802.385000", "115803.172500", "115803.960000", "115804.747500", "115805.537500", "115806.325000", "115807.112500", "115807.900000", "115808.690000", "115809.477500", "115810.265000", "115811.055000", "115811.842500", "115812.630000", "115813.417500", "115814.207500", "115814.995000", "115815.782500", "115816.570000", "115817.360000", "115818.147500", "115818.935000", "115819.722500", "115820.512500", "115821.300000", "115822.087500", "115822.875000", "115823.665000", "115824.452500", "115825.240000", "115826.027500", "115826.817500", "115827.605000", "115828.392500", "115829.182500", "115829.970000", "115830.757500", "115831.545000", "115832.335000", "115833.122500", "115833.910000", "115834.697500", "115835.487500", "115836.275000", "115837.062500", "115837.850000", "115838.640000", "115839.427500", "115840.215000", "115841.002500", "115841.792500", "115842.580000", "115843.367500", "115844.155000", "115844.945000", "115845.732500", "115846.520000", "115847.310000", "115848.097500", "115848.885000", "115849.672500", "115850.462500", "115851.250000", "115852.037500", "115852.825000", "115853.615000", "115854.402500", "115855.190000", "115855.977500", "115856.767500", "115857.555000", "115858.342500", "115859.130000", "115859.920000", "115900.707500", "115901.495000", "115902.282500", "115903.072500", "115903.860000", "115904.647500", "115905.437500", "115906.225000", "115907.012500", "115907.800000", "115908.590000", "115909.377500", "115910.165000", "115910.952500", "115911.742500", "115912.530000", "115913.317500", "115914.105000", "115914.895000", "115915.682500", "115916.470000", "115917.257500", "115918.047500", "115918.835000", "115919.622500", "115920.410000", "115921.200000", "115921.987500", "115922.775000", "115923.565000", "115924.352500", "115925.140000", "115925.927500", "115926.717500", "115927.505000", "115928.292500", "115929.080000", "115929.870000", "115930.657500", "115931.445000", "115932.232500", "115933.022500", "115933.810000", "115934.597500", "115935.385000", "115936.175000", "115936.962500", "115937.750000", "115938.537500", "115939.327500", "115940.115000", "115940.902500", "115941.692500", "115942.480000", "115943.267500", "115944.055000", "115944.845000", "115945.632500", "115946.420000", "115947.207500", "115947.997500", "115948.785000", "115949.572500", "115950.360000", "115951.150000", "115951.937500", "115952.725000", "115953.512500", "115954.302500", "115955.090000", "115955.877500", "115956.667500", "115957.455000", "115958.242500", "115959.030000", "115959.820000", "120000.607500", "120001.395000", "120002.182500", "120002.972500", "120003.760000", "120004.547500", "120005.335000", "120006.125000", "120006.912500", "120007.700000", "120008.487500", "120009.277500", "120010.065000", "120010.852500", "120011.640000", "120012.430000", "120013.217500", "120014.005000", "120014.795000", "120015.582500", "120016.370000", "120017.157500", "120017.947500", "120018.735000", "120019.522500", "120020.310000", "120021.100000", "120021.887500", "120022.675000", "120023.462500", "120024.252500", "120025.040000", "120025.827500", "120026.615000", "120027.405000", "120028.192500", "120028.980000", "120029.767500", "120030.557500", "120031.345000", "120032.132500", "120032.922500", "120033.710000", "120034.497500", "120035.285000", "120036.075000", "120036.862500", "120037.650000", "120038.437500", "120039.227500", "120040.015000", "120040.802500", "120041.590000", "120042.380000", "120043.167500", "120043.955000", "120044.742500", "120045.532500", "120046.320000", "120047.107500", "120047.895000", "120048.685000", "120049.472500", "120050.260000", "120051.050000", "120051.837500", "120052.625000", "120053.412500", "120054.202500", "120054.990000", "120055.777500", "120056.565000", "120057.355000", "120058.142500", "120058.930000", "120059.717500", "120100.507500", "120101.295000", "120102.082500", "120102.870000", "120103.660000", "120104.447500", "120105.235000", "120106.022500", "120106.812500", "120107.600000", "120108.387500", "120109.177500", "120109.965000", "120110.752500", "120111.540000", "120112.330000", "120113.117500", "120113.905000", "120114.692500", "120115.482500", "120116.270000", "120117.057500", "120117.845000", "120118.635000", "120119.422500", "120120.210000", "120120.997500", "120121.787500", "120122.575000", "120123.362500", "120124.150000", "120124.940000", "120125.727500", "120126.515000", "120127.305000", "120128.092500", "120128.880000", "120129.667500", "120130.457500", "120131.245000", "120132.032500", "120132.820000", "120133.610000", "120134.397500", "120135.185000", "120135.972500", "120136.762500", "120137.550000", "120138.337500", "120139.125000", "120139.915000", "120140.702500", "120141.490000", "120142.277500", "120143.067500", "120143.855000", "120144.642500", "120145.432500", "120146.220000", "120147.007500", "120147.795000", "120148.585000", "120149.372500", "120150.160000", "120150.947500", "120151.737500", "120152.525000", "120153.312500", "120154.100000", "120154.890000", "120155.677500", "120156.465000", "120157.252500", "120158.042500", "120158.830000", "120159.617500", "120200.405000", "120201.195000", "120201.982500", "120202.770000", "120203.560000", "120204.347500", "120205.135000", "120205.922500", "120206.712500", "120207.500000", "120208.287500", "120209.075000", "120209.865000", "120210.652500", "120211.440000", "120212.227500", "120213.017500", "120213.805000", "120214.592500", "120215.380000", "120216.170000", "120216.957500", "120217.745000", "120218.532500", "120219.322500", "120220.110000", "120220.897500", "120221.687500", "120222.475000", "120223.262500", "120224.050000", "120224.840000"],
      "ContentTime": ["115521.640000", "115521.640000", "115521.656000", "115521.656000", "115521.656000", "115521.656000", "115521.656000", "115521.656000", "115521.656000", "115521.671000", "115521.671000", "115521.671000", "115521.671000", "115521.671000", "115521.671000", "115521.671000", "115521.671000", "115521.687000", "115521.687000", "115521.687000", "115521.687000", "115521.687000", "115521.687000", "115521.687000", "115521.687000", "115521.703000", "115521.703000", "115521.703000", "115521.703000", "115521.703000", "115521.703000", "115521.718000", "115521.718000", "115521.718000", "115521.718000", "115521.718000", "115521.734000", "115521.734000", "115521.734000", "115521.734000", "115541.625000", "115541.625000", "115541.625000", "115541.625000", "115541.625000", "115541.625000", "115541.640000", "115541.640000", "115541.640000", "115541.640000", "115541.640000", "115541.640000", "115541.640000", "115541.640000", "115541.656000", "115541.656000", "115541.656000", "115541.656000", "115541.656000", "115541.656000", "115541.656000", "115541.671000", "115541.671000", "115541.671000", "115541.671000", "115541.671000", "115601.625000", "115601.625000", "115601.625000", "115601.625000", "115601.625000", "115601.625000", "115601.640000", "115601.640000", "115601.640000", "115601.640000", "115601.640000", "115601.640000", "115601.656000", "115601.656000", "115601.656000", "115601.656000", "115601.656000", "115601.656000", "115601.656000", "115601.671000", "115601.671000", "115601.671000", "115601.671000", "115601.671000", "115601.671000", "115621.625000", "115621.625000", "115621.625000", "115621.625000", "115621.625000", "115621.625000", "115621.640000", "115621.640000", "115621.640000", "115621.640000", "115621.640000", "115621.640000", "115621.640000", "115621.656000", "115621.656000", "115621.656000", "115621.656000", "115621.656000", "115621.656000", "115621.656000", "115621.671000", "115621.671000", "115621.671000", "115621.671000", "115621.671000", "115621.671000", "115641.625000", "115641.625000", "115641.625000", "115641.625000", "115641.625000", "115641.625000", "115641.640000", "115641.640000", "115641.640000", "115641.640000", "115641.640000", "115641.640000", "115641.640000", "115641.656000", "115641.656000", "115641.656000", "115641.656000", "115641.656000", "115641.656000", "115641.656000", "115641.671000", "115641.671000", "115641.671000", "115641.671000", "115641.687000", "115701.625000", "115701.625000", "115701.625000", "115701.625000", "115701.640000", "115701.640000", "115701.640000", "115701.640000", "115701.640000", "115701.640000", "115701.656000", "115701.656000", "115701.656000", "115701.656000", "115701.656000", "115701.656000", "115701.656000", "115701.656000", "115701.671000", "115701.671000", "115701.671000", "115701.671000", "115701.671000", "115701.671000", "115701.671000", "115701.687000", "115721.625000", "115721.625000", "115721.625000", "115721.625000", "115721.625000", "115721.625000", "115721.640000", "115721.640000", "115721.640000", "115721.640000", "115721.640000", "115721.640000", "115721.640000", "115721.656000", "115721.656000", "115721.656000", "115721.656000", "115721.656000", "115721.656000", "115721.656000", "115721.671000", "115721.671000", "115721.671000", "115721.671000", "115721.671000", "115741.625000", "115741.625000", "115741.625000", "115741.625000", "115741.625000", "115741.625000", "115741.640000", "115741.640000", "115741.640000", "115741.640000", "115741.640000", "115741.640000", "115741.640000", "115741.656000", "115741.656000", "115741.656000", "115741.656000", "115741.656000", "115741.656000", "115741.656000", "115741.656000", "115741.671000", "115741.671000", "115741.671000", "115741.671000", "115741.671000", "115801.625000", "115801.625000", "115801.625000", "115801.625000", "115801.625000", "115801.625000", "115801.640000", "115801.640000", "115801.640000", "115801.640000", "115801.640000", "115801.640000", "115801.640000", "115801.656000", "115801.656000", "115801.656000", "115801.656000", "115801.656000", "115801.656000", "115801.656000", "115801.656000", "115801.671000", "115801.671000", "115801.671000", "115801.671000", "115821.625000", "115821.625000", "115821.625000", "115821.625000", "115821.625000", "115821.625000", "115821.640000", "115821.640000", "115821.640000", "115821.640000", "115821.640000", "115821.640000", "115821.640000", "115821.656000", "115821.656000", "115821.656000", "115821.656000", "115821.656000", "115821.656000", "115821.656000", "115821.671000", "115821.671000", "115821.671000", "115821.671000", "115821.671000", "115821.671000", "115841.625000", "115841.625000", "115841.625000", "115841.625000", "115841.625000", "115841.625000", "115841.640000", "115841.640000", "115841.640000", "115841.640000", "115841.640000", "115841.640000", "115841.640000", "115841.656000", "115841.656000", "115841.656000", "115841.656000", "115841.656000", "115841.671000", "115841.671000", "115841.671000", "115841.671000", "115841.671000", "115841.671000", "115841.671000", "115901.625000", "115901.625000", "115901.625000", "115901.625000", "115901.625000", "115901.625000", "115901.640000", "115901.640000", "115901.640000", "115901.640000", "115901.640000", "115901.640000", "115901.640000", "115901.656000", "115901.656000", "115901.656000", "115901.656000", "115901.656000", "115901.656000", "115901.656000", "115901.671000", "115901.671000", "115901.671000", "115901.671000", "115901.671000", "115901.671000", "115921.625000", "115921.625000", "115921.625000", "115921.625000", "115921.625000", "115921.625000", "115921.640000", "115921.640000", "115921.640000", "115921.640000", "115921.640000", "115921.640000", "115921.640000", "115921.656000", "115921.656000", "115921.656000", "115921.656000", "115921.656000", "115921.656000", "115921.656000", "115921.656000", "115921.671000", "115921.671000", "115921.671000", "115921.671000", "115941.625000", "115941.625000", "115941.625000", "115941.625000", "115941.625000", "115941.625000", "115941.640000", "115941.640000", "115941.640000", "115941.640000", "115941.640000", "115941.640000", "115941.640000", "115941.656000", "115941.656000", "115941.656000", "115941.656000", "115941.656000", "115941.656000", "115941.671000", "115941.671000", "115941.671000", "115941.671000", "115941.671000", "115941.671000", "115941.671000", "120001.625000", "120001.625000", "120001.625000", "120001.625000", "120001.625000", "120001.625000", "120001.640000", "120001.640000", "120001.640000", "120001.640000", "120001.640000", "120001.640000", "120001.640000", "120001.656000", "120001.656000", "120001.656000", "120001.656000", "120001.656000", "120001.656000", "120001.656000", "120001.656000", "120001.671000", "120001.671000", "120001.671000", "120001.671000", "120021.625000", "120021.625000", "120021.625000", "120021.625000", "120021.625000", "120021.625000", "120021.640000", "120021.640000", "120021.640000", "120021.640000", "120021.640000", "120021.640000", "120021.640000", "120021.656000", "120021.656000", "120021.656000", "120021.656000", "120021.656000", "120021.656000", "120021.656000", "120021.671000", "120021.671000", "120021.671000", "120021.671000", "120021.671000", "120041.625000", "120041.625000", "120041.625000", "120041.625000", "120041.625000", "120041.625000", "120041.640000", "120041.640000", "120041.640000", "120041.640000", "120041.640000", "120041.640000", "120041.640000", "120041.656000", "120041.656000", "120041.656000", "120041.656000", "120041.656000", "120041.656000", "120041.656000", "120041.656000", "120041.671000", "120041.671000", "120041.671000", "120041.671000", "120041.671000", "120101.625000", "120101.625000", "120101.625000", "120101.625000", "120101.625000", "120101.625000", "120101.640000", "120101.640000", "120101.640000", "120101.640000", "120101.640000", "120101.640000", "120101.640000", "120101.656000", "120101.656000", "120101.656000", "120101.656000", "120101.656000", "120101.656000", "120101.656000", "120101.671000", "120101.671000", "120101.671000", "120101.671000", "120101.671000", "120101.671000", "120121.625000", "120121.625000", "120121.625000", "120121.625000", "120121.625000", "120121.625000", "120121.640000", "120121.640000", "120121.640000", "120121.640000", "120121.640000", "120121.640000", "120121.640000", "120121.656000", "120121.656000", "120121.656000", "120121.656000", "120121.656000", "120121.656000", "120121.656000", "120121.656000", "120121.671000", "120121.671000", "120121.671000", "120121.671000", "120141.625000", "120141.625000", "120141.625000", "120141.625000", "120141.625000", "120141.640000", "120141.640000", "120141.640000", "120141.640000", "120141.640000", "120141.640000", "120141.656000", "120141.656000", "120141.656000", "120141.656000", "120141.656000", "120141.656000", "120141.656000", "120141.671000", "120141.671000", "120141.671000", "120141.671000", "120141.671000", "120141.671000", "120141.671000", "120201.625000", "120201.625000", "120201.625000", "120201.625000", "120201.625000", "120201.625000", "120201.640000", "120201.640000", "120201.640000", "120201.640000", "120201.640000", "120201.640000", "120201.640000", "120201.656000", "120201.656000", "120201.656000", "120201.656000", "120201.656000", "120201.656000", "120201.656000", "120201.656000", "120201.671000", "120201.671000", "120201.671000", "120201.671000", "120201.671000", "120221.625000", "120221.625000", "120221.625000", "120221.625000", "120221.625000", "120221.625000", "120221.640000", "120221.640000", "120221.640000", "120221.640000", "120221.640000", "120221.640000", "120221.640000", "120221.656000", "120221.656000", "120221.656000", "120221.656000", "120221.656000", "120221.671000", "120221.671000", "120221.671000", "120221.671000", "120221.671000", "120221.687000", "120221.687000", "120225.734000", "120225.734000", "120225.734000", "120225.734000", "120225.750000", "120225.750000"],
