{
  "AcquisitionMatrixPE": 104,
  "AcquisitionNumber": 1,
  "AcquisitionTime": "11:37:19.707500",
  "BandwidthPerPixelPhaseEncode": 13.935,
  "BaseResolution": 104,
  "CoilString": "C:HEA;HEP",
  "ConversionSoftware": "dcm2niix",
  "ConversionSoftwareVersion": "v1.0.20210317",
  "DerivedVendorReportedEchoSpacing": 0.000690017,
  "DeviceSerialNumber": "35450",
  "DwellTime": 2.5e-06,
  "EchoTime": 0.0348,
  "EffectiveEchoSpacing": 0.000690017,
  "FlipAngle": 55,
  "ImageComments": "Unaliased MB8/PE3 (remote)",
  "ImageOrientationPatientDICOM": [0.999616, 0.00399827, 0.0274065, -1.3752e-08, 0.989525, -0.144359],
  "ImageType": [
    "ORIGINAL",
    "PRIMARY",
    "M",
    "MB",
    "ND",
    "MOSAIC"
],
  "ImagingFrequency": 123.234,
  "InPlanePhaseEncodingDirectionDICOM": "COL",
  "InstitutionAddress": "Univeristy Ave. 197,Newark,North East,US,07102-1814",
  "InstitutionName": "RUBIC",
  "InstitutionalDepartmentName": "Department",
  "MRAcquisitionType": "2D",
  "MagneticFieldStrength": 3,
  "Manufacturer": "Siemens",
  "ManufacturersModelName": "TrioTim",
  "Modality": "MR",
  "MultibandAccelerationFactor": 8,
  "PartialFourier": 0.875,
  "PatientPosition": "HFS",
  "PercentPhaseFOV": 100,
  "PercentSampling": 100,
  "PhaseEncodingDirection": "j-",
  "PhaseEncodingSteps": 91,
  "PhaseResolution": 1,
  "PixelBandwidth": 1923,
  "ProcedureStepDescription": "Cole^Michael",
  "ProtocolName": "cmrr_mbep2d_bold_2mm_MB8_Task_8x",
  "PulseSequenceDetails": "%CustomerSeq%\\cmrr_mbep2d_bold",
  "ReceiveCoilName": "32Ch_Head",
  "ReconMatrixPE": 104,
  "RepetitionTime": 0.785,
  "SAR": 0.125016,
  "ScanOptions": "PFP\\FS",
  "ScanningSequence": "EP",
  "SequenceName": "epfid2d1_104",
  "SequenceVariant": "SK\\SS",
  "SeriesDescription": "cmrr_mbep2d_bold_2mm_MB8_Task_8x",
  "SeriesNumber": 17,
  "ShimSetting": [2128, -322, -7373, 547, 51, -542, -8, -10],
  "SliceThickness": 2,
  "SliceTiming": [0, 0.4375, 0.0875, 0.525, 0.175, 0.6125, 0.2625, 0.7, 0.35, 0, 0.4375, 0.0875, 0.525, 0.175, 0.6125, 0.2625, 0.7, 0.35, 0, 0.4375, 0.0875, 0.525, 0.175, 0.6125, 0.2625, 0.7, 0.35, 0, 0.4375, 0.0875, 0.525, 0.175, 0.6125, 0.2625, 0.7, 0.35, 0, 0.4375, 0.0875, 0.525, 0.175, 0.6125, 0.2625, 0.7, 0.35, 0, 0.4375, 0.0875, 0.525, 0.175, 0.6125, 0.2625, 0.7, 0.35, 0, 0.4375, 0.0875, 0.525, 0.175, 0.6125, 0.2625, 0.7, 0.35, 0, 0.4375, 0.0875, 0.525, 0.175, 0.6125, 0.2625, 0.7, 0.35],
  "SoftwareVersions": "syngo MR B19",
  "SpacingBetweenSlices": 2,
  "StationName": "MRC35450",
  "TaskName": "cpro",
  "TotalReadoutTime": 0.0710717,
  "TxRefAmp": 334.919,
  "dcmmeta_affine": [
    [-1.9992327690124512, -2.7503990196464656e-08, 0.055393192917108536, 104.67391204833984],
    [-0.007996533997356892, 1.9790507555007935, -0.28860729932785034, -80.97930908203125],
    [0.0548129677772522, 0.288718044757843, 1.978291630744934, -121.36760711669922],
    [0.0, 0.0, 0.0, 1.0]
],
  "dcmmeta_reorient_transform": [
    [0.0, -1.0, 0.0, 103.0],
    [1.0, 0.0, 0.0, 0.0],
    [0.0, 0.0, 1.0, 0.0],
    [0.0, 0.0, 0.0, 1.0]
],
  "dcmmeta_shape": [104, 104, 72, 581],
  "dcmmeta_slice_dim": 2,
  "dcmmeta_version": 0.6,
  "global": {
    "const": {
      "AcquisitionMatrix": [104, 0, 0, 104],
      "AngioFlag": "N",
      "BitsAllocated": 16,
      "BitsStored": 12,
      "Columns": 936,
      "EchoNumbers": 1,
      "EchoTime": 34.8,
      "EchoTrainLength": 1,
      "FlipAngle": 55.0,
      "HighBit": 11,
      "ImageOrientationPatient": [0.99961637568332, 0.00399826719521, 0.02740648326906, -1.3751995e-08, 0.98952537758873, -0.1443590215674],
      "ImagePositionPatient": [-936.35472246978, -949.47458857954, 5.6748664966275],
      "ImageType": [
        "ORIGINAL",
        "PRIMARY",
        "M",
        "MB",
        "ND",
        "MOSAIC"
],
      "ImagedNucleus": "1H",
      "ImagingFrequency": 123.234453,
      "InPlanePhaseEncodingDirection": "COL",
      "MRAcquisitionType": "2D",
      "MagneticFieldStrength": 3.0,
      "Manufacturer": "SIEMENS",
      "ManufacturerModelName": "TrioTim",
      "Modality": "MR",
      "NumberOfAverages": 1.0,
      "NumberOfPhaseEncodingSteps": 91,
      "PercentPhaseFieldOfView": 100.0,
      "PercentSampling": 100.0,
      "PerformedProcedureStepStartTime": "100138.484000",
      "PhotometricInterpretation": "MONOCHROME2",
      "PixelBandwidth": 1923.0,
      "PixelRepresentation": 0,
      "PixelSpacing": [2.0, 2.0],
      "ProtocolName": "cmrr_mbep2d_bold_2mm_MB8_Task_8x",
      "RepetitionTime": 785.0,
      "Rows": 936,
      "SAR": 0.12501569887107,
      "SamplesPerPixel": 1,
      "ScanOptions": [
        "PFP",
        "FS"
],
      "ScanningSequence": "EP",
      "SequenceName": "epfid2d1_104",
      "SequenceVariant": [
        "SK",
        "SS"
],
      "SeriesDescription": "cmrr_mbep2d_bold_2mm_MB8_Task_8x",
      "SeriesNumber": 17,
      "SeriesTime": "113738.500000",
      "SliceLocation": -105.46553143508,
      "SliceThickness": 2.0,
      "SmallestImagePixelValue": 0,
      "SoftwareVersions": "syngo MR B19",
      "SpacingBetweenSlices": 2.000000033951,
      "SpecificCharacterSet": "ISO_IR 100",
      "StudyID": "1",
      "StudyTime": "100138.359000",
      "TransmitCoilName": "Body",
      "VariableFlipAngleFlag": "N",
      "WindowCenterWidthExplanation": "Algo1",
      "dBdt": 0.0},
    "slices": {}
  },
  "time": {
    "samples": {
      "AcquisitionNumber": [1, 2, 3, 4, 5, 6, 7, 8, 9, 10, 11, 12, 13, 14, 15, 16, 17, 18, 19, 20, 21, 22, 23, 24, 25, 26, 27, 28, 29, 30, 31, 32, 33, 34, 35, 36, 37, 38, 39, 40, 41, 42, 43, 44, 45, 46, 47, 48, 49, 50, 51, 52, 53, 54, 55, 56, 57, 58, 59, 60, 61, 62, 63, 64, 65, 66, 67, 68, 69, 70, 71, 72, 73, 74, 75, 76, 77, 78, 79, 80, 81, 82, 83, 84, 85, 86, 87, 88, 89, 90, 91, 92, 93, 94, 95, 96, 97, 98, 99, 100, 101, 102, 103, 104, 105, 106, 107, 108, 109, 110, 111, 112, 113, 114, 115, 116, 117, 118, 119, 120, 121, 122, 123, 124, 125, 126, 127, 128, 129, 130, 131, 132, 133, 134, 135, 136, 137, 138, 139, 140, 141, 142, 143, 144, 145, 146, 147, 148, 149, 150, 151, 152, 153, 154, 155, 156, 157, 158, 159, 160, 161, 162, 163, 164, 165, 166, 167, 168, 169, 170, 171, 172, 173, 174, 175, 176, 177, 178, 179, 180, 181, 182, 183, 184, 185, 186, 187, 188, 189, 190, 191, 192, 193, 194, 195, 196, 197, 198, 199, 200, 201, 202, 203, 204, 205, 206, 207, 208, 209, 210, 211, 212, 213, 214, 215, 216, 217, 218, 219, 220, 221, 222, 223, 224, 225, 226, 227, 228, 229, 230, 231, 232, 233, 234, 235, 236, 237, 238, 239, 240, 241, 242, 243, 244, 245, 246, 247, 248, 249, 250, 251, 252, 253, 254, 255, 256, 257, 258, 259, 260, 261, 262, 263, 264, 265, 266, 267, 268, 269, 270, 271, 272, 273, 274, 275, 276, 277, 278, 279, 280, 281, 282, 283, 284, 285, 286, 287, 288, 289, 290, 291, 292, 293, 294, 295, 296, 297, 298, 299, 300, 301, 302, 303, 304, 305, 306, 307, 308, 309, 310, 311, 312, 313, 314, 315, 316, 317, 318, 319, 320, 321, 322, 323, 324, 325, 326, 327, 328, 329, 330, 331, 332, 333, 334, 335, 336, 337, 338, 339, 340, 341, 342, 343, 344, 345, 346, 347, 348, 349, 350, 351, 352, 353, 354, 355, 356, 357, 358, 359, 360, 361, 362, 363, 364, 365, 366, 367, 368, 369, 370, 371, 372, 373, 374, 375, 376, 377, 378, 379, 380, 381, 382, 383, 384, 385, 386, 387, 388, 389, 390, 391, 392, 393, 394, 395, 396, 397, 398, 399, 400, 401, 402, 403, 404, 405, 406, 407, 408, 409, 410, 411, 412, 413, 414, 415, 416, 417, 418, 419, 420, 421, 422, 423, 424, 425, 426, 427, 428, 429, 430, 431, 432, 433, 434, 435, 436, 437, 438, 439, 440, 441, 442, 443, 444, 445, 446, 447, 448, 449, 450, 451, 452, 453, 454, 455, 456, 457, 458, 459, 460, 461, 462, 463, 464, 465, 466, 467, 468, 469, 470, 471, 472, 473, 474, 475, 476, 477, 478, 479, 480, 481, 482, 483, 484, 485, 486, 487, 488, 489, 490, 491, 492, 493, 494, 495, 496, 497, 498, 499, 500, 501, 502, 503, 504, 505, 506, 507, 508, 509, 510, 511, 512, 513, 514, 515, 516, 517, 518, 519, 520, 521, 522, 523, 524, 525, 526, 527, 528, 529, 530, 531, 532, 533, 534, 535, 536, 537, 538, 539, 540, 541, 542, 543, 544, 545, 546, 547, 548, 549, 550, 551, 552, 553, 554, 555, 556, 557, 558, 559, 560, 561, 562, 563, 564, 565, 566, 567, 568, 569, 570, 571, 572, 573, 574, 575, 576, 577, 578, 579, 580, 581],
      "AcquisitionTime": ["113719.707500", "113720.495000", "113721.282500", "113722.072500", "113722.860000", "113723.647500", "113724.435000", "113725.225000", "113726.012500", "113726.800000", "113727.590000", "113728.377500", "113729.165000", "113729.952500", "113730.742500", "113731.530000", "113732.317500", "113733.105000", "113733.895000", "113734.682500", "113735.470000", "113736.257500", "113737.047500", "113737.835000", "113738.622500", "113739.410000", "113740.200000", "113740.987500", "113741.775000", "113742.562500", "113743.352500", "113744.140000", "113744.927500", "113745.717500", "113746.505000", "113747.292500", "113748.080000", "113748.870000", "113749.657500", "113750.445000", "113751.232500", "113752.022500", "113752.810000", "113753.597500", "113754.385000", "113755.175000", "113755.962500", "113756.750000", "113757.537500", "113758.327500", "113759.115000", "113759.902500", "113800.690000", "113801.480000", "113802.267500", "113803.055000", "113803.845000", "113804.632500", "113805.420000", "113806.207500", "113806.997500", "113807.785000", "113808.572500", "113809.360000", "113810.150000", "113810.937500", "113811.725000", "113812.512500", "113813.302500", "113814.090000", "113814.877500", "113815.665000", "113816.455000", "113817.242500", "113818.030000", "113818.817500", "113819.607500", "113820.395000", "113821.182500", "113821.972500", "113822.760000", "113823.547500", "113824.335000", "113825.125000", "113825.912500", "113826.700000", "113827.487500", "113828.277500", "113829.065000", "113829.852500", "113830.640000", "113831.430000", "113832.217500", "113833.005000", "113833.792500", "113834.582500", "113835.370000", "113836.157500", "113836.945000", "113837.735000", "113838.522500", "113839.310000", "113840.100000", "113840.887500", "113841.675000", "113842.462500", "113843.252500", "113844.040000", "113844.827500", "113845.615000", "113846.405000", "113847.192500", "113847.980000", "113848.767500", "113849.557500", "113850.345000", "113851.132500", "113851.920000", "113852.710000", "113853.497500", "113854.285000", "113855.072500", "113855.862500", "113856.650000", "113857.437500", "113858.227500", "113859.015000", "113859.802500", "113900.590000", "113901.380000", "113902.167500", "113902.955000", "113903.742500", "113904.532500", "113905.320000", "113906.107500", "113906.895000", "113907.685000", "113908.472500", "113909.260000", "113910.047500", "113910.837500", "113911.625000", "113912.412500", "113913.200000", "113913.990000", "113914.777500", "113915.565000", "113916.355000", "113917.142500", "113917.930000", "113918.717500", "113919.507500", "113920.295000", "113921.082500", "113921.870000", "113922.660000", "113923.447500", "113924.235000", "113925.022500", "113925.812500", "113926.600000", "113927.387500", "113928.175000", "113928.965000", "113929.752500", "113930.540000", "113931.327500", "113932.117500", "113932.905000", "113933.692500", "113934.482500", "113935.270000", "113936.057500", "113936.845000", "113937.635000", "113938.422500", "113939.210000", "113939.997500", "113940.787500", "113941.575000", "113942.362500", "113943.150000", "113943.940000", "113944.727500", "113945.515000", "113946.302500", "113947.092500", "113947.880000", "113948.667500", "113949.455000", "113950.245000", "113951.032500", "113951.820000", "113952.610000", "113953.397500", "113954.185000", "113954.972500", "113955.762500", "113956.550000", "113957.337500", "113958.125000", "113958.915000", "113959.702500", "114000.490000", "114001.277500", "114002.067500", "114002.855000", "114003.642500", "114004.430000", "114005.220000", "114006.007500", "114006.795000", "114007.585000", "114008.372500", "114009.160000", "114009.947500", "114010.737500", "114011.525000", "114012.312500", "114013.100000", "114013.890000", "114014.677500", "114015.465000", "114016.252500", "114017.042500", "114017.830000", "114018.617500", "114019.405000", "114020.195000", "114020.982500", "114021.770000", "114022.557500", "114023.347500", "114024.135000", "114024.922500", "114025.712500", "114026.500000", "114027.287500", "114028.075000", "114028.865000", "114029.652500", "114030.440000", "114031.227500", "114032.017500", "114032.805000", "114033.592500", "114034.380000", "114035.170000", "114035.957500", "114036.745000", "114037.532500", "114038.322500", "114039.110000", "114039.897500", "114040.685000", "114041.475000", "114042.262500", "114043.050000", "114043.840000", "114044.627500", "114045.415000", "114046.202500", "114046.992500", "114047.780000", "114048.567500", "114049.355000", "114050.145000", "114050.932500", "114051.720000", "114052.507500", "114053.297500", "114054.085000", "114054.872500", "114055.660000", "114056.450000", "114057.237500", "114058.025000", "114058.812500", "114059.602500", "114100.390000", "114101.177500", "114101.967500", "114102.755000", "114103.542500", "114104.330000", "114105.120000", "114105.907500", "114106.695000", "114107.482500", "114108.272500", "114109.060000", "114109.847500", "114110.635000", "114111.425000", "114112.212500", "114113.000000", "114113.787500", "114114.577500", "114115.365000", "114116.152500", "114116.940000", "114117.730000", "114118.517500", "114119.305000", "114120.095000", "114120.882500", "114121.670000", "114122.457500", "114123.247500", "114124.035000", "114124.822500", "114125.610000", "114126.400000", "114127.187500", "114127.975000", "114128.762500", "114129.552500", "114130.340000", "114131.127500", "114131.915000", "114132.705000", "114133.492500", "114134.280000", "114135.067500", "114135.857500", "114136.645000", "114137.432500", "114138.222500", "114139.010000", "114139.797500", "114140.585000", "114141.375000", "114142.162500", "114142.950000", "114143.737500", "114144.527500", "114145.315000", "114146.102500", "114146.890000", "114147.680000", "114148.467500", "114149.255000", "114150.042500", "114150.832500", "114151.620000", "114152.407500", "114153.195000", "114153.985000", "114154.772500", "114155.560000", "114156.350000", "114157.137500", "114157.925000", "114158.712500", "114159.502500", "114200.290000", "114201.077500", "114201.865000", "114202.655000", "114203.442500", "114204.230000", "114205.017500", "114205.807500", "114206.595000", "114207.382500", "114208.170000", "114208.960000", "114209.747500", "114210.535000", "114211.322500", "114212.112500", "114212.900000", "114213.687500", "114214.477500", "114215.265000", "114216.052500", "114216.840000", "114217.630000", "114218.417500", "114219.205000", "114219.992500", "114220.782500", "114221.570000", "114222.357500", "114223.145000", "114223.935000", "114224.722500", "114225.510000", "114226.297500", "114227.087500", "114227.875000", "114228.662500", "114229.450000", "114230.240000", "114231.027500", "114231.815000", "114232.605000", "114233.392500", "114234.180000", "114234.967500", "114235.757500", "114236.545000", "114237.332500", "114238.120000", "114238.910000", "114239.697500", "114240.485000", "114241.272500", "114242.062500", "114242.850000", "114243.637500", "114244.425000", "114245.215000", "114246.002500", "114246.790000", "114247.577500", "114248.367500", "114249.155000", "114249.942500", "114250.732500", "114251.520000", "114252.307500", "114253.095000", "114253.885000", "114254.672500", "114255.460000", "114256.247500", "114257.037500", "114257.825000", "114258.612500", "114259.400000", "114300.190000", "114300.977500", "114301.765000", "114302.552500", "114303.342500", "114304.130000", "114304.917500", "114305.705000", "114306.495000", "114307.282500", "114308.070000", "114308.860000", "114309.647500", "114310.435000", "114311.222500", "114312.012500", "114312.800000", "114313.587500", "114314.375000", "114315.165000", "114315.952500", "114316.740000", "114317.527500", "114318.317500", "114319.105000", "114319.892500", "114320.680000", "114321.470000", "114322.257500", "114323.045000", "114323.835000", "114324.622500", "114325.410000", "114326.197500", "114326.987500", "114327.775000", "114328.562500", "114329.350000", "114330.140000", "114330.927500", "114331.715000", "114332.502500", "114333.292500", "114334.080000", "114334.867500", "114335.655000", "114336.445000", "114337.232500", "114338.020000", "114338.807500", "114339.597500", "114340.385000", "114341.172500", "114341.962500", "114342.750000", "114343.537500", "114344.325000", "114345.115000", "114345.902500", "114346.690000", "114347.477500", "114348.267500", "114349.055000", "114349.842500", "114350.630000", "114351.420000", "114352.207500", "114352.995000", "114353.782500", "114354.572500", "114355.360000", "114356.147500", "114356.935000", "114357.725000", "114358.512500", "114359.300000", "114400.090000", "114400.877500", "114401.665000", "114402.452500", "114403.242500", "114404.030000", "114404.817500", "114405.605000", "114406.395000", "114407.182500", "114407.970000", "114408.757500", "114409.547500", "114410.335000", "114411.122500", "114411.910000", "114412.700000", "114413.487500", "114414.275000", "114415.062500", "114415.852500", "114416.640000", "114417.427500", "114418.217500", "114419.005000", "114419.792500", "114420.580000", "114421.370000", "114422.157500", "114422.945000", "114423.732500", "114424.522500", "114425.310000", "114426.097500", "114426.885000", "114427.675000", "114428.462500", "114429.250000", "114430.037500", "114430.827500", "114431.615000", "114432.402500", "114433.190000", "114433.980000", "114434.767500", "114435.555000", "114436.345000", "114437.132500", "114437.920000", "114438.707500", "114439.497500", "114440.285000", "114441.072500", "114441.860000", "114442.650000", "114443.437500", "114444.225000", "114445.012500", "114445.802500", "114446.590000", "114447.377500", "114448.165000", "114448.955000", "114449.742500", "114450.530000", "114451.317500", "114452.107500", "114452.895000", "114453.682500", "114454.472500", "114455.260000", "114456.047500", "114456.835000"],
      "ContentTime": ["113738.515000", "113738.515000", "113738.515000", "113738.515000", "113738.515000", "113738.515000", "113738.515000", "113738.531000", "113738.531000", "113738.531000", "113738.531000", "113738.531000", "113738.531000", "113738.531000", "113738.531000", "113738.546000", "113738.546000", "113738.546000", "113738.546000", "113738.546000", "113738.562000", "113758.484000", "113758.484000", "113758.484000", "113758.484000", "113758.484000", "113758.484000", "113758.500000", "113758.500000", "113758.500000", "113758.500000", "113758.500000", "113758.500000", "113758.500000", "113758.515000", "113758.515000", "113758.515000", "113758.515000", "113758.515000", "113758.531000", "113758.531000", "113758.531000", "113758.531000", "113758.531000", "113758.531000", "113758.531000", "113818.484000", "113818.484000", "113818.484000", "113818.484000", "113818.484000", "113818.484000", "113818.500000", "113818.500000", "113818.500000", "113818.500000", "113818.500000", "113818.500000", "113818.500000", "113818.515000", "113818.515000", "113818.515000", "113818.515000", "113818.515000", "113818.515000", "113818.531000", "113818.531000", "113818.531000", "113818.531000", "113818.531000", "113818.531000", "113818.531000", "113838.484000", "113838.484000", "113838.484000", "113838.484000", "113838.500000", "113838.500000", "113838.500000", "113838.500000", "113838.500000", "113838.500000", "113838.500000", "113838.515000", "113838.515000", "113838.515000", "113838.515000", "113838.515000", "113838.515000", "113838.515000", "113838.531000", "113838.531000", "113838.531000", "113838.531000", "113838.531000", "113838.531000", "113838.531000", "113838.531000", "113858.484000", "113858.484000", "113858.484000", "113858.484000", "113858.484000", "113858.484000", "113858.500000", "113858.500000", "113858.500000", "113858.500000", "113858.500000", "113858.500000", "113858.500000", "113858.500000", "113858.515000", "113858.515000", "113858.515000", "113858.515000", "113858.515000", "113858.515000", "113858.515000", "113858.531000", "113858.531000", "113858.531000", "113858.531000", "113918.484000", "113918.484000", "113918.484000", "113918.484000", "113918.500000", "113918.500000", "113918.500000", "113918.500000", "113918.500000", "113918.500000", "113918.500000", "113918.515000", "113918.515000", "113918.515000", "113918.515000", "113918.515000", "113918.515000", "113918.515000", "113918.531000", "113918.531000", "113918.531000", "113918.531000", "113918.531000", "113918.531000", "113918.531000", "113938.484000", "113938.484000", "113938.484000", "113938.484000", "113938.484000", "113938.484000", "113938.500000", "113938.500000", "113938.500000", "113938.500000", "113938.500000", "113938.500000", "113938.500000", "113938.500000", "113938.515000", "113938.515000", "113938.515000", "113938.515000", "113938.515000", "113938.515000", "113938.515000", "113938.531000", "113938.531000", "113938.531000", "113938.531000", "113938.531000", "113958.484000", "113958.484000", "113958.484000", "113958.500000", "113958.500000", "113958.500000", "113958.500000", "113958.500000", "113958.500000", "113958.500000", "113958.515000", "113958.515000", "113958.515000", "113958.515000", "113958.531000", "113958.531000", "113958.531000", "113958.531000", "113958.531000", "113958.531000", "113958.531000", "113958.546000", "113958.546000", "113958.546000", "113958.546000", "114018.484000", "114018.484000", "114018.484000", "114018.484000", "114018.484000", "114018.484000", "114018.500000", "114018.500000", "114018.500000", "114018.500000", "114018.500000", "114018.500000", "114018.500000", "114018.500000", "114018.515000", "114018.515000", "114018.515000", "114018.515000", "114018.515000", "114018.515000", "114018.515000", "114018.531000", "114018.531000", "114018.531000", "114018.531000", "114018.531000", "114038.484000", "114038.484000", "114038.484000", "114038.484000", "114038.484000", "114038.484000", "114038.500000", "114038.500000", "114038.500000", "114038.500000", "114038.500000", "114038.500000", "114038.515000", "114038.515000", "114038.515000", "114038.515000", "114038.515000", "114038.515000", "114038.515000", "114038.531000", "114038.531000", "114038.531000", "114038.531000", "114038.531000", "114038.546000", "114058.484000", "114058.484000", "114058.484000", "114058.484000", "114058.484000", "114058.484000", "114058.500000", "114058.500000", "114058.500000", "114058.500000", "114058.500000", "114058.500000", "114058.500000", "114058.500000", "114058.515000", "114058.515000", "114058.515000", "114058.515000", "114058.515000", "114058.515000", "114058.515000", "114058.531000", "114058.531000", "114058.531000", "114058.531000", "114058.531000", "114118.484000", "114118.484000", "114118.484000", "114118.484000", "114118.500000", "114118.500000", "114118.500000", "114118.500000", "114118.500000", "114118.500000", "114118.515000", "114118.515000", "114118.515000", "114118.515000", "114118.515000", "114118.515000", "114118.531000", "114118.531000", "114118.531000", "114118.531000", "114118.531000", "114118.531000", "114118.531000", "114118.531000", "114118.546000", "114138.484000", "114138.484000", "114138.484000", "114138.484000", "114138.484000", "114138.484000", "114138.500000", "114138.500000", "114138.500000", "114138.500000", "114138.500000", "114138.500000", "114138.500000", "114138.515000", "114138.515000", "114138.515000", "114138.515000", "114138.515000", "114138.515000", "114138.515000", "114138.515000", "114138.531000", "114138.531000", "114138.531000", "114138.531000", "114138.531000", "114158.484000", "114158.484000", "114158.484000", "114158.484000", "114158.484000", "114158.484000", "114158.500000", "114158.500000", "114158.500000", "114158.500000", "114158.500000", "114158.500000", "114158.500000", "114158.515000", "114158.515000", "114158.515000", "114158.515000", "114158.515000", "114158.515000", "114158.515000", "114158.531000", "114158.531000", "114158.531000", "114158.531000", "114158.531000", "114218.484000", "114218.484000", "114218.484000", "114218.484000", "114218.484000", "114218.484000", "114218.500000", "114218.500000", "114218.500000", "114218.500000", "114218.500000", "114218.500000", "114218.500000", "114218.515000", "114218.515000", "114218.515000", "114218.515000", "114218.515000", "114218.515000", "114218.515000", "114218.531000", "114218.531000", "114218.531000", "114218.531000", "114218.531000", "114218.546000", "114238.484000", "114238.484000", "114238.484000", "114238.484000", "114238.484000", "114238.484000", "114238.500000", "114238.500000", "114238.500000", "114238.500000", "114238.500000", "114238.500000", "114238.500000", "114238.515000", "114238.515000", "114238.515000", "114238.515000", "114238.515000", "114238.515000", "114238.515000", "114238.531000", "114238.531000", "114238.531000", "114238.531000", "114238.531000", "114258.484000", "114258.484000", "114258.484000", "114258.484000", "114258.484000", "114258.484000", "114258.500000", "114258.500000", "114258.500000", "114258.500000", "114258.500000", "114258.500000", "114258.500000", "114258.500000", "114258.515000", "114258.515000", "114258.515000", "114258.515000", "114258.515000", "114258.515000", "114258.515000", "114258.531000", "114258.531000", "114258.531000", "114258.531000", "114258.531000", "114318.484000", "114318.484000", "114318.484000", "114318.484000", "114318.484000", "114318.484000", "114318.500000", "114318.500000", "114318.500000", "114318.500000", "114318.500000", "114318.500000", "114318.500000", "114318.500000", "114318.515000", "114318.515000", "114318.515000", "114318.515000", "114318.515000", "114318.515000", "114318.515000", "114318.531000", "114318.531000", "114318.531000", "114318.531000", "114338.484000", "114338.484000", "114338.484000", "114338.484000", "114338.484000", "114338.484000", "114338.500000", "114338.500000", "114338.500000", "114338.500000", "114338.500000", "114338.500000", "114338.515000", "114338.515000", "114338.515000", "114338.515000", "114338.515000", "114338.515000", "114338.515000", "114338.515000", "114338.531000", "114338.531000", "114338.531000", "114338.531000", "114338.531000", "114338.531000", "114358.484000", "114358.484000", "114358.484000", "114358.484000", "114358.484000", "114358.484000", "114358.500000", "114358.500000", "114358.500000", "114358.500000", "114358.500000", "114358.500000", "114358.500000", "114358.515000", "114358.515000", "114358.515000", "114358.515000", "114358.515000", "114358.515000", "114358.515000", "114358.515000", "114358.531000", "114358.531000", "114358.531000", "114358.531000", "114418.484000", "114418.484000", "114418.484000", "114418.484000", "114418.484000", "114418.484000", "114418.500000", "114418.500000", "114418.500000", "114418.500000", "114418.500000", "114418.515000", "114418.515000", "114418.515000", "114418.515000", "114418.515000", "114418.515000", "114418.515000", "114418.515000", "114418.531000", "114418.531000", "114418.531000", "114418.531000", "114418.531000", "114418.531000", "114418.531000", "114438.484000", "114438.484000", "114438.484000", "114438.484000", "114438.484000", "114438.484000", "114438.500000", "114438.500000", "114438.500000", "114438.500000", "114438.500000", "114438.500000", "114438.500000", "114438.515000", "114438.515000", "114438.515000", "114438.515000", "114438.515000", "114438.515000", "114438.515000", "114438.515000", "114438.531000", "114438.531000", "114438.531000", "114438.531000", "114457.625000", "114457.625000", "114457.625000", "114457.625000", "114457.625000", "114457.625000", "114457.625000", "114457.640000", "114457.640000", "114457.640000", "114457.640000", "114457.640000", "114457.640000", "114457.640000", "114457.656000", "114457.656000", "114457.656000", "114457.656000", "114457.656000", "114457.656000", "114457.656000", "114457.656000", "114457.671000", "114457.671000", "114457.671000"],
