{
  "AcquisitionMatrixPE": 104,
  "AcquisitionNumber": 1,
  "AcquisitionTime": "12:02:47.692500",
  "BandwidthPerPixelPhaseEncode": 13.935,
  "BaseResolution": 104,
  "CoilString": "C:HEA;HEP",
  "ConversionSoftware": "dcm2niix",
  "ConversionSoftwareVersion": "v1.0.20210317",
  "DerivedVendorReportedEchoSpacing": 0.000690017,
  "DeviceSerialNumber": "35450",
  "DwellTime": 2.5e-06,
  "EchoTime": 0.0348,
  "EffectiveEchoSpacing": 0.000690017,
  "FlipAngle": 55,
  "ImageComments": "Unaliased MB8/PE3 (remote)",
  "ImageOrientationPatientDICOM": [0.999616, 0.00399827, 0.0274065, -1.3752e-08, 0.989525, -0.144359],
  "ImageType": [
    "ORIGINAL",
    "PRIMARY",
    "M",
    "MB",
    "ND",
    "MOSAIC"
],
  "ImagingFrequency": 123.234,
  "InPlanePhaseEncodingDirectionDICOM": "COL",
  "InstitutionAddress": "Univeristy Ave. 197,Newark,North East,US,07102-1814",
  "InstitutionName": "RUBIC",
  "InstitutionalDepartmentName": "Department",
  "MRAcquisitionType": "2D",
  "MagneticFieldStrength": 3,
  "Manufacturer": "Siemens",
  "ManufacturersModelName": "TrioTim",
  "Modality": "MR",
  "MultibandAccelerationFactor": 8,
  "PartialFourier": 0.875,
  "PatientPosition": "HFS",
  "PercentPhaseFOV": 100,
  "PercentSampling": 100,
  "PhaseEncodingDirection": "j-",
  "PhaseEncodingSteps": 91,
  "PhaseResolution": 1,
  "PixelBandwidth": 1923,
  "ProcedureStepDescription": "Cole^Michael",
  "ProtocolName": "cmrr_mbep2d_bold_2mm_MB8_Task_8x",
  "PulseSequenceDetails": "%CustomerSeq%\\cmrr_mbep2d_bold",
  "ReceiveCoilName": "32Ch_Head",
  "ReconMatrixPE": 104,
  "RepetitionTime": 0.785,
  "SAR": 0.125016,
  "ScanOptions": "PFP\\FS",
  "ScanningSequence": "EP",
  "SequenceName": "epfid2d1_104",
  "SequenceVariant": "SK\\SS",
  "SeriesDescription": "cmrr_mbep2d_bold_2mm_MB8_Task_8x",
  "SeriesNumber": 23,
  "ShimSetting": [2128, -322, -7373, 547, 51, -542, -8, -10],
  "SliceThickness": 2,
  "SliceTiming": [0, 0.4375, 0.0875, 0.525, 0.175, 0.615, 0.2625, 0.7025, 0.35, 0, 0.4375, 0.0875, 0.525, 0.175, 0.615, 0.2625, 0.7025, 0.35, 0, 0.4375, 0.0875, 0.525, 0.175, 0.615, 0.2625, 0.7025, 0.35, 0, 0.4375, 0.0875, 0.525, 0.175, 0.615, 0.2625, 0.7025, 0.35, 0, 0.4375, 0.0875, 0.525, 0.175, 0.615, 0.2625, 0.7025, 0.35, 0, 0.4375, 0.0875, 0.525, 0.175, 0.615, 0.2625, 0.7025, 0.35, 0, 0.4375, 0.0875, 0.525, 0.175, 0.615, 0.2625, 0.7025, 0.35, 0, 0.4375, 0.0875, 0.525, 0.175, 0.615, 0.2625, 0.7025, 0.35],
  "SoftwareVersions": "syngo MR B19",
  "SpacingBetweenSlices": 2,
  "StationName": "MRC35450",
  "TaskName": "cpro",
  "TotalReadoutTime": 0.0710717,
  "TxRefAmp": 334.919,
  "dcmmeta_affine": [
    [-1.9992327690124512, -2.7503990196464656e-08, 0.055393192917108536, 104.67391204833984],
    [-0.007996533997356892, 1.9790507555007935, -0.28860729932785034, -80.97930908203125],
    [0.0548129677772522, 0.288718044757843, 1.978291630744934, -121.36760711669922],
    [0.0, 0.0, 0.0, 1.0]
],
  "dcmmeta_reorient_transform": [
    [0.0, -1.0, 0.0, 103.0],
    [1.0, 0.0, 0.0, 0.0],
    [0.0, 0.0, 1.0, 0.0],
    [0.0, 0.0, 0.0, 1.0]
],
  "dcmmeta_shape": [104, 104, 72, 581],
  "dcmmeta_slice_dim": 2,
  "dcmmeta_version": 0.6,
  "global": {
    "const": {
      "AcquisitionMatrix": [104, 0, 0, 104],
      "AngioFlag": "N",
      "BitsAllocated": 16,
      "BitsStored": 12,
      "Columns": 936,
      "EchoNumbers": 1,
      "EchoTime": 34.8,
      "EchoTrainLength": 1,
      "FlipAngle": 55.0,
      "HighBit": 11,
      "ImageOrientationPatient": [0.99961637568332, 0.00399826719521, 0.02740648326906, -1.3751995e-08, 0.98952537758873, -0.1443590215674],
      "ImagePositionPatient": [-936.35472246978, -949.47458857954, 5.6748664966275],
      "ImageType": [
        "ORIGINAL",
        "PRIMARY",
        "M",
        "MB",
        "ND",
        "MOSAIC"
],
      "ImagedNucleus": "1H",
      "ImagingFrequency": 123.234453,
      "InPlanePhaseEncodingDirection": "COL",
      "MRAcquisitionType": "2D",
      "MagneticFieldStrength": 3.0,
      "Manufacturer": "SIEMENS",
      "ManufacturerModelName": "TrioTim",
      "Modality": "MR",
      "NumberOfAverages": 1.0,
      "NumberOfPhaseEncodingSteps": 91,
      "PercentPhaseFieldOfView": 100.0,
      "PercentSampling": 100.0,
      "PerformedProcedureStepStartTime": "100138.484000",
      "PhotometricInterpretation": "MONOCHROME2",
      "PixelBandwidth": 1923.0,
      "PixelRepresentation": 0,
      "PixelSpacing": [2.0, 2.0],
      "ProtocolName": "cmrr_mbep2d_bold_2mm_MB8_Task_8x",
      "RepetitionTime": 785.0,
      "Rows": 936,
      "SAR": 0.12501569887107,
      "SamplesPerPixel": 1,
      "ScanOptions": [
        "PFP",
        "FS"
],
      "ScanningSequence": "EP",
      "SequenceName": "epfid2d1_104",
      "SequenceVariant": [
        "SK",
        "SS"
],
      "SeriesDescription": "cmrr_mbep2d_bold_2mm_MB8_Task_8x",
      "SeriesNumber": 23,
      "SeriesTime": "120318.515000",
      "SliceLocation": -105.46553143508,
      "SliceThickness": 2.0,
      "SmallestImagePixelValue": 0,
      "SoftwareVersions": "syngo MR B19",
      "SpacingBetweenSlices": 2.000000033951,
      "SpecificCharacterSet": "ISO_IR 100",
      "StudyID": "1",
      "StudyTime": "100138.359000",
      "TransmitCoilName": "Body",
      "VariableFlipAngleFlag": "N",
      "WindowCenterWidthExplanation": "Algo1",
      "dBdt": 0.0},
    "slices": {}
  },
  "time": {
    "samples": {
      "AcquisitionNumber": [1, 2, 3, 4, 5, 6, 7, 8, 9, 10, 11, 12, 13, 14, 15, 16, 17, 18, 19, 20, 21, 22, 23, 24, 25, 26, 27, 28, 29, 30, 31, 32, 33, 34, 35, 36, 37, 38, 39, 40, 41, 42, 43, 44, 45, 46, 47, 48, 49, 50, 51, 52, 53, 54, 55, 56, 57, 58, 59, 60, 61, 62, 63, 64, 65, 66, 67, 68, 69, 70, 71, 72, 73, 74, 75, 76, 77, 78, 79, 80, 81, 82, 83, 84, 85, 86, 87, 88, 89, 90, 91, 92, 93, 94, 95, 96, 97, 98, 99, 100, 101, 102, 103, 104, 105, 106, 107, 108, 109, 110, 111, 112, 113, 114, 115, 116, 117, 118, 119, 120, 121, 122, 123, 124, 125, 126, 127, 128, 129, 130, 131, 132, 133, 134, 135, 136, 137, 138, 139, 140, 141, 142, 143, 144, 145, 146, 147, 148, 149, 150, 151, 152, 153, 154, 155, 156, 157, 158, 159, 160, 161, 162, 163, 164, 165, 166, 167, 168, 169, 170, 171, 172, 173, 174, 175, 176, 177, 178, 179, 180, 181, 182, 183, 184, 185, 186, 187, 188, 189, 190, 191, 192, 193, 194, 195, 196, 197, 198, 199, 200, 201, 202, 203, 204, 205, 206, 207, 208, 209, 210, 211, 212, 213, 214, 215, 216, 217, 218, 219, 220, 221, 222, 223, 224, 225, 226, 227, 228, 229, 230, 231, 232, 233, 234, 235, 236, 237, 238, 239, 240, 241, 242, 243, 244, 245, 246, 247, 248, 249, 250, 251, 252, 253, 254, 255, 256, 257, 258, 259, 260, 261, 262, 263, 264, 265, 266, 267, 268, 269, 270, 271, 272, 273, 274, 275, 276, 277, 278, 279, 280, 281, 282, 283, 284, 285, 286, 287, 288, 289, 290, 291, 292, 293, 294, 295, 296, 297, 298, 299, 300, 301, 302, 303, 304, 305, 306, 307, 308, 309, 310, 311, 312, 313, 314, 315, 316, 317, 318, 319, 320, 321, 322, 323, 324, 325, 326, 327, 328, 329, 330, 331, 332, 333, 334, 335, 336, 337, 338, 339, 340, 341, 342, 343, 344, 345, 346, 347, 348, 349, 350, 351, 352, 353, 354, 355, 356, 357, 358, 359, 360, 361, 362, 363, 364, 365, 366, 367, 368, 369, 370, 371, 372, 373, 374, 375, 376, 377, 378, 379, 380, 381, 382, 383, 384, 385, 386, 387, 388, 389, 390, 391, 392, 393, 394, 395, 396, 397, 398, 399, 400, 401, 402, 403, 404, 405, 406, 407, 408, 409, 410, 411, 412, 413, 414, 415, 416, 417, 418, 419, 420, 421, 422, 423, 424, 425, 426, 427, 428, 429, 430, 431, 432, 433, 434, 435, 436, 437, 438, 439, 440, 441, 442, 443, 444, 445, 446, 447, 448, 449, 450, 451, 452, 453, 454, 455, 456, 457, 458, 459, 460, 461, 462, 463, 464, 465, 466, 467, 468, 469, 470, 471, 472, 473, 474, 475, 476, 477, 478, 479, 480, 481, 482, 483, 484, 485, 486, 487, 488, 489, 490, 491, 492, 493, 494, 495, 496, 497, 498, 499, 500, 501, 502, 503, 504, 505, 506, 507, 508, 509, 510, 511, 512, 513, 514, 515, 516, 517, 518, 519, 520, 521, 522, 523, 524, 525, 526, 527, 528, 529, 530, 531, 532, 533, 534, 535, 536, 537, 538, 539, 540, 541, 542, 543, 544, 545, 546, 547, 548, 549, 550, 551, 552, 553, 554, 555, 556, 557, 558, 559, 560, 561, 562, 563, 564, 565, 566, 567, 568, 569, 570, 571, 572, 573, 574, 575, 576, 577, 578, 579, 580, 581],
      "AcquisitionTime": ["120247.692500", "120248.482500", "120249.270000", "120250.057500", "120250.845000", "120251.635000", "120252.422500", "120253.210000", "120254.000000", "120254.787500", "120255.575000", "120256.362500", "120257.152500", "120257.940000", "120258.727500", "120259.515000", "120300.305000", "120301.092500", "120301.880000", "120302.667500", "120303.457500", "120304.245000", "120305.032500", "120305.820000", "120306.610000", "120307.397500", "120308.185000", "120308.972500", "120309.762500", "120310.550000", "120311.337500", "120312.127500", "120312.915000", "120313.702500", "120314.490000", "120315.280000", "120316.067500", "120316.855000", "120317.642500", "120318.432500", "120319.220000", "120320.007500", "120320.795000", "120321.585000", "120322.372500", "120323.160000", "120323.947500", "120324.737500", "120325.525000", "120326.312500", "120327.100000", "120327.890000", "120328.677500", "120329.465000", "120330.255000", "120331.042500", "120331.830000", "120332.617500", "120333.407500", "120334.195000", "120334.982500", "120335.770000", "120336.560000", "120337.347500", "120338.135000", "120338.922500", "120339.712500", "120340.500000", "120341.287500", "120342.075000", "120342.865000", "120343.652500", "120344.440000", "120345.227500", "120346.017500", "120346.805000", "120347.592500", "120348.382500", "120349.170000", "120349.957500", "120350.745000", "120351.535000", "120352.322500", "120353.110000", "120353.897500", "120354.687500", "120355.475000", "120356.262500", "120357.050000", "120357.840000", "120358.627500", "120359.415000", "120400.202500", "120400.992500", "120401.780000", "120402.567500", "120403.355000", "120404.145000", "120404.932500", "120405.720000", "120406.510000", "120407.297500", "120408.085000", "120408.872500", "120409.662500", "120410.450000", "120411.237500", "120412.025000", "120412.815000", "120413.602500", "120414.390000", "120415.177500", "120415.967500", "120416.755000", "120417.542500", "120418.330000", "120419.120000", "120419.907500", "120420.695000", "120421.482500", "120422.272500", "120423.060000", "120423.847500", "120424.637500", "120425.425000", "120426.212500", "120427.000000", "120427.790000", "120428.577500", "120429.365000", "120430.152500", "120430.942500", "120431.730000", "120432.517500", "120433.305000", "120434.095000", "120434.882500", "120435.670000", "120436.457500", "120437.247500", "120438.035000", "120438.822500", "120439.610000", "120440.400000", "120441.187500", "120441.975000", "120442.765000", "120443.552500", "120444.340000", "120445.127500", "120445.917500", "120446.705000", "120447.492500", "120448.280000", "120449.070000", "120449.857500", "120450.645000", "120451.432500", "120452.222500", "120453.010000", "120453.797500", "120454.585000", "120455.375000", "120456.162500", "120456.950000", "120457.737500", "120458.527500", "120459.315000", "120500.102500", "120500.892500", "120501.680000", "120502.467500", "120503.255000", "120504.045000", "120504.832500", "120505.620000", "120506.407500", "120507.197500", "120507.985000", "120508.772500", "120509.560000", "120510.350000", "120511.137500", "120511.925000", "120512.712500", "120513.502500", "120514.290000", "120515.077500", "120515.865000", "120516.655000", "120517.442500", "120518.230000", "120519.020000", "120519.807500", "120520.595000", "120521.382500", "120522.172500", "120522.960000", "120523.747500", "120524.535000", "120525.325000", "120526.112500", "120526.900000", "120527.687500", "120528.477500", "120529.265000", "120530.052500", "120530.840000", "120531.630000", "120532.417500", "120533.205000", "120533.992500", "120534.782500", "120535.570000", "120536.357500", "120537.147500", "120537.935000", "120538.722500", "120539.510000", "120540.300000", "120541.087500", "120541.875000", "120542.662500", "120543.452500", "120544.240000", "120545.027500", "120545.815000", "120546.605000", "120547.392500", "120548.180000", "120548.967500", "120549.757500", "120550.545000", "120551.332500", "120552.122500", "120552.910000", "120553.697500", "120554.485000", "120555.275000", "120556.062500", "120556.850000", "120557.637500", "120558.427500", "120559.215000", "120600.002500", "120600.790000", "120601.580000", "120602.367500", "120603.155000", "120603.942500", "120604.732500", "120605.520000", "120606.307500", "120607.095000", "120607.885000", "120608.672500", "120609.460000", "120610.250000", "120611.037500", "120611.825000", "120612.612500", "120613.402500", "120614.190000", "120614.977500", "120615.765000", "120616.555000", "120617.342500", "120618.130000", "120618.917500", "120619.707500", "120620.495000", "120621.282500", "120622.070000", "120622.860000", "120623.647500", "120624.435000", "120625.222500", "120626.012500", "120626.800000", "120627.587500", "120628.377500", "120629.165000", "120629.952500", "120630.740000", "120631.530000", "120632.317500", "120633.105000", "120633.892500", "120634.682500", "120635.470000", "120636.257500", "120637.045000", "120637.835000", "120638.622500", "120639.410000", "120640.197500", "120640.987500", "120641.775000", "120642.562500", "120643.350000", "120644.140000", "120644.927500", "120645.715000", "120646.505000", "120647.292500", "120648.080000", "120648.867500", "120649.657500", "120650.445000", "120651.232500", "120652.020000", "120652.810000", "120653.597500", "120654.385000", "120655.172500", "120655.962500", "120656.750000", "120657.537500", "120658.325000", "120659.115000", "120659.902500", "120700.690000", "120701.477500", "120702.267500", "120703.055000", "120703.842500", "120704.632500", "120705.420000", "120706.207500", "120706.995000", "120707.785000", "120708.572500", "120709.360000", "120710.147500", "120710.937500", "120711.725000", "120712.512500", "120713.300000", "120714.090000", "120714.877500", "120715.665000", "120716.452500", "120717.242500", "120718.030000", "120718.817500", "120719.605000", "120720.395000", "120721.182500", "120721.970000", "120722.760000", "120723.547500", "120724.335000", "120725.122500", "120725.912500", "120726.700000", "120727.487500", "120728.275000", "120729.065000", "120729.852500", "120730.640000", "120731.427500", "120732.217500", "120733.005000", "120733.792500", "120734.580000", "120735.370000", "120736.157500", "120736.945000", "120737.732500", "120738.522500", "120739.310000", "120740.097500", "120740.887500", "120741.675000", "120742.462500", "120743.250000", "120744.040000", "120744.827500", "120745.615000", "120746.402500", "120747.192500", "120747.980000", "120748.767500", "120749.555000", "120750.345000", "120751.132500", "120751.920000", "120752.707500", "120753.497500", "120754.285000", "120755.072500", "120755.860000", "120756.650000", "120757.437500", "120758.225000", "120759.015000", "120759.802500", "120800.590000", "120801.377500", "120802.167500", "120802.955000", "120803.742500", "120804.530000", "120805.320000", "120806.107500", "120806.895000", "120807.682500", "120808.472500", "120809.260000", "120810.047500", "120810.835000", "120811.625000", "120812.412500", "120813.200000", "120813.987500", "120814.777500", "120815.565000", "120816.352500", "120817.142500", "120817.930000", "120818.717500", "120819.505000", "120820.295000", "120821.082500", "120821.870000", "120822.657500", "120823.447500", "120824.235000", "120825.022500", "120825.810000", "120826.600000", "120827.387500", "120828.175000", "120828.962500", "120829.752500", "120830.540000", "120831.327500", "120832.115000", "120832.905000", "120833.692500", "120834.480000", "120835.270000", "120836.057500", "120836.845000", "120837.632500", "120838.422500", "120839.210000", "120839.997500", "120840.785000", "120841.575000", "120842.362500", "120843.150000", "120843.937500", "120844.727500", "120845.515000", "120846.302500", "120847.090000", "120847.880000", "120848.667500", "120849.455000", "120850.242500", "120851.032500", "120851.820000", "120852.607500", "120853.397500", "120854.185000", "120854.972500", "120855.760000", "120856.550000", "120857.337500", "120858.125000", "120858.912500", "120859.702500", "120900.490000", "120901.277500", "120902.065000", "120902.855000", "120903.642500", "120904.430000", "120905.217500", "120906.007500", "120906.795000", "120907.582500", "120908.372500", "120909.160000", "120909.947500", "120910.735000", "120911.525000", "120912.312500", "120913.100000", "120913.887500", "120914.677500", "120915.465000", "120916.252500", "120917.040000", "120917.830000", "120918.617500", "120919.405000", "120920.192500", "120920.982500", "120921.770000", "120922.557500", "120923.345000", "120924.135000", "120924.922500", "120925.710000", "120926.500000", "120927.287500", "120928.075000", "120928.862500", "120929.652500", "120930.440000", "120931.227500", "120932.015000", "120932.805000", "120933.592500", "120934.380000", "120935.167500", "120935.957500", "120936.745000", "120937.532500", "120938.320000", "120939.110000", "120939.897500", "120940.685000", "120941.472500", "120942.262500", "120943.050000", "120943.837500", "120944.627500", "120945.415000", "120946.202500", "120946.990000", "120947.780000", "120948.567500", "120949.355000", "120950.142500", "120950.932500", "120951.720000", "120952.507500", "120953.295000", "120954.085000", "120954.872500", "120955.660000", "120956.447500", "120957.237500", "120958.025000", "120958.812500", "120959.600000", "121000.390000", "121001.177500", "121001.965000", "121002.755000", "121003.542500", "121004.330000", "121005.117500", "121005.907500", "121006.695000", "121007.482500", "121008.270000", "121009.060000", "121009.847500", "121010.635000", "121011.422500", "121012.212500", "121013.000000", "121013.787500", "121014.575000", "121015.365000", "121016.152500", "121016.940000", "121017.727500", "121018.517500", "121019.305000", "121020.092500", "121020.882500", "121021.670000", "121022.457500", "121023.245000", "121024.035000", "121024.822500"],
      "ContentTime": ["120318.515000", "120318.515000", "120318.515000", "120318.515000", "120318.515000", "120318.515000", "120318.531000", "120318.531000", "120318.531000", "120318.531000", "120318.531000", "120318.531000", "120318.546000", "120318.546000", "120318.546000", "120318.546000", "120318.546000", "120318.546000", "120318.546000", "120318.562000", "120318.562000", "120318.562000", "120318.562000", "120318.562000", "120318.562000", "120318.578000", "120318.578000", "120318.578000", "120318.578000", "120318.578000", "120318.578000", "120318.578000", "120318.578000", "120318.593000", "120318.593000", "120338.484000", "120338.484000", "120338.484000", "120338.484000", "120338.484000", "120338.484000", "120338.500000", "120338.500000", "120338.500000", "120338.500000", "120338.500000", "120338.500000", "120338.500000", "120338.500000", "120338.515000", "120338.515000", "120338.515000", "120338.515000", "120338.515000", "120338.515000", "120338.515000", "120338.531000", "120338.531000", "120338.531000", "120338.531000", "120338.531000", "120358.484000", "120358.484000", "120358.484000", "120358.484000", "120358.484000", "120358.484000", "120358.500000", "120358.500000", "120358.500000", "120358.500000", "120358.500000", "120358.500000", "120358.500000", "120358.515000", "120358.515000", "120358.515000", "120358.515000", "120358.515000", "120358.515000", "120358.515000", "120358.515000", "120358.531000", "120358.531000", "120358.531000", "120358.531000", "120418.484000", "120418.484000", "120418.484000", "120418.484000", "120418.484000", "120418.484000", "120418.500000", "120418.500000", "120418.500000", "120418.500000", "120418.500000", "120418.500000", "120418.500000", "120418.500000", "120418.515000", "120418.515000", "120418.515000", "120418.515000", "120418.515000", "120418.515000", "120418.515000", "120418.531000", "120418.531000", "120418.531000", "120418.531000", "120418.531000", "120438.484000", "120438.484000", "120438.484000", "120438.484000", "120438.484000", "120438.484000", "120438.500000", "120438.500000", "120438.500000", "120438.500000", "120438.500000", "120438.500000", "120438.500000", "120438.515000", "120438.515000", "120438.515000", "120438.515000", "120438.515000", "120438.515000", "120438.515000", "120438.531000", "120438.531000", "120438.531000", "120438.531000", "120438.531000", "120458.484000", "120458.484000", "120458.484000", "120458.484000", "120458.484000", "120458.484000", "120458.500000", "120458.500000", "120458.500000", "120458.500000", "120458.500000", "120458.500000", "120458.500000", "120458.500000", "120458.515000", "120458.515000", "120458.515000", "120458.515000", "120458.515000", "120458.515000", "120458.515000", "120458.531000", "120458.531000", "120458.531000", "120458.531000", "120458.531000", "120518.484000", "120518.484000", "120518.484000", "120518.484000", "120518.500000", "120518.500000", "120518.500000", "120518.500000", "120518.515000", "120518.515000", "120518.515000", "120518.515000", "120518.515000", "120518.515000", "120518.515000", "120518.515000", "120518.531000", "120518.531000", "120518.531000", "120518.531000", "120518.531000", "120518.531000", "120518.531000", "120518.546000", "120518.546000", "120538.484000", "120538.484000", "120538.484000", "120538.484000", "120538.484000", "120538.484000", "120538.500000", "120538.500000", "120538.500000", "120538.500000", "120538.500000", "120538.500000", "120538.515000", "120538.515000", "120538.515000", "120538.515000", "120538.515000", "120538.515000", "120538.515000", "120538.531000", "120538.531000", "120538.531000", "120538.531000", "120538.531000", "120538.531000", "120538.531000", "120558.484000", "120558.484000", "120558.484000", "120558.484000", "120558.484000", "120558.484000", "120558.500000", "120558.500000", "120558.500000", "120558.500000", "120558.500000", "120558.500000", "120558.500000", "120558.500000", "120558.515000", "120558.515000", "120558.515000", "120558.515000", "120558.515000", "120558.515000", "120558.515000", "120558.531000", "120558.531000", "120558.531000", "120558.531000", "120618.484000", "120618.484000", "120618.484000", "120618.484000", "120618.500000", "120618.500000", "120618.500000", "120618.500000", "120618.500000", "120618.500000", "120618.500000", "120618.515000", "120618.515000", "120618.515000", "120618.515000", "120618.515000", "120618.515000", "120618.531000", "120618.531000", "120618.531000", "120618.531000", "120618.531000", "120618.531000", "120618.531000", "120618.531000", "120618.546000", "120638.484000", "120638.484000", "120638.484000", "120638.484000", "120638.484000", "120638.484000", "120638.500000", "120638.500000", "120638.500000", "120638.500000", "120638.500000", "120638.500000", "120638.500000", "120638.515000", "120638.515000", "120638.515000", "120638.515000", "120638.515000", "120638.515000", "120638.515000", "120638.515000", "120638.531000", "120638.531000", "120638.531000", "120638.531000", "120658.484000", "120658.484000", "120658.484000", "120658.484000", "120658.484000", "120658.484000", "120658.500000", "120658.500000", "120658.500000", "120658.500000", "120658.500000", "120658.500000", "120658.500000", "120658.515000", "120658.515000", "120658.515000", "120658.515000", "120658.515000", "120658.515000", "120658.515000", "120658.531000", "120658.531000", "120658.531000", "120658.531000", "120658.531000", "120658.531000", "120718.484000", "120718.484000", "120718.484000", "120718.484000", "120718.484000", "120718.484000", "120718.500000", "120718.500000", "120718.500000", "120718.500000", "120718.500000", "120718.500000", "120718.500000", "120718.500000", "120718.515000", "120718.515000", "120718.515000", "120718.515000", "120718.515000", "120718.515000", "120718.515000", "120718.531000", "120718.531000", "120718.531000", "120718.531000", "120738.484000", "120738.484000", "120738.484000", "120738.484000", "120738.484000", "120738.484000", "120738.500000", "120738.500000", "120738.500000", "120738.500000", "120738.500000", "120738.500000", "120738.500000", "120738.515000", "120738.515000", "120738.515000", "120738.515000", "120738.515000", "120738.515000", "120738.531000", "120738.531000", "120738.531000", "120738.531000", "120738.531000", "120738.531000", "120738.531000", "120758.484000", "120758.484000", "120758.484000", "120758.484000", "120758.484000", "120758.484000", "120758.500000", "120758.500000", "120758.500000", "120758.500000", "120758.500000", "120758.500000", "120758.500000", "120758.515000", "120758.515000", "120758.515000", "120758.515000", "120758.515000", "120758.515000", "120758.515000", "120758.515000", "120758.531000", "120758.531000", "120758.531000", "120758.531000", "120818.484000", "120818.484000", "120818.484000", "120818.484000", "120818.484000", "120818.484000", "120818.500000", "120818.500000", "120818.500000", "120818.500000", "120818.500000", "120818.500000", "120818.500000", "120818.500000", "120818.515000", "120818.515000", "120818.515000", "120818.515000", "120818.515000", "120818.515000", "120818.515000", "120818.531000", "120818.531000", "120818.531000", "120818.531000", "120818.531000", "120838.484000", "120838.484000", "120838.484000", "120838.484000", "120838.484000", "120838.484000", "120838.500000", "120838.500000", "120838.500000", "120838.500000", "120838.500000", "120838.500000", "120838.500000", "120838.515000", "120838.515000", "120838.515000", "120838.515000", "120838.515000", "120838.515000", "120838.531000", "120838.531000", "120838.531000", "120838.531000", "120838.531000", "120838.531000", "120858.484000", "120858.484000", "120858.484000", "120858.484000", "120858.484000", "120858.484000", "120858.500000", "120858.500000", "120858.500000", "120858.500000", "120858.500000", "120858.500000", "120858.500000", "120858.500000", "120858.515000", "120858.515000", "120858.515000", "120858.515000", "120858.515000", "120858.515000", "120858.515000", "120858.531000", "120858.531000", "120858.531000", "120858.531000", "120858.531000", "120918.484000", "120918.484000", "120918.484000", "120918.484000", "120918.484000", "120918.484000", "120918.500000", "120918.500000", "120918.500000", "120918.500000", "120918.500000", "120918.500000", "120918.500000", "120918.500000", "120918.515000", "120918.515000", "120918.515000", "120918.515000", "120918.515000", "120918.515000", "120918.531000", "120918.531000", "120918.531000", "120918.531000", "120918.531000", "120938.484000", "120938.484000", "120938.484000", "120938.484000", "120938.484000", "120938.484000", "120938.500000", "120938.500000", "120938.500000", "120938.500000", "120938.500000", "120938.500000", "120938.500000", "120938.515000", "120938.515000", "120938.515000", "120938.515000", "120938.515000", "120938.515000", "120938.515000", "120938.531000", "120938.531000", "120938.531000", "120938.531000", "120938.531000", "120938.531000", "120958.484000", "120958.484000", "120958.484000", "120958.484000", "120958.484000", "120958.484000", "120958.500000", "120958.500000", "120958.500000", "120958.500000", "120958.500000", "120958.500000", "120958.500000", "120958.515000", "120958.515000", "120958.515000", "120958.515000", "120958.515000", "120958.515000", "120958.515000", "120958.515000", "120958.531000", "120958.531000", "120958.531000", "120958.531000", "121018.484000", "121018.484000", "121018.484000", "121018.484000", "121018.500000", "121018.500000", "121018.500000", "121018.500000", "121018.500000", "121018.500000", "121018.500000", "121018.515000", "121018.515000", "121018.515000", "121018.515000", "121018.515000", "121018.515000", "121018.515000", "121018.515000", "121018.531000", "121018.531000", "121018.531000", "121018.531000", "121018.531000", "121018.531000", "121018.531000", "121026.250000", "121026.265000", "121026.265000", "121026.265000", "121026.265000", "121026.265000", "121026.265000", "121026.281000", "121026.281000", "121026.281000"],
