{
  "AcquisitionMatrixPE": 104,
  "AcquisitionNumber": 1,
  "AcquisitionTime": "11:45:34.722500",
  "BandwidthPerPixelPhaseEncode": 13.935,
  "BaseResolution": 104,
  "CoilString": "C:HEA;HEP",
  "ConversionSoftware": "dcm2niix",
  "ConversionSoftwareVersion": "v1.0.20210317",
  "DerivedVendorReportedEchoSpacing": 0.000690017,
  "DeviceSerialNumber": "35450",
  "DwellTime": 2.5e-06,
  "EchoTime": 0.0348,
  "EffectiveEchoSpacing": 0.000690017,
  "FlipAngle": 55,
  "ImageComments": "Unaliased MB8/PE3 (remote)",
  "ImageOrientationPatientDICOM": [0.999616, 0.00399827, 0.0274065, -1.3752e-08, 0.989525, -0.144359],
  "ImageType": [
    "ORIGINAL",
    "PRIMARY",
    "M",
    "MB",
    "ND",
    "MOSAIC"
],
  "ImagingFrequency": 123.234,
  "InPlanePhaseEncodingDirectionDICOM": "COL",
  "InstitutionAddress": "Univeristy Ave. 197,Newark,North East,US,07102-1814",
  "InstitutionName": "RUBIC",
  "InstitutionalDepartmentName": "Department",
  "MRAcquisitionType": "2D",
  "MagneticFieldStrength": 3,
  "Manufacturer": "Siemens",
  "ManufacturersModelName": "TrioTim",
  "Modality": "MR",
  "MultibandAccelerationFactor": 8,
  "PartialFourier": 0.875,
  "PatientPosition": "HFS",
  "PercentPhaseFOV": 100,
  "PercentSampling": 100,
  "PhaseEncodingDirection": "j-",
  "PhaseEncodingSteps": 91,
  "PhaseResolution": 1,
  "PixelBandwidth": 1923,
  "ProcedureStepDescription": "Cole^Michael",
  "ProtocolName": "cmrr_mbep2d_bold_2mm_MB8_Task_8x",
  "PulseSequenceDetails": "%CustomerSeq%\\cmrr_mbep2d_bold",
  "ReceiveCoilName": "32Ch_Head",
  "ReconMatrixPE": 104,
  "RepetitionTime": 0.785,
  "SAR": 0.125016,
  "ScanOptions": "PFP\\FS",
  "ScanningSequence": "EP",
  "SequenceName": "epfid2d1_104",
  "SequenceVariant": "SK\\SS",
  "SeriesDescription": "cmrr_mbep2d_bold_2mm_MB8_Task_8x",
  "SeriesNumber": 19,
  "ShimSetting": [2128, -322, -7373, 547, 51, -542, -8, -10],
  "SliceThickness": 2,
  "SliceTiming": [0, 0.4375, 0.0875, 0.525, 0.175, 0.6125, 0.2625, 0.7, 0.35, 0, 0.4375, 0.0875, 0.525, 0.175, 0.6125, 0.2625, 0.7, 0.35, 0, 0.4375, 0.0875, 0.525, 0.175, 0.6125, 0.2625, 0.7, 0.35, 0, 0.4375, 0.0875, 0.525, 0.175, 0.6125, 0.2625, 0.7, 0.35, 0, 0.4375, 0.0875, 0.525, 0.175, 0.6125, 0.2625, 0.7, 0.35, 0, 0.4375, 0.0875, 0.525, 0.175, 0.6125, 0.2625, 0.7, 0.35, 0, 0.4375, 0.0875, 0.525, 0.175, 0.6125, 0.2625, 0.7, 0.35, 0, 0.4375, 0.0875, 0.525, 0.175, 0.6125, 0.2625, 0.7, 0.35],
  "SoftwareVersions": "syngo MR B19",
  "SpacingBetweenSlices": 2,
  "StationName": "MRC35450",
  "TaskName": "cpro",
  "TotalReadoutTime": 0.0710717,
  "TxRefAmp": 334.919,
  "dcmmeta_affine": [
    [-1.9992327690124512, -2.7503990196464656e-08, 0.055393192917108536, 104.67391204833984],
    [-0.007996533997356892, 1.9790507555007935, -0.28860729932785034, -80.97930908203125],
    [0.0548129677772522, 0.288718044757843, 1.978291630744934, -121.36760711669922],
    [0.0, 0.0, 0.0, 1.0]
],
  "dcmmeta_reorient_transform": [
    [0.0, -1.0, 0.0, 103.0],
    [1.0, 0.0, 0.0, 0.0],
    [0.0, 0.0, 1.0, 0.0],
    [0.0, 0.0, 0.0, 1.0]
],
  "dcmmeta_shape": [104, 104, 72, 581],
  "dcmmeta_slice_dim": 2,
  "dcmmeta_version": 0.6,
  "global": {
    "const": {
      "AcquisitionMatrix": [104, 0, 0, 104],
      "AngioFlag": "N",
      "BitsAllocated": 16,
      "BitsStored": 12,
      "Columns": 936,
      "EchoNumbers": 1,
      "EchoTime": 34.8,
      "EchoTrainLength": 1,
      "FlipAngle": 55.0,
      "HighBit": 11,
      "ImageOrientationPatient": [0.99961637568332, 0.00399826719521, 0.02740648326906, -1.3751995e-08, 0.98952537758873, -0.1443590215674],
      "ImagePositionPatient": [-936.35472246978, -949.47458857954, 5.6748664966275],
      "ImageType": [
        "ORIGINAL",
        "PRIMARY",
        "M",
        "MB",
        "ND",
        "MOSAIC"
],
      "ImagedNucleus": "1H",
      "ImagingFrequency": 123.234453,
      "InPlanePhaseEncodingDirection": "COL",
      "MRAcquisitionType": "2D",
      "MagneticFieldStrength": 3.0,
      "Manufacturer": "SIEMENS",
      "ManufacturerModelName": "TrioTim",
      "Modality": "MR",
      "NumberOfAverages": 1.0,
      "NumberOfPhaseEncodingSteps": 91,
      "PercentPhaseFieldOfView": 100.0,
      "PercentSampling": 100.0,
      "PerformedProcedureStepStartTime": "100138.484000",
      "PhotometricInterpretation": "MONOCHROME2",
      "PixelBandwidth": 1923.0,
      "PixelRepresentation": 0,
      "PixelSpacing": [2.0, 2.0],
      "ProtocolName": "cmrr_mbep2d_bold_2mm_MB8_Task_8x",
      "RepetitionTime": 785.0,
      "Rows": 936,
      "SAR": 0.12501569887107,
      "SamplesPerPixel": 1,
      "ScanOptions": [
        "PFP",
        "FS"
],
      "ScanningSequence": "EP",
      "SequenceName": "epfid2d1_104",
      "SequenceVariant": [
        "SK",
        "SS"
],
      "SeriesDescription": "cmrr_mbep2d_bold_2mm_MB8_Task_8x",
      "SeriesNumber": 19,
      "SeriesTime": "114558.484000",
      "SliceLocation": -105.46553143508,
      "SliceThickness": 2.0,
      "SmallestImagePixelValue": 0,
      "SoftwareVersions": "syngo MR B19",
      "SpacingBetweenSlices": 2.000000033951,
      "SpecificCharacterSet": "ISO_IR 100",
      "StudyID": "1",
      "StudyTime": "100138.359000",
      "TransmitCoilName": "Body",
      "VariableFlipAngleFlag": "N",
      "WindowCenterWidthExplanation": "Algo1",
      "dBdt": 0.0},
    "slices": {}
  },
  "time": {
    "samples": {
      "AcquisitionNumber": [1, 2, 3, 4, 5, 6, 7, 8, 9, 10, 11, 12, 13, 14, 15, 16, 17, 18, 19, 20, 21, 22, 23, 24, 25, 26, 27, 28, 29, 30, 31, 32, 33, 34, 35, 36, 37, 38, 39, 40, 41, 42, 43, 44, 45, 46, 47, 48, 49, 50, 51, 52, 53, 54, 55, 56, 57, 58, 59, 60, 61, 62, 63, 64, 65, 66, 67, 68, 69, 70, 71, 72, 73, 74, 75, 76, 77, 78, 79, 80, 81, 82, 83, 84, 85, 86, 87, 88, 89, 90, 91, 92, 93, 94, 95, 96, 97, 98, 99, 100, 101, 102, 103, 104, 105, 106, 107, 108, 109, 110, 111, 112, 113, 114, 115, 116, 117, 118, 119, 120, 121, 122, 123, 124, 125, 126, 127, 128, 129, 130, 131, 132, 133, 134, 135, 136, 137, 138, 139, 140, 141, 142, 143, 144, 145, 146, 147, 148, 149, 150, 151, 152, 153, 154, 155, 156, 157, 158, 159, 160, 161, 162, 163, 164, 165, 166, 167, 168, 169, 170, 171, 172, 173, 174, 175, 176, 177, 178, 179, 180, 181, 182, 183, 184, 185, 186, 187, 188, 189, 190, 191, 192, 193, 194, 195, 196, 197, 198, 199, 200, 201, 202, 203, 204, 205, 206, 207, 208, 209, 210, 211, 212, 213, 214, 215, 216, 217, 218, 219, 220, 221, 222, 223, 224, 225, 226, 227, 228, 229, 230, 231, 232, 233, 234, 235, 236, 237, 238, 239, 240, 241, 242, 243, 244, 245, 246, 247, 248, 249, 250, 251, 252, 253, 254, 255, 256, 257, 258, 259, 260, 261, 262, 263, 264, 265, 266, 267, 268, 269, 270, 271, 272, 273, 274, 275, 276, 277, 278, 279, 280, 281, 282, 283, 284, 285, 286, 287, 288, 289, 290, 291, 292, 293, 294, 295, 296, 297, 298, 299, 300, 301, 302, 303, 304, 305, 306, 307, 308, 309, 310, 311, 312, 313, 314, 315, 316, 317, 318, 319, 320, 321, 322, 323, 324, 325, 326, 327, 328, 329, 330, 331, 332, 333, 334, 335, 336, 337, 338, 339, 340, 341, 342, 343, 344, 345, 346, 347, 348, 349, 350, 351, 352, 353, 354, 355, 356, 357, 358, 359, 360, 361, 362, 363, 364, 365, 366, 367, 368, 369, 370, 371, 372, 373, 374, 375, 376, 377, 378, 379, 380, 381, 382, 383, 384, 385, 386, 387, 388, 389, 390, 391, 392, 393, 394, 395, 396, 397, 398, 399, 400, 401, 402, 403, 404, 405, 406, 407, 408, 409, 410, 411, 412, 413, 414, 415, 416, 417, 418, 419, 420, 421, 422, 423, 424, 425, 426, 427, 428, 429, 430, 431, 432, 433, 434, 435, 436, 437, 438, 439, 440, 441, 442, 443, 444, 445, 446, 447, 448, 449, 450, 451, 452, 453, 454, 455, 456, 457, 458, 459, 460, 461, 462, 463, 464, 465, 466, 467, 468, 469, 470, 471, 472, 473, 474, 475, 476, 477, 478, 479, 480, 481, 482, 483, 484, 485, 486, 487, 488, 489, 490, 491, 492, 493, 494, 495, 496, 497, 498, 499, 500, 501, 502, 503, 504, 505, 506, 507, 508, 509, 510, 511, 512, 513, 514, 515, 516, 517, 518, 519, 520, 521, 522, 523, 524, 525, 526, 527, 528, 529, 530, 531, 532, 533, 534, 535, 536, 537, 538, 539, 540, 541, 542, 543, 544, 545, 546, 547, 548, 549, 550, 551, 552, 553, 554, 555, 556, 557, 558, 559, 560, 561, 562, 563, 564, 565, 566, 567, 568, 569, 570, 571, 572, 573, 574, 575, 576, 577, 578, 579, 580, 581],
      "AcquisitionTime": ["114534.722500", "114535.510000", "114536.300000", "114537.087500", "114537.875000", "114538.662500", "114539.452500", "114540.240000", "114541.027500", "114541.815000", "114542.605000", "114543.392500", "114544.180000", "114544.967500", "114545.757500", "114546.545000", "114547.332500", "114548.120000", "114548.910000", "114549.697500", "114550.485000", "114551.272500", "114552.062500", "114552.850000", "114553.637500", "114554.427500", "114555.215000", "114556.002500", "114556.790000", "114557.580000", "114558.367500", "114559.155000", "114559.942500", "114600.732500", "114601.520000", "114602.307500", "114603.095000", "114603.885000", "114604.672500", "114605.460000", "114606.247500", "114607.037500", "114607.825000", "114608.612500", "114609.400000", "114610.190000", "114610.977500", "114611.765000", "114612.555000", "114613.342500", "114614.130000", "114614.917500", "114615.707500", "114616.495000", "114617.282500", "114618.070000", "114618.860000", "114619.647500", "114620.435000", "114621.222500", "114622.012500", "114622.800000", "114623.587500", "114624.375000", "114625.165000", "114625.952500", "114626.740000", "114627.527500", "114628.317500", "114629.105000", "114629.892500", "114630.682500", "114631.470000", "114632.257500", "114633.045000", "114633.835000", "114634.622500", "114635.410000", "114636.197500", "114636.987500", "114637.775000", "114638.562500", "114639.350000", "114640.140000", "114640.927500", "114641.715000", "114642.502500", "114643.292500", "114644.080000", "114644.867500", "114645.655000", "114646.445000", "114647.232500", "114648.020000", "114648.810000", "114649.597500", "114650.385000", "114651.172500", "114651.962500", "114652.750000", "114653.537500", "114654.325000", "114655.115000", "114655.902500", "114656.690000", "114657.477500", "114658.267500", "114659.055000", "114659.842500", "114700.630000", "114701.420000", "114702.207500", "114702.995000", "114703.782500", "114704.572500", "114705.360000", "114706.147500", "114706.937500", "114707.725000", "114708.512500", "114709.300000", "114710.090000", "114710.877500", "114711.665000", "114712.452500", "114713.242500", "114714.030000", "114714.817500", "114715.605000", "114716.395000", "114717.182500", "114717.970000", "114718.757500", "114719.547500", "114720.335000", "114721.122500", "114721.910000", "114722.700000", "114723.487500", "114724.275000", "114725.065000", "114725.852500", "114726.640000", "114727.427500", "114728.217500", "114729.005000", "114729.792500", "114730.580000", "114731.370000", "114732.157500", "114732.945000", "114733.732500", "114734.522500", "114735.310000", "114736.097500", "114736.885000", "114737.675000", "114738.462500", "114739.250000", "114740.040000", "114740.827500", "114741.615000", "114742.402500", "114743.192500", "114743.980000", "114744.767500", "114745.555000", "114746.345000", "114747.132500", "114747.920000", "114748.707500", "114749.497500", "114750.285000", "114751.072500", "114751.860000", "114752.650000", "114753.437500", "114754.225000", "114755.012500", "114755.802500", "114756.590000", "114757.377500", "114758.167500", "114758.955000", "114759.742500", "114800.530000", "114801.320000", "114802.107500", "114802.895000", "114803.682500", "114804.472500", "114805.260000", "114806.047500", "114806.835000", "114807.625000", "114808.412500", "114809.200000", "114809.987500", "114810.777500", "114811.565000", "114812.352500", "114813.140000", "114813.930000", "114814.717500", "114815.505000", "114816.295000", "114817.082500", "114817.870000", "114818.657500", "114819.447500", "114820.235000", "114821.022500", "114821.810000", "114822.600000", "114823.387500", "114824.175000", "114824.962500", "114825.752500", "114826.540000", "114827.327500", "114828.115000", "114828.905000", "114829.692500", "114830.480000", "114831.267500", "114832.057500", "114832.845000", "114833.632500", "114834.422500", "114835.210000", "114835.997500", "114836.785000", "114837.575000", "114838.362500", "114839.150000", "114839.937500", "114840.727500", "114841.515000", "114842.302500", "114843.090000", "114843.880000", "114844.667500", "114845.455000", "114846.242500", "114847.032500", "114847.820000", "114848.607500", "114849.395000", "114850.185000", "114850.972500", "114851.760000", "114852.550000", "114853.337500", "114854.125000", "114854.912500", "114855.702500", "114856.490000", "114857.277500", "114858.065000", "114858.855000", "114859.642500", "114900.430000", "114901.217500", "114902.007500", "114902.795000", "114903.582500", "114904.370000", "114905.160000", "114905.947500", "114906.735000", "114907.522500", "114908.312500", "114909.100000", "114909.887500", "114910.677500", "114911.465000", "114912.252500", "114913.040000", "114913.830000", "114914.617500", "114915.405000", "114916.192500", "114916.982500", "114917.770000", "114918.557500", "114919.345000", "114920.135000", "114920.922500", "114921.710000", "114922.497500", "114923.287500", "114924.075000", "114924.862500", "114925.650000", "114926.440000", "114927.227500", "114928.015000", "114928.805000", "114929.592500", "114930.380000", "114931.167500", "114931.957500", "114932.745000", "114933.532500", "114934.320000", "114935.110000", "114935.897500", "114936.685000", "114937.472500", "114938.262500", "114939.050000", "114939.837500", "114940.625000", "114941.415000", "114942.202500", "114942.990000", "114943.777500", "114944.567500", "114945.355000", "114946.142500", "114946.932500", "114947.720000", "114948.507500", "114949.295000", "114950.085000", "114950.872500", "114951.660000", "114952.447500", "114953.237500", "114954.025000", "114954.812500", "114955.600000", "114956.390000", "114957.177500", "114957.965000", "114958.752500", "114959.542500", "115000.330000", "115001.117500", "115001.905000", "115002.695000", "115003.482500", "115004.270000", "115005.060000", "115005.847500", "115006.635000", "115007.422500", "115008.212500", "115009.000000", "115009.787500", "115010.575000", "115011.365000", "115012.152500", "115012.940000", "115013.727500", "115014.517500", "115015.305000", "115016.092500", "115016.880000", "115017.670000", "115018.457500", "115019.245000", "115020.032500", "115020.822500", "115021.610000", "115022.397500", "115023.187500", "115023.975000", "115024.762500", "115025.550000", "115026.340000", "115027.127500", "115027.915000", "115028.702500", "115029.492500", "115030.280000", "115031.067500", "115031.855000", "115032.645000", "115033.432500", "115034.220000", "115035.007500", "115035.797500", "115036.585000", "115037.372500", "115038.160000", "115038.950000", "115039.737500", "115040.525000", "115041.315000", "115042.102500", "115042.890000", "115043.677500", "115044.467500", "115045.255000", "115046.042500", "115046.830000", "115047.620000", "115048.407500", "115049.195000", "115049.982500", "115050.772500", "115051.560000", "115052.347500", "115053.135000", "115053.925000", "115054.712500", "115055.500000", "115056.290000", "115057.077500", "115057.865000", "115058.652500", "115059.442500", "115100.230000", "115101.017500", "115101.805000", "115102.595000", "115103.382500", "115104.170000", "115104.957500", "115105.747500", "115106.535000", "115107.322500", "115108.110000", "115108.900000", "115109.687500", "115110.475000", "115111.262500", "115112.052500", "115112.840000", "115113.627500", "115114.417500", "115115.205000", "115115.992500", "115116.780000", "115117.570000", "115118.357500", "115119.145000", "115119.932500", "115120.722500", "115121.510000", "115122.297500", "115123.085000", "115123.875000", "115124.662500", "115125.450000", "115126.237500", "115127.027500", "115127.815000", "115128.602500", "115129.390000", "115130.180000", "115130.967500", "115131.755000", "115132.545000", "115133.332500", "115134.120000", "115134.907500", "115135.697500", "115136.485000", "115137.272500", "115138.060000", "115138.850000", "115139.637500", "115140.425000", "115141.212500", "115142.002500", "115142.790000", "115143.577500", "115144.365000", "115145.155000", "115145.942500", "115146.730000", "115147.517500", "115148.307500", "115149.095000", "115149.882500", "115150.672500", "115151.460000", "115152.247500", "115153.035000", "115153.825000", "115154.612500", "115155.400000", "115156.187500", "115156.977500", "115157.765000", "115158.552500", "115159.340000", "115200.130000", "115200.917500", "115201.705000", "115202.492500", "115203.282500", "115204.070000", "115204.857500", "115205.645000", "115206.435000", "115207.222500", "115208.010000", "115208.800000", "115209.587500", "115210.375000", "115211.162500", "115211.952500", "115212.740000", "115213.527500", "115214.315000", "115215.105000", "115215.892500", "115216.680000", "115217.467500", "115218.257500", "115219.045000", "115219.832500", "115220.620000", "115221.410000", "115222.197500", "115222.985000", "115223.772500", "115224.562500", "115225.350000", "115226.137500", "115226.927500", "115227.715000", "115228.502500", "115229.290000", "115230.080000", "115230.867500", "115231.655000", "115232.442500", "115233.232500", "115234.020000", "115234.807500", "115235.595000", "115236.385000", "115237.172500", "115237.960000", "115238.747500", "115239.537500", "115240.325000", "115241.112500", "115241.900000", "115242.690000", "115243.477500", "115244.265000", "115245.055000", "115245.842500", "115246.630000", "115247.417500", "115248.207500", "115248.995000", "115249.782500", "115250.570000", "115251.360000", "115252.147500", "115252.935000", "115253.722500", "115254.512500", "115255.300000", "115256.087500", "115256.875000", "115257.665000", "115258.452500", "115259.240000", "115300.027500", "115300.817500", "115301.605000", "115302.392500", "115303.182500", "115303.970000", "115304.757500", "115305.545000", "115306.335000", "115307.122500", "115307.910000", "115308.697500", "115309.487500", "115310.275000", "115311.062500", "115311.850000"],
      "ContentTime": ["114558.484000", "114558.484000", "114558.484000", "114558.484000", "114558.484000", "114558.484000", "114558.500000", "114558.500000", "114558.500000", "114558.500000", "114558.500000", "114558.500000", "114558.500000", "114558.515000", "114558.515000", "114558.515000", "114558.515000", "114558.515000", "114558.515000", "114558.531000", "114558.531000", "114558.531000", "114558.531000", "114558.531000", "114558.531000", "114558.531000", "114558.546000", "114558.546000", "114618.453000", "114618.453000", "114618.453000", "114618.453000", "114618.453000", "114618.453000", "114618.468000", "114618.468000", "114618.468000", "114618.468000", "114618.468000", "114618.468000", "114618.468000", "114618.468000", "114618.484000", "114618.484000", "114618.484000", "114618.484000", "114618.484000", "114618.484000", "114618.484000", "114618.500000", "114618.500000", "114618.500000", "114618.500000", "114638.453000", "114638.453000", "114638.453000", "114638.453000", "114638.453000", "114638.453000", "114638.468000", "114638.468000", "114638.468000", "114638.468000", "114638.468000", "114638.468000", "114638.468000", "114638.484000", "114638.484000", "114638.484000", "114638.484000", "114638.484000", "114638.484000", "114638.484000", "114638.500000", "114638.500000", "114638.500000", "114638.500000", "114638.500000", "114638.500000", "114658.453000", "114658.453000", "114658.453000", "114658.453000", "114658.453000", "114658.453000", "114658.468000", "114658.468000", "114658.468000", "114658.468000", "114658.468000", "114658.468000", "114658.468000", "114658.468000", "114658.484000", "114658.484000", "114658.484000", "114658.484000", "114658.484000", "114658.484000", "114658.500000", "114658.500000", "114658.500000", "114658.500000", "114658.500000", "114718.453000", "114718.453000", "114718.453000", "114718.453000", "114718.453000", "114718.453000", "114718.468000", "114718.468000", "114718.468000", "114718.468000", "114718.468000", "114718.468000", "114718.468000", "114718.484000", "114718.484000", "114718.484000", "114718.484000", "114718.484000", "114718.484000", "114718.484000", "114718.500000", "114718.500000", "114718.500000", "114718.500000", "114718.500000", "114738.453000", "114738.453000", "114738.453000", "114738.453000", "114738.453000", "114738.453000", "114738.468000", "114738.468000", "114738.468000", "114738.468000", "114738.468000", "114738.468000", "114738.468000", "114738.484000", "114738.484000", "114738.484000", "114738.484000", "114738.484000", "114738.484000", "114738.484000", "114738.484000", "114738.500000", "114738.500000", "114738.500000", "114738.500000", "114738.500000", "114758.453000", "114758.453000", "114758.453000", "114758.453000", "114758.453000", "114758.453000", "114758.468000", "114758.468000", "114758.468000", "114758.468000", "114758.468000", "114758.468000", "114758.468000", "114758.484000", "114758.484000", "114758.484000", "114758.484000", "114758.484000", "114758.484000", "114758.500000", "114758.500000", "114758.500000", "114758.500000", "114758.500000", "114758.500000", "114818.453000", "114818.453000", "114818.453000", "114818.453000", "114818.453000", "114818.453000", "114818.468000", "114818.468000", "114818.468000", "114818.468000", "114818.468000", "114818.468000", "114818.468000", "114818.484000", "114818.484000", "114818.484000", "114818.484000", "114818.484000", "114818.484000", "114818.484000", "114818.484000", "114818.500000", "114818.500000", "114818.500000", "114818.500000", "114818.500000", "114838.453000", "114838.453000", "114838.453000", "114838.453000", "114838.453000", "114838.453000", "114838.468000", "114838.468000", "114838.468000", "114838.468000", "114838.468000", "114838.468000", "114838.468000", "114838.484000", "114838.484000", "114838.484000", "114838.484000", "114838.484000", "114838.484000", "114838.484000", "114838.484000", "114838.500000", "114838.500000", "114838.500000", "114838.500000", "114858.453000", "114858.453000", "114858.453000", "114858.453000", "114858.453000", "114858.468000", "114858.468000", "114858.468000", "114858.468000", "114858.468000", "114858.468000", "114858.468000", "114858.468000", "114858.484000", "114858.484000", "114858.484000", "114858.484000", "114858.484000", "114858.484000", "114858.484000", "114858.500000", "114858.500000", "114858.500000", "114858.500000", "114858.500000", "114858.500000", "114918.453000", "114918.453000", "114918.453000", "114918.453000", "114918.453000", "114918.453000", "114918.468000", "114918.468000", "114918.468000", "114918.468000", "114918.468000", "114918.484000", "114918.484000", "114918.484000", "114918.484000", "114918.484000", "114918.484000", "114918.500000", "114918.500000", "114918.500000", "114918.500000", "114918.500000", "114918.500000", "114918.500000", "114918.515000", "114938.453000", "114938.453000", "114938.453000", "114938.453000", "114938.453000", "114938.453000", "114938.468000", "114938.468000", "114938.468000", "114938.468000", "114938.468000", "114938.468000", "114938.468000", "114938.484000", "114938.484000", "114938.484000", "114938.484000", "114938.484000", "114938.484000", "114938.484000", "114938.500000", "114938.500000", "114938.500000", "114938.500000", "114938.500000", "114938.500000", "114958.453000", "114958.453000", "114958.453000", "114958.453000", "114958.453000", "114958.453000", "114958.468000", "114958.468000", "114958.468000", "114958.468000", "114958.468000", "114958.468000", "114958.468000", "114958.468000", "114958.484000", "114958.484000", "114958.484000", "114958.484000", "114958.484000", "114958.484000", "114958.484000", "114958.500000", "114958.500000", "114958.500000", "114958.500000", "115018.453000", "115018.453000", "115018.453000", "115018.453000", "115018.453000", "115018.453000", "115018.468000", "115018.468000", "115018.468000", "115018.468000", "115018.468000", "115018.468000", "115018.484000", "115018.484000", "115018.484000", "115018.484000", "115018.484000", "115018.500000", "115018.500000", "115018.500000", "115018.500000", "115018.500000", "115018.500000", "115018.515000", "115018.515000", "115018.515000", "115038.453000", "115038.453000", "115038.453000", "115038.453000", "115038.453000", "115038.453000", "115038.468000", "115038.468000", "115038.468000", "115038.468000", "115038.484000", "115038.484000", "115038.484000", "115038.484000", "115038.484000", "115038.484000", "115038.500000", "115038.500000", "115038.500000", "115038.500000", "115038.500000", "115038.515000", "115038.515000", "115038.515000", "115038.515000", "115058.453000", "115058.453000", "115058.453000", "115058.453000", "115058.453000", "115058.453000", "115058.468000", "115058.468000", "115058.468000", "115058.468000", "115058.468000", "115058.468000", "115058.468000", "115058.484000", "115058.484000", "115058.484000", "115058.484000", "115058.484000", "115058.484000", "115058.484000", "115058.500000", "115058.500000", "115058.500000", "115058.500000", "115058.500000", "115058.515000", "115118.453000", "115118.453000", "115118.453000", "115118.453000", "115118.453000", "115118.453000", "115118.468000", "115118.468000", "115118.468000", "115118.468000", "115118.468000", "115118.468000", "115118.468000", "115118.484000", "115118.484000", "115118.484000", "115118.484000", "115118.500000", "115118.500000", "115118.500000", "115118.500000", "115118.500000", "115118.500000", "115118.500000", "115118.515000", "115138.453000", "115138.453000", "115138.453000", "115138.453000", "115138.453000", "115138.453000", "115138.468000", "115138.468000", "115138.468000", "115138.468000", "115138.468000", "115138.468000", "115138.468000", "115138.468000", "115138.484000", "115138.484000", "115138.484000", "115138.484000", "115138.484000", "115138.484000", "115138.484000", "115138.500000", "115138.500000", "115138.500000", "115138.500000", "115138.515000", "115158.453000", "115158.453000", "115158.453000", "115158.453000", "115158.453000", "115158.453000", "115158.468000", "115158.468000", "115158.468000", "115158.468000", "115158.468000", "115158.468000", "115158.468000", "115158.484000", "115158.484000", "115158.484000", "115158.484000", "115158.484000", "115158.484000", "115158.484000", "115158.484000", "115158.500000", "115158.500000", "115158.500000", "115158.500000", "115218.453000", "115218.453000", "115218.453000", "115218.453000", "115218.453000", "115218.453000", "115218.468000", "115218.468000", "115218.468000", "115218.468000", "115218.468000", "115218.468000", "115218.468000", "115218.484000", "115218.484000", "115218.484000", "115218.484000", "115218.484000", "115218.484000", "115218.484000", "115218.500000", "115218.500000", "115218.500000", "115218.515000", "115218.515000", "115218.515000", "115238.453000", "115238.453000", "115238.453000", "115238.453000", "115238.453000", "115238.453000", "115238.468000", "115238.468000", "115238.468000", "115238.468000", "115238.468000", "115238.484000", "115238.484000", "115238.484000", "115238.484000", "115238.484000", "115238.484000", "115238.484000", "115238.500000", "115238.500000", "115238.500000", "115238.500000", "115238.500000", "115238.500000", "115238.500000", "115258.453000", "115258.453000", "115258.453000", "115258.453000", "115258.453000", "115258.453000", "115258.468000", "115258.468000", "115258.468000", "115258.468000", "115258.468000", "115258.468000", "115258.468000", "115258.484000", "115258.484000", "115258.484000", "115258.484000", "115258.484000", "115258.500000", "115258.500000", "115258.500000", "115258.500000", "115258.500000", "115258.500000", "115258.500000", "115258.500000", "115312.593000", "115312.609000", "115312.609000", "115312.609000", "115312.609000", "115312.609000", "115312.609000", "115312.609000", "115312.609000", "115312.625000", "115312.625000", "115312.625000", "115312.625000", "115312.625000", "115312.625000", "115312.640000", "115312.640000", "115312.640000"],
