{
  "AcquisitionMatrixPE": 104,
  "AcquisitionNumber": 1,
  "AcquisitionTime": "11:28:26.702500",
  "BandwidthPerPixelPhaseEncode": 13.935,
  "BaseResolution": 104,
  "CoilString": "C:HEA;HEP",
  "ConversionSoftware": "dcm2niix",
  "ConversionSoftwareVersion": "v1.0.20210317",
  "DerivedVendorReportedEchoSpacing": 0.000690017,
  "DeviceSerialNumber": "35450",
  "DwellTime": 2.5e-06,
  "EchoTime": 0.0348,
  "EffectiveEchoSpacing": 0.000690017,
  "FlipAngle": 55,
  "ImageComments": "Unaliased MB8/PE3 (remote)",
  "ImageOrientationPatientDICOM": [0.999616, 0.00399827, 0.0274065, -1.3752e-08, 0.989525, -0.144359],
  "ImageType": [
    "ORIGINAL",
    "PRIMARY",
    "M",
    "MB",
    "ND",
    "MOSAIC"
],
  "ImagingFrequency": 123.234,
  "InPlanePhaseEncodingDirectionDICOM": "COL",
  "InstitutionAddress": "Univeristy Ave. 197,Newark,North East,US,07102-1814",
  "InstitutionName": "RUBIC",
  "InstitutionalDepartmentName": "Department",
  "MRAcquisitionType": "2D",
  "MagneticFieldStrength": 3,
  "Manufacturer": "Siemens",
  "ManufacturersModelName": "TrioTim",
  "Modality": "MR",
  "MultibandAccelerationFactor": 8,
  "PartialFourier": 0.875,
  "PatientPosition": "HFS",
  "PercentPhaseFOV": 100,
  "PercentSampling": 100,
  "PhaseEncodingDirection": "j-",
  "PhaseEncodingSteps": 91,
  "PhaseResolution": 1,
  "PixelBandwidth": 1923,
  "ProcedureStepDescription": "Cole^Michael",
  "ProtocolName": "cmrr_mbep2d_bold_2mm_MB8_Task_8x",
  "PulseSequenceDetails": "%CustomerSeq%\\cmrr_mbep2d_bold",
  "ReceiveCoilName": "32Ch_Head",
  "ReconMatrixPE": 104,
  "RepetitionTime": 0.785,
  "SAR": 0.125016,
  "ScanOptions": "PFP\\FS",
  "ScanningSequence": "EP",
  "SequenceName": "epfid2d1_104",
  "SequenceVariant": "SK\\SS",
  "SeriesDescription": "cmrr_mbep2d_bold_2mm_MB8_Task_8x",
  "SeriesNumber": 15,
  "ShimSetting": [2128, -322, -7373, 547, 51, -542, -8, -10],
  "SliceThickness": 2,
  "SliceTiming": [0, 0.4375, 0.0875, 0.525, 0.175, 0.6125, 0.2625, 0.7, 0.35, 0, 0.4375, 0.0875, 0.525, 0.175, 0.6125, 0.2625, 0.7, 0.35, 0, 0.4375, 0.0875, 0.525, 0.175, 0.6125, 0.2625, 0.7, 0.35, 0, 0.4375, 0.0875, 0.525, 0.175, 0.6125, 0.2625, 0.7, 0.35, 0, 0.4375, 0.0875, 0.525, 0.175, 0.6125, 0.2625, 0.7, 0.35, 0, 0.4375, 0.0875, 0.525, 0.175, 0.6125, 0.2625, 0.7, 0.35, 0, 0.4375, 0.0875, 0.525, 0.175, 0.6125, 0.2625, 0.7, 0.35, 0, 0.4375, 0.0875, 0.525, 0.175, 0.6125, 0.2625, 0.7, 0.35],
  "SoftwareVersions": "syngo MR B19",
  "SpacingBetweenSlices": 2,
  "StationName": "MRC35450",
  "TaskName": "cpro",
  "TotalReadoutTime": 0.0710717,
  "TxRefAmp": 334.919,
  "dcmmeta_affine": [
    [-1.9992327690124512, -2.7503990196464656e-08, 0.055393192917108536, 104.67391204833984],
    [-0.007996533997356892, 1.9790507555007935, -0.28860729932785034, -80.97930908203125],
    [0.0548129677772522, 0.288718044757843, 1.978291630744934, -121.36760711669922],
    [0.0, 0.0, 0.0, 1.0]
],
  "dcmmeta_reorient_transform": [
    [0.0, -1.0, 0.0, 103.0],
    [1.0, 0.0, 0.0, 0.0],
    [0.0, 0.0, 1.0, 0.0],
    [0.0, 0.0, 0.0, 1.0]
],
  "dcmmeta_shape": [104, 104, 72, 581],
  "dcmmeta_slice_dim": 2,
  "dcmmeta_version": 0.6,
  "global": {
    "const": {
      "AcquisitionMatrix": [104, 0, 0, 104],
      "AngioFlag": "N",
      "BitsAllocated": 16,
      "BitsStored": 12,
      "Columns": 936,
      "EchoNumbers": 1,
      "EchoTime": 34.8,
      "EchoTrainLength": 1,
      "FlipAngle": 55.0,
      "HighBit": 11,
      "ImageOrientationPatient": [0.99961637568332, 0.00399826719521, 0.02740648326906, -1.3751995e-08, 0.98952537758873, -0.1443590215674],
      "ImagePositionPatient": [-936.35472246978, -949.47458857954, 5.6748664966275],
      "ImageType": [
        "ORIGINAL",
        "PRIMARY",
        "M",
        "MB",
        "ND",
        "MOSAIC"
],
      "ImagedNucleus": "1H",
      "ImagingFrequency": 123.234453,
      "InPlanePhaseEncodingDirection": "COL",
      "MRAcquisitionType": "2D",
      "MagneticFieldStrength": 3.0,
      "Manufacturer": "SIEMENS",
      "ManufacturerModelName": "TrioTim",
      "Modality": "MR",
      "NumberOfAverages": 1.0,
      "NumberOfPhaseEncodingSteps": 91,
      "PercentPhaseFieldOfView": 100.0,
      "PercentSampling": 100.0,
      "PerformedProcedureStepStartTime": "100138.484000",
      "PhotometricInterpretation": "MONOCHROME2",
      "PixelBandwidth": 1923.0,
      "PixelRepresentation": 0,
      "PixelSpacing": [2.0, 2.0],
      "ProtocolName": "cmrr_mbep2d_bold_2mm_MB8_Task_8x",
      "RepetitionTime": 785.0,
      "Rows": 936,
      "SAR": 0.12501569887107,
      "SamplesPerPixel": 1,
      "ScanOptions": [
        "PFP",
        "FS"
],
      "ScanningSequence": "EP",
      "SequenceName": "epfid2d1_104",
      "SequenceVariant": [
        "SK",
        "SS"
],
      "SeriesDescription": "cmrr_mbep2d_bold_2mm_MB8_Task_8x",
      "SeriesNumber": 15,
      "SeriesTime": "112841.640000",
      "SliceLocation": -105.46553143508,
      "SliceThickness": 2.0,
      "SmallestImagePixelValue": 0,
      "SoftwareVersions": "syngo MR B19",
      "SpacingBetweenSlices": 2.000000033951,
      "SpecificCharacterSet": "ISO_IR 100",
      "StudyID": "1",
      "StudyTime": "100138.359000",
      "TransmitCoilName": "Body",
      "VariableFlipAngleFlag": "N",
      "WindowCenterWidthExplanation": "Algo1",
      "dBdt": 0.0},
    "slices": {}
  },
  "time": {
    "samples": {
      "AcquisitionNumber": [1, 2, 3, 4, 5, 6, 7, 8, 9, 10, 11, 12, 13, 14, 15, 16, 17, 18, 19, 20, 21, 22, 23, 24, 25, 26, 27, 28, 29, 30, 31, 32, 33, 34, 35, 36, 37, 38, 39, 40, 41, 42, 43, 44, 45, 46, 47, 48, 49, 50, 51, 52, 53, 54, 55, 56, 57, 58, 59, 60, 61, 62, 63, 64, 65, 66, 67, 68, 69, 70, 71, 72, 73, 74, 75, 76, 77, 78, 79, 80, 81, 82, 83, 84, 85, 86, 87, 88, 89, 90, 91, 92, 93, 94, 95, 96, 97, 98, 99, 100, 101, 102, 103, 104, 105, 106, 107, 108, 109, 110, 111, 112, 113, 114, 115, 116, 117, 118, 119, 120, 121, 122, 123, 124, 125, 126, 127, 128, 129, 130, 131, 132, 133, 134, 135, 136, 137, 138, 139, 140, 141, 142, 143, 144, 145, 146, 147, 148, 149, 150, 151, 152, 153, 154, 155, 156, 157, 158, 159, 160, 161, 162, 163, 164, 165, 166, 167, 168, 169, 170, 171, 172, 173, 174, 175, 176, 177, 178, 179, 180, 181, 182, 183, 184, 185, 186, 187, 188, 189, 190, 191, 192, 193, 194, 195, 196, 197, 198, 199, 200, 201, 202, 203, 204, 205, 206, 207, 208, 209, 210, 211, 212, 213, 214, 215, 216, 217, 218, 219, 220, 221, 222, 223, 224, 225, 226, 227, 228, 229, 230, 231, 232, 233, 234, 235, 236, 237, 238, 239, 240, 241, 242, 243, 244, 245, 246, 247, 248, 249, 250, 251, 252, 253, 254, 255, 256, 257, 258, 259, 260, 261, 262, 263, 264, 265, 266, 267, 268, 269, 270, 271, 272, 273, 274, 275, 276, 277, 278, 279, 280, 281, 282, 283, 284, 285, 286, 287, 288, 289, 290, 291, 292, 293, 294, 295, 296, 297, 298, 299, 300, 301, 302, 303, 304, 305, 306, 307, 308, 309, 310, 311, 312, 313, 314, 315, 316, 317, 318, 319, 320, 321, 322, 323, 324, 325, 326, 327, 328, 329, 330, 331, 332, 333, 334, 335, 336, 337, 338, 339, 340, 341, 342, 343, 344, 345, 346, 347, 348, 349, 350, 351, 352, 353, 354, 355, 356, 357, 358, 359, 360, 361, 362, 363, 364, 365, 366, 367, 368, 369, 370, 371, 372, 373, 374, 375, 376, 377, 378, 379, 380, 381, 382, 383, 384, 385, 386, 387, 388, 389, 390, 391, 392, 393, 394, 395, 396, 397, 398, 399, 400, 401, 402, 403, 404, 405, 406, 407, 408, 409, 410, 411, 412, 413, 414, 415, 416, 417, 418, 419, 420, 421, 422, 423, 424, 425, 426, 427, 428, 429, 430, 431, 432, 433, 434, 435, 436, 437, 438, 439, 440, 441, 442, 443, 444, 445, 446, 447, 448, 449, 450, 451, 452, 453, 454, 455, 456, 457, 458, 459, 460, 461, 462, 463, 464, 465, 466, 467, 468, 469, 470, 471, 472, 473, 474, 475, 476, 477, 478, 479, 480, 481, 482, 483, 484, 485, 486, 487, 488, 489, 490, 491, 492, 493, 494, 495, 496, 497, 498, 499, 500, 501, 502, 503, 504, 505, 506, 507, 508, 509, 510, 511, 512, 513, 514, 515, 516, 517, 518, 519, 520, 521, 522, 523, 524, 525, 526, 527, 528, 529, 530, 531, 532, 533, 534, 535, 536, 537, 538, 539, 540, 541, 542, 543, 544, 545, 546, 547, 548, 549, 550, 551, 552, 553, 554, 555, 556, 557, 558, 559, 560, 561, 562, 563, 564, 565, 566, 567, 568, 569, 570, 571, 572, 573, 574, 575, 576, 577, 578, 579, 580, 581],
      "AcquisitionTime": ["112826.702500", "112827.490000", "112828.280000", "112829.067500", "112829.855000", "112830.642500", "112831.432500", "112832.220000", "112833.007500", "112833.795000", "112834.585000", "112835.372500", "112836.160000", "112836.950000", "112837.737500", "112838.525000", "112839.312500", "112840.102500", "112840.890000", "112841.677500", "112842.465000", "112843.255000", "112844.042500", "112844.830000", "112845.617500", "112846.407500", "112847.195000", "112847.982500", "112848.770000", "112849.560000", "112850.347500", "112851.135000", "112851.922500", "112852.712500", "112853.500000", "112854.287500", "112855.077500", "112855.865000", "112856.652500", "112857.440000", "112858.230000", "112859.017500", "112859.805000", "112900.592500", "112901.382500", "112902.170000", "112902.957500", "112903.745000", "112904.535000", "112905.322500", "112906.110000", "112906.897500", "112907.687500", "112908.475000", "112909.262500", "112910.050000", "112910.840000", "112911.627500", "112912.415000", "112913.205000", "112913.992500", "112914.780000", "112915.567500", "112916.357500", "112917.145000", "112917.932500", "112918.720000", "112919.510000", "112920.297500", "112921.085000", "112921.872500", "112922.662500", "112923.450000", "112924.237500", "112925.025000", "112925.815000", "112926.602500", "112927.390000", "112928.177500", "112928.967500", "112929.755000", "112930.542500", "112931.332500", "112932.120000", "112932.907500", "112933.695000", "112934.485000", "112935.272500", "112936.060000", "112936.847500", "112937.637500", "112938.425000", "112939.212500", "112940.000000", "112940.790000", "112941.577500", "112942.365000", "112943.152500", "112943.942500", "112944.730000", "112945.517500", "112946.305000", "112947.095000", "112947.882500", "112948.670000", "112949.460000", "112950.247500", "112951.035000", "112951.822500", "112952.612500", "112953.400000", "112954.187500", "112954.975000", "112955.765000", "112956.552500", "112957.340000", "112958.127500", "112958.917500", "112959.705000", "113000.492500", "113001.280000", "113002.070000", "113002.857500", "113003.645000", "113004.432500", "113005.222500", "113006.010000", "113006.797500", "113007.587500", "113008.375000", "113009.162500", "113009.950000", "113010.740000", "113011.527500", "113012.315000", "113013.102500", "113013.892500", "113014.680000", "113015.467500", "113016.255000", "113017.045000", "113017.832500", "113018.620000", "113019.407500", "113020.197500", "113020.985000", "113021.772500", "113022.560000", "113023.350000", "113024.137500", "113024.925000", "113025.715000", "113026.502500", "113027.290000", "113028.077500", "113028.867500", "113029.655000", "113030.442500", "113031.230000", "113032.020000", "113032.807500", "113033.595000", "113034.382500", "113035.172500", "113035.960000", "113036.747500", "113037.535000", "113038.325000", "113039.112500", "113039.900000", "113040.687500", "113041.477500", "113042.265000", "113043.052500", "113043.842500", "113044.630000", "113045.417500", "113046.205000", "113046.995000", "113047.782500", "113048.570000", "113049.357500", "113050.147500", "113050.935000", "113051.722500", "113052.510000", "113053.300000", "113054.087500", "113054.875000", "113055.662500", "113056.452500", "113057.240000", "113058.027500", "113058.815000", "113059.605000", "113100.392500", "113101.180000", "113101.970000", "113102.757500", "113103.545000", "113104.332500", "113105.122500", "113105.910000", "113106.697500", "113107.485000", "113108.275000", "113109.062500", "113109.850000", "113110.637500", "113111.427500", "113112.215000", "113113.002500", "113113.790000", "113114.580000", "113115.367500", "113116.155000", "113116.942500", "113117.732500", "113118.520000", "113119.307500", "113120.097500", "113120.885000", "113121.672500", "113122.460000", "113123.250000", "113124.037500", "113124.825000", "113125.612500", "113126.402500", "113127.190000", "113127.977500", "113128.765000", "113129.555000", "113130.342500", "113131.130000", "113131.917500", "113132.707500", "113133.495000", "113134.282500", "113135.070000", "113135.860000", "113136.647500", "113137.435000", "113138.225000", "113139.012500", "113139.800000", "113140.587500", "113141.377500", "113142.165000", "113142.952500", "113143.740000", "113144.530000", "113145.317500", "113146.105000", "113146.892500", "113147.682500", "113148.470000", "113149.257500", "113150.045000", "113150.835000", "113151.622500", "113152.410000", "113153.200000", "113153.987500", "113154.775000", "113155.562500", "113156.352500", "113157.140000", "113157.927500", "113158.715000", "113159.505000", "113200.292500", "113201.080000", "113201.867500", "113202.657500", "113203.445000", "113204.232500", "113205.020000", "113205.810000", "113206.597500", "113207.385000", "113208.172500", "113208.962500", "113209.750000", "113210.537500", "113211.327500", "113212.115000", "113212.902500", "113213.690000", "113214.480000", "113215.267500", "113216.055000", "113216.842500", "113217.632500", "113218.420000", "113219.207500", "113219.995000", "113220.785000", "113221.572500", "113222.360000", "113223.147500", "113223.937500", "113224.725000", "113225.512500", "113226.300000", "113227.090000", "113227.877500", "113228.665000", "113229.455000", "113230.242500", "113231.030000", "113231.817500", "113232.607500", "113233.395000", "113234.182500", "113234.970000", "113235.760000", "113236.547500", "113237.335000", "113238.122500", "113238.912500", "113239.700000", "113240.487500", "113241.275000", "113242.065000", "113242.852500", "113243.640000", "113244.427500", "113245.217500", "113246.005000", "113246.792500", "113247.582500", "113248.370000", "113249.157500", "113249.945000", "113250.735000", "113251.522500", "113252.310000", "113253.097500", "113253.887500", "113254.675000", "113255.462500", "113256.250000", "113257.040000", "113257.827500", "113258.615000", "113259.402500", "113300.192500", "113300.980000", "113301.767500", "113302.555000", "113303.345000", "113304.132500", "113304.920000", "113305.710000", "113306.497500", "113307.285000", "113308.072500", "113308.862500", "113309.650000", "113310.437500", "113311.225000", "113312.015000", "113312.802500", "113313.590000", "113314.377500", "113315.167500", "113315.955000", "113316.742500", "113317.530000", "113318.320000", "113319.107500", "113319.895000", "113320.682500", "113321.472500", "113322.260000", "113323.047500", "113323.837500", "113324.625000", "113325.412500", "113326.200000", "113326.990000", "113327.777500", "113328.565000", "113329.352500", "113330.142500", "113330.930000", "113331.717500", "113332.505000", "113333.295000", "113334.082500", "113334.870000", "113335.657500", "113336.447500", "113337.235000", "113338.022500", "113338.810000", "113339.600000", "113340.387500", "113341.175000", "113341.965000", "113342.752500", "113343.540000", "113344.327500", "113345.117500", "113345.905000", "113346.692500", "113347.480000", "113348.270000", "113349.057500", "113349.845000", "113350.632500", "113351.422500", "113352.210000", "113352.997500", "113353.785000", "113354.575000", "113355.362500", "113356.150000", "113356.937500", "113357.727500", "113358.515000", "113359.302500", "113400.092500", "113400.880000", "113401.667500", "113402.455000", "113403.245000", "113404.032500", "113404.820000", "113405.607500", "113406.397500", "113407.185000", "113407.972500", "113408.760000", "113409.550000", "113410.337500", "113411.125000", "113411.912500", "113412.702500", "113413.490000", "113414.277500", "113415.065000", "113415.855000", "113416.642500", "113417.430000", "113418.220000", "113419.007500", "113419.795000", "113420.582500", "113421.372500", "113422.160000", "113422.947500", "113423.735000", "113424.525000", "113425.312500", "113426.100000", "113426.887500", "113427.677500", "113428.465000", "113429.252500", "113430.040000", "113430.830000", "113431.617500", "113432.405000", "113433.192500", "113433.982500", "113434.770000", "113435.557500", "113436.347500", "113437.135000", "113437.922500", "113438.710000", "113439.500000", "113440.287500", "113441.075000", "113441.862500", "113442.652500", "113443.440000", "113444.227500", "113445.015000", "113445.805000", "113446.592500", "113447.380000", "113448.167500", "113448.957500", "113449.745000", "113450.532500", "113451.320000", "113452.110000", "113452.897500", "113453.685000", "113454.475000", "113455.262500", "113456.050000", "113456.837500", "113457.627500", "113458.415000", "113459.202500", "113459.990000", "113500.780000", "113501.567500", "113502.355000", "113503.142500", "113503.932500", "113504.720000", "113505.507500", "113506.295000", "113507.085000", "113507.872500", "113508.660000", "113509.450000", "113510.237500", "113511.025000", "113511.812500", "113512.602500", "113513.390000", "113514.177500", "113514.965000", "113515.755000", "113516.542500", "113517.330000", "113518.117500", "113518.907500", "113519.695000", "113520.482500", "113521.270000", "113522.060000", "113522.847500", "113523.635000", "113524.422500", "113525.212500", "113526.000000", "113526.787500", "113527.577500", "113528.365000", "113529.152500", "113529.940000", "113530.730000", "113531.517500", "113532.305000", "113533.092500", "113533.882500", "113534.670000", "113535.457500", "113536.245000", "113537.035000", "113537.822500", "113538.610000", "113539.397500", "113540.187500", "113540.975000", "113541.762500", "113542.550000", "113543.340000", "113544.127500", "113544.915000", "113545.705000", "113546.492500", "113547.280000", "113548.067500", "113548.857500", "113549.645000", "113550.432500", "113551.220000", "113552.010000", "113552.797500", "113553.585000", "113554.372500", "113555.162500", "113555.950000", "113556.737500", "113557.525000", "113558.315000", "113559.102500", "113559.890000", "113600.677500", "113601.467500", "113602.255000", "113603.042500", "113603.832500"],
      "ContentTime": ["112841.640000", "112841.640000", "112841.656000", "112841.656000", "112841.656000", "112841.656000", "112841.656000", "112841.656000", "112841.671000", "112841.671000", "112841.671000", "112841.671000", "112841.671000", "112841.671000", "112841.687000", "112841.687000", "112901.625000", "112901.625000", "112901.625000", "112901.625000", "112901.625000", "112901.625000", "112901.640000", "112901.640000", "112901.640000", "112901.640000", "112901.640000", "112901.640000", "112901.640000", "112901.656000", "112901.656000", "112901.656000", "112901.656000", "112901.656000", "112901.656000", "112901.656000", "112901.656000", "112901.671000", "112901.671000", "112901.671000", "112901.671000", "112901.687000", "112921.625000", "112921.625000", "112921.625000", "112921.625000", "112921.625000", "112921.640000", "112921.640000", "112921.640000", "112921.640000", "112921.640000", "112921.656000", "112921.656000", "112921.656000", "112921.656000", "112921.656000", "112921.656000", "112921.656000", "112921.656000", "112921.671000", "112921.671000", "112921.671000", "112921.671000", "112921.671000", "112921.671000", "112921.671000", "112941.625000", "112941.625000", "112941.625000", "112941.625000", "112941.625000", "112941.625000", "112941.640000", "112941.640000", "112941.640000", "112941.640000", "112941.640000", "112941.640000", "112941.640000", "112941.656000", "112941.656000", "112941.656000", "112941.656000", "112941.656000", "112941.656000", "112941.656000", "112941.671000", "112941.671000", "112941.671000", "112941.671000", "112941.671000", "112941.671000", "113001.625000", "113001.625000", "113001.625000", "113001.625000", "113001.625000", "113001.625000", "113001.640000", "113001.640000", "113001.640000", "113001.640000", "113001.640000", "113001.640000", "113001.656000", "113001.656000", "113001.656000", "113001.656000", "113001.656000", "113001.656000", "113001.656000", "113001.671000", "113001.671000", "113001.671000", "113001.671000", "113001.671000", "113001.687000", "113021.625000", "113021.625000", "113021.625000", "113021.625000", "113021.625000", "113021.625000", "113021.640000", "113021.640000", "113021.640000", "113021.640000", "113021.640000", "113021.640000", "113021.640000", "113021.656000", "113021.656000", "113021.656000", "113021.656000", "113021.656000", "113021.656000", "113021.656000", "113021.656000", "113021.671000", "113021.671000", "113021.671000", "113021.671000", "113021.671000", "113041.625000", "113041.625000", "113041.625000", "113041.625000", "113041.625000", "113041.625000", "113041.640000", "113041.640000", "113041.640000", "113041.640000", "113041.640000", "113041.640000", "113041.640000", "113041.656000", "113041.656000", "113041.656000", "113041.656000", "113041.656000", "113041.656000", "113041.656000", "113041.671000", "113041.671000", "113041.671000", "113041.671000", "113041.671000", "113101.625000", "113101.625000", "113101.625000", "113101.625000", "113101.625000", "113101.625000", "113101.640000", "113101.640000", "113101.640000", "113101.640000", "113101.640000", "113101.640000", "113101.640000", "113101.656000", "113101.656000", "113101.656000", "113101.656000", "113101.656000", "113101.656000", "113101.656000", "113101.656000", "113101.671000", "113101.671000", "113101.671000", "113101.671000", "113101.671000", "113121.625000", "113121.625000", "113121.625000", "113121.625000", "113121.625000", "113121.625000", "113121.640000", "113121.640000", "113121.640000", "113121.640000", "113121.640000", "113121.640000", "113121.640000", "113121.656000", "113121.656000", "113121.656000", "113121.656000", "113121.656000", "113121.671000", "113121.671000", "113121.671000", "113121.671000", "113121.671000", "113121.671000", "113121.671000", "113141.625000", "113141.625000", "113141.625000", "113141.625000", "113141.625000", "113141.625000", "113141.640000", "113141.640000", "113141.640000", "113141.640000", "113141.640000", "113141.640000", "113141.640000", "113141.656000", "113141.656000", "113141.656000", "113141.656000", "113141.656000", "113141.656000", "113141.656000", "113141.656000", "113141.671000", "113141.671000", "113141.671000", "113141.671000", "113141.671000", "113201.625000", "113201.625000", "113201.625000", "113201.625000", "113201.625000", "113201.625000", "113201.640000", "113201.640000", "113201.640000", "113201.640000", "113201.640000", "113201.640000", "113201.640000", "113201.656000", "113201.656000", "113201.656000", "113201.656000", "113201.656000", "113201.656000", "113201.656000", "113201.671000", "113201.671000", "113201.671000", "113201.671000", "113201.671000", "113221.625000", "113221.625000", "113221.625000", "113221.625000", "113221.625000", "113221.625000", "113221.640000", "113221.640000", "113221.640000", "113221.640000", "113221.640000", "113221.640000", "113221.640000", "113221.656000", "113221.656000", "113221.656000", "113221.656000", "113221.656000", "113221.656000", "113221.656000", "113221.671000", "113221.671000", "113221.671000", "113221.671000", "113221.671000", "113221.671000", "113241.625000", "113241.625000", "113241.625000", "113241.625000", "113241.625000", "113241.640000", "113241.640000", "113241.640000", "113241.640000", "113241.640000", "113241.656000", "113241.656000", "113241.656000", "113241.656000", "113241.656000", "113241.656000", "113241.656000", "113241.656000", "113241.671000", "113241.671000", "113241.671000", "113241.671000", "113241.671000", "113241.671000", "113241.671000", "113301.625000", "113301.625000", "113301.625000", "113301.625000", "113301.625000", "113301.625000", "113301.640000", "113301.640000", "113301.640000", "113301.640000", "113301.640000", "113301.640000", "113301.640000", "113301.656000", "113301.656000", "113301.656000", "113301.656000", "113301.656000", "113301.656000", "113301.656000", "113301.656000", "113301.671000", "113301.671000", "113301.671000", "113301.671000", "113301.671000", "113321.625000", "113321.625000", "113321.625000", "113321.625000", "113321.625000", "113321.625000", "113321.640000", "113321.640000", "113321.640000", "113321.640000", "113321.640000", "113321.640000", "113321.656000", "113321.656000", "113321.656000", "113321.656000", "113321.656000", "113321.656000", "113321.671000", "113321.671000", "113321.671000", "113321.671000", "113321.671000", "113321.671000", "113321.671000", "113341.625000", "113341.625000", "113341.625000", "113341.625000", "113341.625000", "113341.625000", "113341.640000", "113341.640000", "113341.640000", "113341.640000", "113341.640000", "113341.640000", "113341.640000", "113341.656000", "113341.656000", "113341.656000", "113341.656000", "113341.656000", "113341.656000", "113341.656000", "113341.656000", "113341.671000", "113341.671000", "113341.671000", "113341.671000", "113341.671000", "113401.625000", "113401.625000", "113401.625000", "113401.625000", "113401.625000", "113401.625000", "113401.640000", "113401.640000", "113401.640000", "113401.640000", "113401.640000", "113401.640000", "113401.640000", "113401.656000", "113401.656000", "113401.656000", "113401.656000", "113401.656000", "113401.656000", "113401.656000", "113401.671000", "113401.671000", "113401.671000", "113401.671000", "113401.671000", "113421.625000", "113421.625000", "113421.625000", "113421.625000", "113421.625000", "113421.625000", "113421.640000", "113421.640000", "113421.640000", "113421.640000", "113421.640000", "113421.640000", "113421.640000", "113421.656000", "113421.656000", "113421.656000", "113421.656000", "113421.656000", "113421.656000", "113421.656000", "113421.656000", "113421.671000", "113421.671000", "113421.671000", "113421.671000", "113421.671000", "113441.625000", "113441.625000", "113441.625000", "113441.625000", "113441.625000", "113441.625000", "113441.640000", "113441.640000", "113441.640000", "113441.640000", "113441.640000", "113441.640000", "113441.640000", "113441.656000", "113441.656000", "113441.656000", "113441.656000", "113441.656000", "113441.656000", "113441.656000", "113441.656000", "113441.671000", "113441.671000", "113441.671000", "113441.671000", "113501.625000", "113501.625000", "113501.625000", "113501.625000", "113501.625000", "113501.625000", "113501.640000", "113501.640000", "113501.640000", "113501.640000", "113501.640000", "113501.640000", "113501.640000", "113501.656000", "113501.656000", "113501.656000", "113501.656000", "113501.656000", "113501.656000", "113501.656000", "113501.671000", "113501.671000", "113501.671000", "113501.671000", "113501.671000", "113501.671000", "113521.625000", "113521.625000", "113521.625000", "113521.625000", "113521.625000", "113521.640000", "113521.640000", "113521.640000", "113521.640000", "113521.640000", "113521.640000", "113521.640000", "113521.640000", "113521.656000", "113521.656000", "113521.656000", "113521.656000", "113521.656000", "113521.656000", "113521.656000", "113521.671000", "113521.671000", "113521.671000", "113521.671000", "113521.671000", "113541.625000", "113541.625000", "113541.625000", "113541.625000", "113541.625000", "113541.625000", "113541.640000", "113541.640000", "113541.640000", "113541.640000", "113541.640000", "113541.640000", "113541.640000", "113541.656000", "113541.656000", "113541.656000", "113541.656000", "113541.656000", "113541.656000", "113541.656000", "113541.656000", "113541.671000", "113541.671000", "113541.671000", "113541.671000", "113541.671000", "113601.625000", "113601.625000", "113601.625000", "113601.625000", "113601.625000", "113601.625000", "113601.640000", "113601.640000", "113601.640000", "113601.640000", "113601.640000", "113601.640000", "113601.640000", "113601.656000", "113601.656000", "113601.656000", "113601.656000", "113601.656000", "113601.656000", "113601.656000", "113601.671000", "113601.671000", "113601.671000", "113601.671000", "113601.671000", "113604.421000", "113604.421000", "113604.421000", "113604.421000"],
