{
  "AcquisitionMatrixPE": 104,
  "AcquisitionNumber": 1,
  "AcquisitionTime": "10:57:33.662500",
  "BandwidthPerPixelPhaseEncode": 13.935,
  "BaseResolution": 104,
  "CoilString": "C:HEA;HEP",
  "ConversionSoftware": "dcm2niix",
  "ConversionSoftwareVersion": "v1.0.20210317",
  "DerivedVendorReportedEchoSpacing": 0.000690017,
  "DeviceSerialNumber": "35450",
  "DwellTime": 2.5e-06,
  "EchoTime": 0.0348,
  "EffectiveEchoSpacing": 0.000690017,
  "FlipAngle": 55,
  "ImageComments": "Unaliased MB8/PE3 (remote)",
  "ImageOrientationPatientDICOM": [0.999616, 0.00399827, 0.0274065, -1.3752e-08, 0.989525, -0.144359],
  "ImageType": [
    "ORIGINAL",
    "PRIMARY",
    "M",
    "MB",
    "ND",
    "MOSAIC"
],
  "ImagingFrequency": 123.234,
  "InPlanePhaseEncodingDirectionDICOM": "COL",
  "InstitutionAddress": "Univeristy Ave. 197,Newark,North East,US,07102-1814",
  "InstitutionName": "RUBIC",
  "InstitutionalDepartmentName": "Department",
  "MRAcquisitionType": "2D",
  "MagneticFieldStrength": 3,
  "Manufacturer": "Siemens",
  "ManufacturersModelName": "TrioTim",
  "Modality": "MR",
  "MultibandAccelerationFactor": 8,
  "PartialFourier": 0.875,
  "PatientPosition": "HFS",
  "PercentPhaseFOV": 100,
  "PercentSampling": 100,
  "PhaseEncodingDirection": "j-",
  "PhaseEncodingSteps": 91,
  "PhaseResolution": 1,
  "PixelBandwidth": 1923,
  "ProcedureStepDescription": "Cole^Michael",
  "ProtocolName": "cmrr_mbep2d_bold_2mm_MB8_Rest",
  "PulseSequenceDetails": "%CustomerSeq%\\cmrr_mbep2d_bold",
  "ReceiveCoilName": "32Ch_Head",
  "ReconMatrixPE": 104,
  "RepetitionTime": 0.785,
  "SAR": 0.115677,
  "ScanOptions": "PFP\\FS",
  "ScanningSequence": "EP",
  "SequenceName": "epfid2d1_104",
  "SequenceVariant": "SK\\SS",
  "SeriesDescription": "cmrr_mbep2d_bold_2mm_MB8_Rest",
  "SeriesNumber": 9,
  "ShimSetting": [2128, -322, -7373, 547, 51, -542, -8, -10],
  "SliceThickness": 2,
  "SliceTiming": [0, 0.4375, 0.0875, 0.525, 0.175, 0.6125, 0.2625, 0.7, 0.35, 0, 0.4375, 0.0875, 0.525, 0.175, 0.6125, 0.2625, 0.7, 0.35, 0, 0.4375, 0.0875, 0.525, 0.175, 0.6125, 0.2625, 0.7, 0.35, 0, 0.4375, 0.0875, 0.525, 0.175, 0.6125, 0.2625, 0.7, 0.35, 0, 0.4375, 0.0875, 0.525, 0.175, 0.6125, 0.2625, 0.7, 0.35, 0, 0.4375, 0.0875, 0.525, 0.175, 0.6125, 0.2625, 0.7, 0.35, 0, 0.4375, 0.0875, 0.525, 0.175, 0.6125, 0.2625, 0.7, 0.35, 0, 0.4375, 0.0875, 0.525, 0.175, 0.6125, 0.2625, 0.7, 0.35],
  "SoftwareVersions": "syngo MR B19",
  "SpacingBetweenSlices": 2,
  "StationName": "MRC35450",
  "TaskName": "rest",
  "TotalReadoutTime": 0.0710717,
  "TxRefAmp": 334.919,
  "dcmmeta_affine": [
    [-1.9992327690124512, -2.7503990196464656e-08, 0.055393192917108536, 104.67391204833984],
    [-0.007996533997356892, 1.9790507555007935, -0.28860729932785034, -80.97930908203125],
    [0.0548129677772522, 0.288718044757843, 1.978291630744934, -121.36760711669922],
    [0.0, 0.0, 0.0, 1.0]
],
  "dcmmeta_reorient_transform": [
    [0.0, -1.0, 0.0, 103.0],
    [1.0, 0.0, 0.0, 0.0],
    [0.0, 0.0, 1.0, 0.0],
    [0.0, 0.0, 0.0, 1.0]
],
  "dcmmeta_shape": [104, 104, 72, 1070],
  "dcmmeta_slice_dim": 2,
  "dcmmeta_version": 0.6,
  "global": {
    "const": {
      "AcquisitionMatrix": [104, 0, 0, 104],
      "AngioFlag": "N",
      "BitsAllocated": 16,
      "BitsStored": 12,
      "Columns": 936,
      "EchoNumbers": 1,
      "EchoTime": 34.8,
      "EchoTrainLength": 1,
      "FlipAngle": 55.0,
      "HighBit": 11,
      "ImageOrientationPatient": [0.99961637568332, 0.00399826719521, 0.02740648326906, -1.3751995e-08, 0.98952537758873, -0.1443590215674],
      "ImagePositionPatient": [-936.35472246978, -949.47458857954, 5.6748664966275],
      "ImageType": [
        "ORIGINAL",
        "PRIMARY",
        "M",
        "MB",
        "ND",
        "MOSAIC"
],
      "ImagedNucleus": "1H",
      "ImagingFrequency": 123.234393,
      "InPlanePhaseEncodingDirection": "COL",
      "MRAcquisitionType": "2D",
      "MagneticFieldStrength": 3.0,
      "Manufacturer": "SIEMENS",
      "ManufacturerModelName": "TrioTim",
      "Modality": "MR",
      "NumberOfAverages": 1.0,
      "NumberOfPhaseEncodingSteps": 91,
      "PercentPhaseFieldOfView": 100.0,
      "PercentSampling": 100.0,
      "PerformedProcedureStepStartTime": "100138.484000",
      "PhotometricInterpretation": "MONOCHROME2",
      "PixelBandwidth": 1923.0,
      "PixelRepresentation": 0,
      "PixelSpacing": [2.0, 2.0],
      "ProtocolName": "cmrr_mbep2d_bold_2mm_MB8_Rest",
      "RepetitionTime": 785.0,
      "Rows": 936,
      "SAR": 0.11567735843882,
      "SamplesPerPixel": 1,
      "ScanOptions": [
        "PFP",
        "FS"
],
      "ScanningSequence": "EP",
      "SequenceName": "epfid2d1_104",
      "SequenceVariant": [
        "SK",
        "SS"
],
      "SeriesDescription": "cmrr_mbep2d_bold_2mm_MB8_Rest",
      "SeriesNumber": 9,
      "SeriesTime": "105801.640000",
      "SliceLocation": -105.46553143508,
      "SliceThickness": 2.0,
      "SmallestImagePixelValue": 0,
      "SoftwareVersions": "syngo MR B19",
      "SpacingBetweenSlices": 2.000000033951,
      "SpecificCharacterSet": "ISO_IR 100",
      "StudyID": "1",
      "StudyTime": "100138.359000",
      "TransmitCoilName": "Body",
      "VariableFlipAngleFlag": "N",
      "WindowCenterWidthExplanation": "Algo1",
      "dBdt": 0.0},
    "slices": {}
  },
  "time": {
    "samples": {
      "AcquisitionNumber": [1, 2, 3, 4, 5, 6, 7, 8, 9, 10, 11, 12, 13, 14, 15, 16, 17, 18, 19, 20, 21, 22, 23, 24, 25, 26, 27, 28, 29, 30, 31, 32, 33, 34, 35, 36, 37, 38, 39, 40, 41, 42, 43, 44, 45, 46, 47, 48, 49, 50, 51, 52, 53, 54, 55, 56, 57, 58, 59, 60, 61, 62, 63, 64, 65, 66, 67, 68, 69, 70, 71, 72, 73, 74, 75, 76, 77, 78, 79, 80, 81, 82, 83, 84, 85, 86, 87, 88, 89, 90, 91, 92, 93, 94, 95, 96, 97, 98, 99, 100, 101, 102, 103, 104, 105, 106, 107, 108, 109, 110, 111, 112, 113, 114, 115, 116, 117, 118, 119, 120, 121, 122, 123, 124, 125, 126, 127, 128, 129, 130, 131, 132, 133, 134, 135, 136, 137, 138, 139, 140, 141, 142, 143, 144, 145, 146, 147, 148, 149, 150, 151, 152, 153, 154, 155, 156, 157, 158, 159, 160, 161, 162, 163, 164, 165, 166, 167, 168, 169, 170, 171, 172, 173, 174, 175, 176, 177, 178, 179, 180, 181, 182, 183, 184, 185, 186, 187, 188, 189, 190, 191, 192, 193, 194, 195, 196, 197, 198, 199, 200, 201, 202, 203, 204, 205, 206, 207, 208, 209, 210, 211, 212, 213, 214, 215, 216, 217, 218, 219, 220, 221, 222, 223, 224, 225, 226, 227, 228, 229, 230, 231, 232, 233, 234, 235, 236, 237, 238, 239, 240, 241, 242, 243, 244, 245, 246, 247, 248, 249, 250, 251, 252, 253, 254, 255, 256, 257, 258, 259, 260, 261, 262, 263, 264, 265, 266, 267, 268, 269, 270, 271, 272, 273, 274, 275, 276, 277, 278, 279, 280, 281, 282, 283, 284, 285, 286, 287, 288, 289, 290, 291, 292, 293, 294, 295, 296, 297, 298, 299, 300, 301, 302, 303, 304, 305, 306, 307, 308, 309, 310, 311, 312, 313, 314, 315, 316, 317, 318, 319, 320, 321, 322, 323, 324, 325, 326, 327, 328, 329, 330, 331, 332, 333, 334, 335, 336, 337, 338, 339, 340, 341, 342, 343, 344, 345, 346, 347, 348, 349, 350, 351, 352, 353, 354, 355, 356, 357, 358, 359, 360, 361, 362, 363, 364, 365, 366, 367, 368, 369, 370, 371, 372, 373, 374, 375, 376, 377, 378, 379, 380, 381, 382, 383, 384, 385, 386, 387, 388, 389, 390, 391, 392, 393, 394, 395, 396, 397, 398, 399, 400, 401, 402, 403, 404, 405, 406, 407, 408, 409, 410, 411, 412, 413, 414, 415, 416, 417, 418, 419, 420, 421, 422, 423, 424, 425, 426, 427, 428, 429, 430, 431, 432, 433, 434, 435, 436, 437, 438, 439, 440, 441, 442, 443, 444, 445, 446, 447, 448, 449, 450, 451, 452, 453, 454, 455, 456, 457, 458, 459, 460, 461, 462, 463, 464, 465, 466, 467, 468, 469, 470, 471, 472, 473, 474, 475, 476, 477, 478, 479, 480, 481, 482, 483, 484, 485, 486, 487, 488, 489, 490, 491, 492, 493, 494, 495, 496, 497, 498, 499, 500, 501, 502, 503, 504, 505, 506, 507, 508, 509, 510, 511, 512, 513, 514, 515, 516, 517, 518, 519, 520, 521, 522, 523, 524, 525, 526, 527, 528, 529, 530, 531, 532, 533, 534, 535, 536, 537, 538, 539, 540, 541, 542, 543, 544, 545, 546, 547, 548, 549, 550, 551, 552, 553, 554, 555, 556, 557, 558, 559, 560, 561, 562, 563, 564, 565, 566, 567, 568, 569, 570, 571, 572, 573, 574, 575, 576, 577, 578, 579, 580, 581, 582, 583, 584, 585, 586, 587, 588, 589, 590, 591, 592, 593, 594, 595, 596, 597, 598, 599, 600, 601, 602, 603, 604, 605, 606, 607, 608, 609, 610, 611, 612, 613, 614, 615, 616, 617, 618, 619, 620, 621, 622, 623, 624, 625, 626, 627, 628, 629, 630, 631, 632, 633, 634, 635, 636, 637, 638, 639, 640, 641, 642, 643, 644, 645, 646, 647, 648, 649, 650, 651, 652, 653, 654, 655, 656, 657, 658, 659, 660, 661, 662, 663, 664, 665, 666, 667, 668, 669, 670, 671, 672, 673, 674, 675, 676, 677, 678, 679, 680, 681, 682, 683, 684, 685, 686, 687, 688, 689, 690, 691, 692, 693, 694, 695, 696, 697, 698, 699, 700, 701, 702, 703, 704, 705, 706, 707, 708, 709, 710, 711, 712, 713, 714, 715, 716, 717, 718, 719, 720, 721, 722, 723, 724, 725, 726, 727, 728, 729, 730, 731, 732, 733, 734, 735, 736, 737, 738, 739, 740, 741, 742, 743, 744, 745, 746, 747, 748, 749, 750, 751, 752, 753, 754, 755, 756, 757, 758, 759, 760, 761, 762, 763, 764, 765, 766, 767, 768, 769, 770, 771, 772, 773, 774, 775, 776, 777, 778, 779, 780, 781, 782, 783, 784, 785, 786, 787, 788, 789, 790, 791, 792, 793, 794, 795, 796, 797, 798, 799, 800, 801, 802, 803, 804, 805, 806, 807, 808, 809, 810, 811, 812, 813, 814, 815, 816, 817, 818, 819, 820, 821, 822, 823, 824, 825, 826, 827, 828, 829, 830, 831, 832, 833, 834, 835, 836, 837, 838, 839, 840, 841, 842, 843, 844, 845, 846, 847, 848, 849, 850, 851, 852, 853, 854, 855, 856, 857, 858, 859, 860, 861, 862, 863, 864, 865, 866, 867, 868, 869, 870, 871, 872, 873, 874, 875, 876, 877, 878, 879, 880, 881, 882, 883, 884, 885, 886, 887, 888, 889, 890, 891, 892, 893, 894, 895, 896, 897, 898, 899, 900, 901, 902, 903, 904, 905, 906, 907, 908, 909, 910, 911, 912, 913, 914, 915, 916, 917, 918, 919, 920, 921, 922, 923, 924, 925, 926, 927, 928, 929, 930, 931, 932, 933, 934, 935, 936, 937, 938, 939, 940, 941, 942, 943, 944, 945, 946, 947, 948, 949, 950, 951, 952, 953, 954, 955, 956, 957, 958, 959, 960, 961, 962, 963, 964, 965, 966, 967, 968, 969, 970, 971, 972, 973, 974, 975, 976, 977, 978, 979, 980, 981, 982, 983, 984, 985, 986, 987, 988, 989, 990, 991, 992, 993, 994, 995, 996, 997, 998, 999, 1000, 1001, 1002, 1003, 1004, 1005, 1006, 1007, 1008, 1009, 1010, 1011, 1012, 1013, 1014, 1015, 1016, 1017, 1018, 1019, 1020, 1021, 1022, 1023, 1024, 1025, 1026, 1027, 1028, 1029, 1030, 1031, 1032, 1033, 1034, 1035, 1036, 1037, 1038, 1039, 1040, 1041, 1042, 1043, 1044, 1045, 1046, 1047, 1048, 1049, 1050, 1051, 1052, 1053, 1054, 1055, 1056, 1057, 1058, 1059, 1060, 1061, 1062, 1063, 1064, 1065, 1066, 1067, 1068, 1069, 1070],
      "AcquisitionTime": ["105733.662500", "105734.452500", "105735.240000", "105736.027500", "105736.815000", "105737.605000", "105738.392500", "105739.180000", "105739.967500", "105740.757500", "105741.545000", "105742.332500", "105743.122500", "105743.910000", "105744.697500", "105745.485000", "105746.275000", "105747.062500", "105747.850000", "105748.637500", "105749.427500", "105750.215000", "105751.002500", "105751.790000", "105752.580000", "105753.367500", "105754.155000", "105754.942500", "105755.732500", "105756.520000", "105757.307500", "105758.095000", "105758.885000", "105759.672500", "105800.460000", "105801.250000", "105802.037500", "105802.825000", "105803.612500", "105804.402500", "105805.190000", "105805.977500", "105806.765000", "105807.555000", "105808.342500", "105809.130000", "105809.917500", "105810.707500", "105811.495000", "105812.282500", "105813.070000", "105813.860000", "105814.647500", "105815.435000", "105816.222500", "105817.012500", "105817.800000", "105818.587500", "105819.377500", "105820.165000", "105820.952500", "105821.740000", "105822.530000", "105823.317500", "105824.105000", "105824.892500", "105825.682500", "105826.470000", "105827.257500", "105828.045000", "105828.835000", "105829.622500", "105830.410000", "105831.197500", "105831.987500", "105832.775000", "105833.562500", "105834.352500", "105835.140000", "105835.927500", "105836.715000", "105837.505000", "105838.292500", "105839.080000", "105839.867500", "105840.657500", "105841.445000", "105842.232500", "105843.020000", "105843.810000", "105844.597500", "105845.385000", "105846.172500", "105846.962500", "105847.750000", "105848.537500", "105849.325000", "105850.115000", "105850.902500", "105851.690000", "105852.480000", "105853.267500", "105854.055000", "105854.842500", "105855.632500", "105856.420000", "105857.207500", "105857.995000", "105858.785000", "105859.572500", "105900.360000", "105901.147500", "105901.937500", "105902.725000", "105903.512500", "105904.300000", "105905.090000", "105905.877500", "105906.665000", "105907.452500", "105908.242500", "105909.030000", "105909.817500", "105910.607500", "105911.395000", "105912.182500", "105912.970000", "105913.760000", "105914.547500", "105915.335000", "105916.122500", "105916.912500", "105917.700000", "105918.487500", "105919.275000", "105920.065000", "105920.852500", "105921.640000", "105922.427500", "105923.217500", "105924.005000", "105924.792500", "105925.580000", "105926.370000", "105927.157500", "105927.945000", "105928.735000", "105929.522500", "105930.310000", "105931.097500", "105931.887500", "105932.675000", "105933.462500", "105934.250000", "105935.040000", "105935.827500", "105936.615000", "105937.402500", "105938.192500", "105938.980000", "105939.767500", "105940.555000", "105941.345000", "105942.132500", "105942.920000", "105943.707500", "105944.497500", "105945.285000", "105946.072500", "105946.862500", "105947.650000", "105948.437500", "105949.225000", "105950.015000", "105950.802500", "105951.590000", "105952.377500", "105953.167500", "105953.955000", "105954.742500", "105955.530000", "105956.320000", "105957.107500", "105957.895000", "105958.682500", "105959.472500", "110000.260000", "110001.047500", "110001.835000", "110002.625000", "110003.412500", "110004.200000", "110004.990000", "110005.777500", "110006.565000", "110007.352500", "110008.142500", "110008.930000", "110009.717500", "110010.505000", "110011.295000", "110012.082500", "110012.870000", "110013.657500", "110014.447500", "110015.235000", "110016.022500", "110016.810000", "110017.600000", "110018.387500", "110019.175000", "110019.962500", "110020.752500", "110021.540000", "110022.327500", "110023.117500", "110023.905000", "110024.692500", "110025.480000", "110026.270000", "110027.057500", "110027.845000", "110028.632500", "110029.422500", "110030.210000", "110030.997500", "110031.785000", "110032.575000", "110033.362500", "110034.150000", "110034.937500", "110035.727500", "110036.515000", "110037.302500", "110038.090000", "110038.880000", "110039.667500", "110040.455000", "110041.245000", "110042.032500", "110042.820000", "110043.607500", "110044.397500", "110045.185000", "110045.972500", "110046.760000", "110047.550000", "110048.337500", "110049.125000", "110049.912500", "110050.702500", "110051.490000", "110052.277500", "110053.065000", "110053.855000", "110054.642500", "110055.430000", "110056.217500", "110057.007500", "110057.795000", "110058.582500", "110059.372500", "110100.160000", "110100.947500", "110101.735000", "110102.525000", "110103.312500", "110104.100000", "110104.887500", "110105.677500", "110106.465000", "110107.252500", "110108.040000", "110108.830000", "110109.617500", "110110.405000", "110111.192500", "110111.982500", "110112.770000", "110113.557500", "110114.345000", "110115.135000", "110115.922500", "110116.710000", "110117.500000", "110118.287500", "110119.075000", "110119.862500", "110120.652500", "110121.440000", "110122.227500", "110123.015000", "110123.805000", "110124.592500", "110125.380000", "110126.167500", "110126.957500", "110127.745000", "110128.532500", "110129.320000", "110130.110000", "110130.897500", "110131.685000", "110132.472500", "110133.262500", "110134.050000", "110134.837500", "110135.627500", "110136.415000", "110137.202500", "110137.990000", "110138.780000", "110139.567500", "110140.355000", "110141.142500", "110141.932500", "110142.720000", "110143.507500", "110144.295000", "110145.085000", "110145.872500", "110146.660000", "110147.447500", "110148.237500", "110149.025000", "110149.812500", "110150.602500", "110151.390000", "110152.177500", "110152.965000", "110153.755000", "110154.542500", "110155.330000", "110156.117500", "110156.907500", "110157.695000", "110158.482500", "110159.270000", "110200.060000", "110200.847500", "110201.635000", "110202.422500", "110203.212500", "110204.000000", "110204.787500", "110205.575000", "110206.365000", "110207.152500", "110207.940000", "110208.730000", "110209.517500", "110210.305000", "110211.092500", "110211.882500", "110212.670000", "110213.457500", "110214.245000", "110215.035000", "110215.822500", "110216.610000", "110217.397500", "110218.187500", "110218.975000", "110219.762500", "110220.550000", "110221.340000", "110222.127500", "110222.915000", "110223.702500", "110224.492500", "110225.280000", "110226.067500", "110226.857500", "110227.645000", "110228.432500", "110229.220000", "110230.010000", "110230.797500", "110231.585000", "110232.372500", "110233.162500", "110233.950000", "110234.737500", "110235.525000", "110236.315000", "110237.102500", "110237.890000", "110238.677500", "110239.467500", "110240.255000", "110241.042500", "110241.830000", "110242.620000", "110243.407500", "110244.195000", "110244.985000", "110245.772500", "110246.560000", "110247.347500", "110248.137500", "110248.925000", "110249.712500", "110250.500000", "110251.290000", "110252.077500", "110252.865000", "110253.652500", "110254.442500", "110255.230000", "110256.017500", "110256.805000", "110257.595000", "110258.382500", "110259.170000", "110259.957500", "110300.747500", "110301.535000", "110302.322500", "110303.112500", "110303.900000", "110304.687500", "110305.475000", "110306.265000", "110307.052500", "110307.840000", "110308.627500", "110309.417500", "110310.205000", "110310.992500", "110311.780000", "110312.570000", "110313.357500", "110314.145000", "110314.932500", "110315.722500", "110316.510000", "110317.297500", "110318.085000", "110318.875000", "110319.662500", "110320.450000", "110321.240000", "110322.027500", "110322.815000", "110323.602500", "110324.392500", "110325.180000", "110325.967500", "110326.755000", "110327.545000", "110328.332500", "110329.120000", "110329.907500", "110330.697500", "110331.485000", "110332.272500", "110333.060000", "110333.850000", "110334.637500", "110335.425000", "110336.212500", "110337.002500", "110337.790000", "110338.577500", "110339.367500", "110340.155000", "110340.942500", "110341.730000", "110342.520000", "110343.307500", "110344.095000", "110344.882500", "110345.672500", "110346.460000", "110347.247500", "110348.035000", "110348.825000", "110349.612500", "110350.400000", "110351.187500", "110351.977500", "110352.765000", "110353.552500", "110354.340000", "110355.130000", "110355.917500", "110356.705000", "110357.495000", "110358.282500", "110359.070000", "110359.857500", "110400.647500", "110401.435000", "110402.222500", "110403.010000", "110403.800000", "110404.587500", "110405.375000", "110406.162500", "110406.952500", "110407.740000", "110408.527500", "110409.315000", "110410.105000", "110410.892500", "110411.680000", "110412.467500", "110413.257500", "110414.045000", "110414.832500", "110415.622500", "110416.410000", "110417.197500", "110417.985000", "110418.775000", "110419.562500", "110420.350000", "110421.137500", "110421.927500", "110422.715000", "110423.502500", "110424.290000", "110425.080000", "110425.867500", "110426.655000", "110427.442500", "110428.232500", "110429.020000", "110429.807500", "110430.595000", "110431.385000", "110432.172500", "110432.960000", "110433.750000", "110434.537500", "110435.325000", "110436.112500", "110436.902500", "110437.690000", "110438.477500", "110439.265000", "110440.055000", "110440.842500", "110441.630000", "110442.417500", "110443.207500", "110443.995000", "110444.782500", "110445.570000", "110446.360000", "110447.147500", "110447.935000", "110448.722500", "110449.512500", "110450.300000", "110451.087500", "110451.877500", "110452.665000", "110453.452500", "110454.240000", "110455.030000", "110455.817500", "110456.605000", "110457.392500", "110458.182500", "110458.970000", "110459.757500", "110500.545000", "110501.335000", "110502.122500", "110502.910000", "110503.697500", "110504.487500", "110505.275000", "110506.062500", "110506.852500", "110507.640000", "110508.427500", "110509.215000", "110510.005000", "110510.792500", "110511.580000", "110512.367500", "110513.157500", "110513.945000", "110514.732500", "110515.520000", "110516.310000", "110517.097500", "110517.885000", "110518.672500", "110519.462500", "110520.250000", "110521.037500", "110521.825000", "110522.615000", "110523.402500", "110524.190000", "110524.980000", "110525.767500", "110526.555000", "110527.342500", "110528.132500", "110528.920000", "110529.707500", "110530.495000", "110531.285000", "110532.072500", "110532.860000", "110533.647500", "110534.437500", "110535.225000", "110536.012500", "110536.800000", "110537.590000", "110538.377500", "110539.165000", "110539.952500", "110540.742500", "110541.530000", "110542.317500", "110543.107500", "110543.895000", "110544.682500", "110545.470000", "110546.260000", "110547.047500", "110547.835000", "110548.622500", "110549.412500", "110550.200000", "110550.987500", "110551.775000", "110552.565000", "110553.352500", "110554.140000", "110554.927500", "110555.717500", "110556.505000", "110557.292500", "110558.080000", "110558.870000", "110559.657500", "110600.445000", "110601.235000", "110602.022500", "110602.810000", "110603.597500", "110604.387500", "110605.175000", "110605.962500", "110606.750000", "110607.540000", "110608.327500", "110609.115000", "110609.902500", "110610.692500", "110611.480000", "110612.267500", "110613.055000", "110613.845000", "110614.632500", "110615.420000", "110616.207500", "110616.997500", "110617.785000", "110618.572500", "110619.362500", "110620.150000", "110620.937500", "110621.725000", "110622.515000", "110623.302500", "110624.090000", "110624.877500", "110625.667500", "110626.455000", "110627.242500", "110628.030000", "110628.820000", "110629.607500", "110630.395000", "110631.182500", "110631.972500", "110632.760000", "110633.547500", "110634.335000", "110635.125000", "110635.912500", "110636.700000", "110637.490000", "110638.277500", "110639.065000", "110639.852500", "110640.642500", "110641.430000", "110642.217500", "110643.005000", "110643.795000", "110644.582500", "110645.370000", "110646.157500", "110646.947500", "110647.735000", "110648.522500", "110649.310000", "110650.100000", "110650.887500", "110651.675000", "110652.462500", "110653.252500", "110654.040000", "110654.827500", "110655.617500", "110656.405000", "110657.192500", "110657.980000", "110658.770000", "110659.557500", "110700.345000", "110701.132500", "110701.922500", "110702.710000", "110703.497500", "110704.285000", "110705.075000", "110705.862500", "110706.650000", "110707.437500", "110708.227500", "110709.015000", "110709.802500", "110710.590000", "110711.380000", "110712.167500", "110712.955000", "110713.745000", "110714.532500", "110715.320000", "110716.107500", "110716.897500", "110717.685000", "110718.472500", "110719.260000", "110720.050000", "110720.837500", "110721.625000", "110722.412500", "110723.202500", "110723.990000", "110724.777500", "110725.565000", "110726.355000", "110727.142500", "110727.930000", "110728.717500", "110729.507500", "110730.295000", "110731.082500", "110731.872500", "110732.660000", "110733.447500", "110734.235000", "110735.025000", "110735.812500", "110736.600000", "110737.387500", "110738.177500", "110738.965000", "110739.752500", "110740.540000", "110741.330000", "110742.117500", "110742.905000", "110743.692500", "110744.482500", "110745.270000", "110746.057500", "110746.845000", "110747.635000", "110748.422500", "110749.210000", "110750.000000", "110750.787500", "110751.575000", "110752.362500", "110753.152500", "110753.940000", "110754.727500", "110755.515000", "110756.305000", "110757.092500", "110757.880000", "110758.667500", "110759.457500", "110800.245000", "110801.032500", "110801.820000", "110802.610000", "110803.397500", "110804.185000", "110804.972500", "110805.762500", "110806.550000", "110807.337500", "110808.127500", "110808.915000", "110809.702500", "110810.490000", "110811.280000", "110812.067500", "110812.855000", "110813.642500", "110814.432500", "110815.220000", "110816.007500", "110816.795000", "110817.585000", "110818.372500", "110819.160000", "110819.947500", "110820.737500", "110821.525000", "110822.312500", "110823.102500", "110823.890000", "110824.677500", "110825.465000", "110826.255000", "110827.042500", "110827.830000", "110828.617500", "110829.407500", "110830.195000", "110830.982500", "110831.770000", "110832.560000", "110833.347500", "110834.135000", "110834.922500", "110835.712500", "110836.500000", "110837.287500", "110838.075000", "110838.865000", "110839.652500", "110840.440000", "110841.230000", "110842.017500", "110842.805000", "110843.592500", "110844.382500", "110845.170000", "110845.957500", "110846.745000", "110847.535000", "110848.322500", "110849.110000", "110849.897500", "110850.687500", "110851.475000", "110852.262500", "110853.050000", "110853.840000", "110854.627500", "110855.415000", "110856.202500", "110856.992500", "110857.780000", "110858.567500", "110859.357500", "110900.145000", "110900.932500", "110901.720000", "110902.510000", "110903.297500", "110904.085000", "110904.872500", "110905.662500", "110906.450000", "110907.237500", "110908.025000", "110908.815000", "110909.602500", "110910.390000", "110911.177500", "110911.967500", "110912.755000", "110913.542500", "110914.330000", "110915.120000", "110915.907500", "110916.695000", "110917.485000", "110918.272500", "110919.060000", "110919.847500", "110920.637500", "110921.425000", "110922.212500", "110923.000000", "110923.790000", "110924.577500", "110925.365000", "110926.152500", "110926.942500", "110927.730000", "110928.517500", "110929.305000", "110930.095000", "110930.882500", "110931.670000", "110932.457500", "110933.247500", "110934.035000", "110934.822500", "110935.612500", "110936.400000", "110937.187500", "110937.975000", "110938.765000", "110939.552500", "110940.340000", "110941.127500", "110941.917500", "110942.705000", "110943.492500", "110944.280000", "110945.070000", "110945.857500", "110946.645000", "110947.432500", "110948.222500", "110949.010000", "110949.797500", "110950.585000", "110951.375000", "110952.162500", "110952.950000", "110953.740000", "110954.527500", "110955.315000", "110956.102500", "110956.892500", "110957.680000", "110958.467500", "110959.255000", "111000.045000", "111000.832500", "111001.620000", "111002.407500", "111003.197500", "111003.985000", "111004.772500", "111005.560000", "111006.350000", "111007.137500", "111007.925000", "111008.712500", "111009.502500", "111010.290000", "111011.077500", "111011.867500", "111012.655000", "111013.442500", "111014.230000", "111015.020000", "111015.807500", "111016.595000", "111017.382500", "111018.172500", "111018.960000", "111019.747500", "111020.535000", "111021.325000", "111022.112500", "111022.900000", "111023.687500", "111024.477500", "111025.265000", "111026.052500", "111026.840000", "111027.630000", "111028.417500", "111029.205000", "111029.995000", "111030.782500", "111031.570000", "111032.357500", "111033.147500", "111033.935000", "111034.722500", "111035.510000", "111036.300000", "111037.087500", "111037.875000", "111038.662500", "111039.452500", "111040.240000", "111041.027500", "111041.815000", "111042.605000", "111043.392500", "111044.180000", "111044.967500", "111045.757500", "111046.545000", "111047.332500", "111048.122500", "111048.910000", "111049.697500", "111050.485000", "111051.275000", "111052.062500", "111052.850000", "111053.637500", "111054.427500", "111055.215000", "111056.002500", "111056.790000", "111057.580000", "111058.367500", "111059.155000", "111059.942500", "111100.732500", "111101.520000", "111102.307500", "111103.095000", "111103.885000", "111104.672500", "111105.460000", "111106.250000", "111107.037500", "111107.825000", "111108.612500", "111109.402500", "111110.190000", "111110.977500", "111111.765000", "111112.555000", "111113.342500", "111114.130000", "111114.917500", "111115.707500", "111116.495000", "111117.282500", "111118.070000", "111118.860000", "111119.647500", "111120.435000", "111121.222500", "111122.012500", "111122.800000", "111123.587500", "111124.377500", "111125.165000", "111125.952500", "111126.740000", "111127.530000", "111128.317500", "111129.105000", "111129.892500", "111130.682500", "111131.470000", "111132.257500", "111133.045000", "111133.835000", "111134.622500", "111135.410000", "111136.197500"],
