{
  "AcquisitionMatrixPE": 104,
  "AcquisitionNumber": 1,
  "AcquisitionTime": "16:20:45.690000",
  "BandwidthPerPixelPhaseEncode": 13.935,
  "BaseResolution": 104,
  "CoilString": "C:HEA;HEP",
  "ConversionSoftware": "dcm2niix",
  "ConversionSoftwareVersion": "v1.0.20210317",
  "DerivedVendorReportedEchoSpacing": 0.000690017,
  "DeviceSerialNumber": "35450",
  "DwellTime": 2.5e-06,
  "EchoTime": 0.0348,
  "EffectiveEchoSpacing": 0.000690017,
  "FlipAngle": 55,
  "ImageComments": "Unaliased MB8/PE3",
  "ImageOrientationPatientDICOM": [0.999926, 0.000744659, 0.0121747, 3.27946e-08, 0.998135, -0.061053],
  "ImageType": [
    "ORIGINAL",
    "PRIMARY",
    "M",
    "MB",
    "ND",
    "MOSAIC"
],
  "ImagingFrequency": 123.235,
  "InPlanePhaseEncodingDirectionDICOM": "COL",
  "InstitutionAddress": "Univeristy Ave. 197,Newark,North East,US,07102-1814",
  "InstitutionName": "RUBIC",
  "InstitutionalDepartmentName": "Department",
  "MRAcquisitionType": "2D",
  "MagneticFieldStrength": 3,
  "Manufacturer": "Siemens",
  "ManufacturersModelName": "TrioTim",
  "Modality": "MR",
  "MultibandAccelerationFactor": 8,
  "PartialFourier": 0.875,
  "PatientPosition": "HFS",
  "PercentPhaseFOV": 100,
  "PercentSampling": 100,
  "PhaseEncodingDirection": "j-",
  "PhaseEncodingSteps": 91,
  "PhaseResolution": 1,
  "PixelBandwidth": 1923,
  "ProcedureStepDescription": "Cole^Michael",
  "ProtocolName": "cmrr_mbep2d_bold_2mm_MB8_Task_8x",
  "PulseSequenceDetails": "%CustomerSeq%\\cmrr_mbep2d_bold",
  "ReceiveCoilName": "32Ch_Head",
  "ReconMatrixPE": 104,
  "RepetitionTime": 0.785,
  "SAR": 0.122688,
  "ScanOptions": "PFP\\FS",
  "ScanningSequence": "EP",
  "SequenceName": "epfid2d1_104",
  "SequenceVariant": "SK\\SS",
  "SeriesDescription": "cmrr_mbep2d_bold_2mm_MB8_Task_8x",
  "SeriesNumber": 21,
  "ShimSetting": [2086, -476, -7257, 683, -102, -424, 439, 14],
  "SliceThickness": 2,
  "SliceTiming": [0, 0.4375, 0.0875, 0.525, 0.175, 0.6125, 0.2625, 0.7, 0.35, 0, 0.4375, 0.0875, 0.525, 0.175, 0.6125, 0.2625, 0.7, 0.35, 0, 0.4375, 0.0875, 0.525, 0.175, 0.6125, 0.2625, 0.7, 0.35, 0, 0.4375, 0.0875, 0.525, 0.175, 0.6125, 0.2625, 0.7, 0.35, 0, 0.4375, 0.0875, 0.525, 0.175, 0.6125, 0.2625, 0.7, 0.35, 0, 0.4375, 0.0875, 0.525, 0.175, 0.6125, 0.2625, 0.7, 0.35, 0, 0.4375, 0.0875, 0.525, 0.175, 0.6125, 0.2625, 0.7, 0.35, 0, 0.4375, 0.0875, 0.525, 0.175, 0.6125, 0.2625, 0.7, 0.35],
  "SoftwareVersions": "syngo MR B19",
  "SpacingBetweenSlices": 2,
  "StationName": "MRC35450",
  "TaskName": "cpro",
  "TotalReadoutTime": 0.0710717,
  "TxRefAmp": 316.809,
  "dcmmeta_affine": [
    [-1.9998512268066406, 6.558924781074893e-08, 0.024394936859607697, 105.92284393310547],
    [-0.0014893183251842856, 1.9962691068649292, -0.12209688872098923, -84.33844757080078],
    [0.024349432438611984, 0.12210597097873688, 1.9961204528808594, -85.85736846923828],
    [0.0, 0.0, 0.0, 1.0]
],
  "dcmmeta_reorient_transform": [
    [0.0, -1.0, 0.0, 103.0],
    [1.0, 0.0, 0.0, 0.0],
    [0.0, 0.0, 1.0, 0.0],
    [0.0, 0.0, 0.0, 1.0]
],
  "dcmmeta_shape": [104, 104, 72, 581],
  "dcmmeta_slice_dim": 2,
  "dcmmeta_version": 0.6,
  "global": {
    "const": {
      "AcquisitionMatrix": [104, 0, 0, 104],
      "AngioFlag": "N",
      "BitsAllocated": 16,
      "BitsStored": 12,
      "Columns": 936,
      "EchoNumbers": 1,
      "EchoTime": 34.8,
      "EchoTrainLength": 1,
      "FlipAngle": 55.0,
      "HighBit": 11,
      "ImageOrientationPatient": [0.99992560811753, 0.000744659134, 0.01217471615917, 3.2794625e-08, 0.99813452640914, -0.061052986741],
      "ImagePositionPatient": [-937.86098289396, -952.34474510674, -32.613731154811],
      "ImageType": [
        "ORIGINAL",
        "PRIMARY",
        "M",
        "MB",
        "ND",
        "MOSAIC"
],
      "ImagedNucleus": "1H",
      "ImagingFrequency": 123.234667,
      "InPlanePhaseEncodingDirection": "COL",
      "MRAcquisitionType": "2D",
      "MagneticFieldStrength": 3.0,
      "Manufacturer": "SIEMENS",
      "ManufacturerModelName": "TrioTim",
      "Modality": "MR",
      "NumberOfAverages": 1.0,
      "NumberOfPhaseEncodingSteps": 91,
      "PercentPhaseFieldOfView": 100.0,
      "PercentSampling": 100.0,
      "PerformedProcedureStepStartTime": "145434.671000",
      "PhotometricInterpretation": "MONOCHROME2",
      "PixelBandwidth": 1923.0,
      "PixelRepresentation": 0,
      "PixelSpacing": [2.0, 2.0],
      "ProtocolName": "cmrr_mbep2d_bold_2mm_MB8_Task_8x",
      "RepetitionTime": 785.0,
      "Rows": 936,
      "SAR": 0.12268767789709,
      "SamplesPerPixel": 1,
      "ScanOptions": [
        "PFP",
        "FS"
],
      "ScanningSequence": "EP",
      "SequenceName": "epfid2d1_104",
      "SequenceVariant": [
        "SK",
        "SS"
],
      "SeriesDescription": "cmrr_mbep2d_bold_2mm_MB8_Task_8x",
      "SeriesNumber": 21,
      "SeriesTime": "174311.359000",
      "SliceLocation": -79.25010597531,
      "SliceThickness": 2.0,
      "SmallestImagePixelValue": 0,
      "SoftwareVersions": "syngo MR B19",
      "SpacingBetweenSlices": 1.9999999603953,
      "SpecificCharacterSet": "ISO_IR 100",
      "StudyID": "1",
      "StudyTime": "145434.562000",
      "TransmitCoilName": "Body",
      "VariableFlipAngleFlag": "N",
      "WindowCenterWidthExplanation": "Algo1",
      "dBdt": 0.0},
    "slices": {}
  },
  "time": {
    "samples": {
      "AcquisitionNumber": [1, 2, 3, 4, 5, 6, 7, 8, 9, 10, 11, 12, 13, 14, 15, 16, 17, 18, 19, 20, 21, 22, 23, 24, 25, 26, 27, 28, 29, 30, 31, 32, 33, 34, 35, 36, 37, 38, 39, 40, 41, 42, 43, 44, 45, 46, 47, 48, 49, 50, 51, 52, 53, 54, 55, 56, 57, 58, 59, 60, 61, 62, 63, 64, 65, 66, 67, 68, 69, 70, 71, 72, 73, 74, 75, 76, 77, 78, 79, 80, 81, 82, 83, 84, 85, 86, 87, 88, 89, 90, 91, 92, 93, 94, 95, 96, 97, 98, 99, 100, 101, 102, 103, 104, 105, 106, 107, 108, 109, 110, 111, 112, 113, 114, 115, 116, 117, 118, 119, 120, 121, 122, 123, 124, 125, 126, 127, 128, 129, 130, 131, 132, 133, 134, 135, 136, 137, 138, 139, 140, 141, 142, 143, 144, 145, 146, 147, 148, 149, 150, 151, 152, 153, 154, 155, 156, 157, 158, 159, 160, 161, 162, 163, 164, 165, 166, 167, 168, 169, 170, 171, 172, 173, 174, 175, 176, 177, 178, 179, 180, 181, 182, 183, 184, 185, 186, 187, 188, 189, 190, 191, 192, 193, 194, 195, 196, 197, 198, 199, 200, 201, 202, 203, 204, 205, 206, 207, 208, 209, 210, 211, 212, 213, 214, 215, 216, 217, 218, 219, 220, 221, 222, 223, 224, 225, 226, 227, 228, 229, 230, 231, 232, 233, 234, 235, 236, 237, 238, 239, 240, 241, 242, 243, 244, 245, 246, 247, 248, 249, 250, 251, 252, 253, 254, 255, 256, 257, 258, 259, 260, 261, 262, 263, 264, 265, 266, 267, 268, 269, 270, 271, 272, 273, 274, 275, 276, 277, 278, 279, 280, 281, 282, 283, 284, 285, 286, 287, 288, 289, 290, 291, 292, 293, 294, 295, 296, 297, 298, 299, 300, 301, 302, 303, 304, 305, 306, 307, 308, 309, 310, 311, 312, 313, 314, 315, 316, 317, 318, 319, 320, 321, 322, 323, 324, 325, 326, 327, 328, 329, 330, 331, 332, 333, 334, 335, 336, 337, 338, 339, 340, 341, 342, 343, 344, 345, 346, 347, 348, 349, 350, 351, 352, 353, 354, 355, 356, 357, 358, 359, 360, 361, 362, 363, 364, 365, 366, 367, 368, 369, 370, 371, 372, 373, 374, 375, 376, 377, 378, 379, 380, 381, 382, 383, 384, 385, 386, 387, 388, 389, 390, 391, 392, 393, 394, 395, 396, 397, 398, 399, 400, 401, 402, 403, 404, 405, 406, 407, 408, 409, 410, 411, 412, 413, 414, 415, 416, 417, 418, 419, 420, 421, 422, 423, 424, 425, 426, 427, 428, 429, 430, 431, 432, 433, 434, 435, 436, 437, 438, 439, 440, 441, 442, 443, 444, 445, 446, 447, 448, 449, 450, 451, 452, 453, 454, 455, 456, 457, 458, 459, 460, 461, 462, 463, 464, 465, 466, 467, 468, 469, 470, 471, 472, 473, 474, 475, 476, 477, 478, 479, 480, 481, 482, 483, 484, 485, 486, 487, 488, 489, 490, 491, 492, 493, 494, 495, 496, 497, 498, 499, 500, 501, 502, 503, 504, 505, 506, 507, 508, 509, 510, 511, 512, 513, 514, 515, 516, 517, 518, 519, 520, 521, 522, 523, 524, 525, 526, 527, 528, 529, 530, 531, 532, 533, 534, 535, 536, 537, 538, 539, 540, 541, 542, 543, 544, 545, 546, 547, 548, 549, 550, 551, 552, 553, 554, 555, 556, 557, 558, 559, 560, 561, 562, 563, 564, 565, 566, 567, 568, 569, 570, 571, 572, 573, 574, 575, 576, 577, 578, 579, 580, 581],
      "AcquisitionTime": ["162045.690000", "162046.480000", "162047.267500", "162048.055000", "162048.842500", "162049.632500", "162050.420000", "162051.207500", "162051.995000", "162052.785000", "162053.572500", "162054.360000", "162055.147500", "162055.937500", "162056.725000", "162057.512500", "162058.300000", "162059.090000", "162059.877500", "162100.665000", "162101.455000", "162102.242500", "162103.030000", "162103.817500", "162104.607500", "162105.395000", "162106.182500", "162106.970000", "162107.760000", "162108.547500", "162109.335000", "162110.122500", "162110.912500", "162111.700000", "162112.487500", "162113.275000", "162114.065000", "162114.852500", "162115.640000", "162116.427500", "162117.217500", "162118.005000", "162118.792500", "162119.582500", "162120.370000", "162121.157500", "162121.945000", "162122.735000", "162123.522500", "162124.310000", "162125.097500", "162125.887500", "162126.675000", "162127.462500", "162128.250000", "162129.040000", "162129.827500", "162130.615000", "162131.402500", "162132.192500", "162132.980000", "162133.767500", "162134.555000", "162135.345000", "162136.132500", "162136.920000", "162137.710000", "162138.497500", "162139.285000", "162140.072500", "162140.862500", "162141.650000", "162142.437500", "162143.225000", "162144.015000", "162144.802500", "162145.590000", "162146.377500", "162147.167500", "162147.955000", "162148.742500", "162149.530000", "162150.320000", "162151.107500", "162151.895000", "162152.682500", "162153.472500", "162154.260000", "162155.047500", "162155.837500", "162156.625000", "162157.412500", "162158.200000", "162158.990000", "162159.777500", "162200.565000", "162201.352500", "162202.142500", "162202.930000", "162203.717500", "162204.505000", "162205.295000", "162206.082500", "162206.870000", "162207.657500", "162208.447500", "162209.235000", "162210.022500", "162210.810000", "162211.600000", "162212.387500", "162213.175000", "162213.965000", "162214.752500", "162215.540000", "162216.327500", "162217.117500", "162217.905000", "162218.692500", "162219.480000", "162220.270000", "162221.057500", "162221.845000", "162222.632500", "162223.422500", "162224.210000", "162224.997500", "162225.785000", "162226.575000", "162227.362500", "162228.150000", "162228.937500", "162229.727500", "162230.515000", "162231.302500", "162232.092500", "162232.880000", "162233.667500", "162234.455000", "162235.245000", "162236.032500", "162236.820000", "162237.607500", "162238.397500", "162239.185000", "162239.972500", "162240.760000", "162241.550000", "162242.337500", "162243.125000", "162243.912500", "162244.702500", "162245.490000", "162246.277500", "162247.065000", "162247.855000", "162248.642500", "162249.430000", "162250.220000", "162251.007500", "162251.795000", "162252.582500", "162253.372500", "162254.160000", "162254.947500", "162255.735000", "162256.525000", "162257.312500", "162258.100000", "162258.887500", "162259.677500", "162300.465000", "162301.252500", "162302.040000", "162302.830000", "162303.617500", "162304.405000", "162305.192500", "162305.982500", "162306.770000", "162307.557500", "162308.347500", "162309.135000", "162309.922500", "162310.710000", "162311.500000", "162312.287500", "162313.075000", "162313.862500", "162314.652500", "162315.440000", "162316.227500", "162317.015000", "162317.805000", "162318.592500", "162319.380000", "162320.167500", "162320.957500", "162321.745000", "162322.532500", "162323.320000", "162324.110000", "162324.897500", "162325.685000", "162326.475000", "162327.262500", "162328.050000", "162328.837500", "162329.627500", "162330.415000", "162331.202500", "162331.990000", "162332.780000", "162333.567500", "162334.355000", "162335.142500", "162335.932500", "162336.720000", "162337.507500", "162338.295000", "162339.085000", "162339.872500", "162340.660000", "162341.450000", "162342.237500", "162343.025000", "162343.812500", "162344.602500", "162345.390000", "162346.177500", "162346.965000", "162347.755000", "162348.542500", "162349.330000", "162350.117500", "162350.907500", "162351.695000", "162352.482500", "162353.270000", "162354.060000", "162354.847500", "162355.635000", "162356.422500", "162357.212500", "162358.000000", "162358.787500", "162359.577500", "162400.365000", "162401.152500", "162401.940000", "162402.730000", "162403.517500", "162404.305000", "162405.092500", "162405.882500", "162406.670000", "162407.457500", "162408.245000", "162409.035000", "162409.822500", "162410.610000", "162411.397500", "162412.187500", "162412.975000", "162413.762500", "162414.550000", "162415.340000", "162416.127500", "162416.915000", "162417.705000", "162418.492500", "162419.280000", "162420.067500", "162420.857500", "162421.645000", "162422.432500", "162423.220000", "162424.010000", "162424.797500", "162425.585000", "162426.372500", "162427.162500", "162427.950000", "162428.737500", "162429.525000", "162430.315000", "162431.102500", "162431.890000", "162432.677500", "162433.467500", "162434.255000", "162435.042500", "162435.832500", "162436.620000", "162437.407500", "162438.195000", "162438.985000", "162439.772500", "162440.560000", "162441.347500", "162442.137500", "162442.925000", "162443.712500", "162444.500000", "162445.290000", "162446.077500", "162446.865000", "162447.652500", "162448.442500", "162449.230000", "162450.017500", "162450.805000", "162451.595000", "162452.382500", "162453.170000", "162453.960000", "162454.747500", "162455.535000", "162456.322500", "162457.112500", "162457.900000", "162458.687500", "162459.475000", "162500.265000", "162501.052500", "162501.840000", "162502.627500", "162503.417500", "162504.205000", "162504.992500", "162505.780000", "162506.570000", "162507.357500", "162508.145000", "162508.932500", "162509.722500", "162510.510000", "162511.297500", "162512.087500", "162512.875000", "162513.662500", "162514.450000", "162515.240000", "162516.027500", "162516.815000", "162517.602500", "162518.392500", "162519.180000", "162519.967500", "162520.755000", "162521.545000", "162522.332500", "162523.120000", "162523.907500", "162524.697500", "162525.485000", "162526.272500", "162527.060000", "162527.850000", "162528.637500", "162529.425000", "162530.215000", "162531.002500", "162531.790000", "162532.577500", "162533.367500", "162534.155000", "162534.942500", "162535.730000", "162536.520000", "162537.307500", "162538.095000", "162538.882500", "162539.672500", "162540.460000", "162541.247500", "162542.035000", "162542.825000", "162543.612500", "162544.400000", "162545.187500", "162545.977500", "162546.765000", "162547.552500", "162548.342500", "162549.130000", "162549.917500", "162550.705000", "162551.495000", "162552.282500", "162553.070000", "162553.857500", "162554.647500", "162555.435000", "162556.222500", "162557.010000", "162557.800000", "162558.587500", "162559.375000", "162600.162500", "162600.952500", "162601.740000", "162602.527500", "162603.315000", "162604.105000", "162604.892500", "162605.680000", "162606.470000", "162607.257500", "162608.045000", "162608.832500", "162609.622500", "162610.410000", "162611.197500", "162611.985000", "162612.775000", "162613.562500", "162614.350000", "162615.137500", "162615.927500", "162616.715000", "162617.502500", "162618.290000", "162619.080000", "162619.867500", "162620.655000", "162621.442500", "162622.232500", "162623.020000", "162623.807500", "162624.597500", "162625.385000", "162626.172500", "162626.960000", "162627.750000", "162628.537500", "162629.325000", "162630.112500", "162630.902500", "162631.690000", "162632.477500", "162633.265000", "162634.055000", "162634.842500", "162635.630000", "162636.417500", "162637.207500", "162637.995000", "162638.782500", "162639.570000", "162640.360000", "162641.147500", "162641.935000", "162642.725000", "162643.512500", "162644.300000", "162645.087500", "162645.877500", "162646.665000", "162647.452500", "162648.240000", "162649.030000", "162649.817500", "162650.605000", "162651.392500", "162652.182500", "162652.970000", "162653.757500", "162654.545000", "162655.335000", "162656.122500", "162656.910000", "162657.700000", "162658.487500", "162659.275000", "162700.062500", "162700.852500", "162701.640000", "162702.427500", "162703.215000", "162704.005000", "162704.792500", "162705.580000", "162706.367500", "162707.157500", "162707.945000", "162708.732500", "162709.520000", "162710.310000", "162711.097500", "162711.885000", "162712.672500", "162713.462500", "162714.250000", "162715.037500", "162715.827500", "162716.615000", "162717.402500", "162718.190000", "162718.980000", "162719.767500", "162720.555000", "162721.342500", "162722.132500", "162722.920000", "162723.707500", "162724.495000", "162725.285000", "162726.072500", "162726.860000", "162727.647500", "162728.437500", "162729.225000", "162730.012500", "162730.800000", "162731.590000", "162732.377500", "162733.165000", "162733.955000", "162734.742500", "162735.530000", "162736.317500", "162737.107500", "162737.895000", "162738.682500", "162739.470000", "162740.260000", "162741.047500", "162741.835000", "162742.622500", "162743.412500", "162744.200000", "162744.987500", "162745.775000", "162746.565000", "162747.352500", "162748.140000", "162748.927500", "162749.717500", "162750.505000", "162751.292500", "162752.082500", "162752.870000", "162753.657500", "162754.445000", "162755.235000", "162756.022500", "162756.810000", "162757.597500", "162758.387500", "162759.175000", "162759.962500", "162800.750000", "162801.540000", "162802.327500", "162803.115000", "162803.902500", "162804.692500", "162805.480000", "162806.267500", "162807.055000", "162807.845000", "162808.632500", "162809.420000", "162810.210000", "162810.997500", "162811.785000", "162812.572500", "162813.362500", "162814.150000", "162814.937500", "162815.725000", "162816.515000", "162817.302500", "162818.090000", "162818.877500", "162819.667500", "162820.455000", "162821.242500", "162822.030000", "162822.820000"],
      "ContentTime": ["174311.359000", "174311.359000", "174311.359000", "174311.375000", "174311.375000", "174311.375000", "174311.375000", "174311.375000", "174311.375000", "174411.343000", "174411.343000", "174411.343000", "174411.343000", "174411.343000", "174411.343000", "174411.359000", "174411.359000", "174411.359000", "174411.359000", "174411.359000", "174411.359000", "174411.359000", "174411.375000", "174411.375000", "174411.375000", "174411.375000", "174411.375000", "174411.375000", "174411.375000", "174411.375000", "174411.390000", "174411.390000", "174411.390000", "174411.390000", "174411.390000", "174411.390000", "174411.406000", "174511.343000", "174511.343000", "174511.343000", "174511.343000", "174511.343000", "174511.343000", "174511.359000", "174511.359000", "174511.359000", "174511.359000", "174511.359000", "174511.359000", "174511.359000", "174511.375000", "174511.375000", "174511.375000", "174511.375000", "174511.375000", "174511.375000", "174511.375000", "174511.390000", "174511.390000", "174511.390000", "174511.390000", "174511.390000", "174511.390000", "174511.390000", "174511.406000", "174611.343000", "174611.343000", "174611.343000", "174611.343000", "174611.343000", "174611.343000", "174611.343000", "174611.359000", "174611.359000", "174611.359000", "174611.359000", "174611.359000", "174611.359000", "174611.359000", "174611.375000", "174611.375000", "174611.375000", "174611.375000", "174611.375000", "174611.375000", "174611.375000", "174611.390000", "174611.390000", "174611.390000", "174611.390000", "174611.390000", "174611.390000", "174611.390000", "174611.406000", "174711.343000", "174711.343000", "174711.343000", "174711.343000", "174711.343000", "174711.343000", "174711.359000", "174711.359000", "174711.359000", "174711.359000", "174711.359000", "174711.359000", "174711.359000", "174711.375000", "174711.375000", "174711.375000", "174711.375000", "174711.375000", "174711.390000", "174711.390000", "174711.390000", "174711.390000", "174711.390000", "174711.390000", "174711.390000", "174711.406000", "174711.406000", "174711.406000", "174811.343000", "174811.343000", "174811.343000", "174811.343000", "174811.343000", "174811.343000", "174811.359000", "174811.359000", "174811.359000", "174811.359000", "174811.359000", "174811.359000", "174811.359000", "174811.375000", "174811.375000", "174811.375000", "174811.375000", "174811.375000", "174811.390000", "174811.390000", "174811.390000", "174811.390000", "174811.390000", "174811.390000", "174811.406000", "174811.406000", "174811.406000", "174811.406000", "174911.343000", "174911.343000", "174911.343000", "174911.343000", "174911.343000", "174911.343000", "174911.359000", "174911.359000", "174911.359000", "174911.359000", "174911.359000", "174911.359000", "174911.359000", "174911.375000", "174911.375000", "174911.375000", "174911.375000", "174911.375000", "174911.390000", "174911.390000", "174911.390000", "174911.390000", "174911.390000", "174911.390000", "174911.390000", "174911.406000", "174911.406000", "174911.406000", "174931.343000", "174931.343000", "174931.343000", "174931.343000", "174931.343000", "174931.343000", "174931.343000", "174931.359000", "174931.359000", "175031.343000", "175031.343000", "175031.343000", "175031.343000", "175031.343000", "175031.343000", "175031.343000", "175031.359000", "175031.359000", "175031.359000", "175031.359000", "175031.359000", "175031.359000", "175031.375000", "175031.375000", "175031.375000", "175031.375000", "175031.375000", "175031.375000", "175031.375000", "175031.390000", "175031.390000", "175031.390000", "175031.390000", "175031.390000", "175031.390000", "175031.390000", "175031.406000", "175031.406000", "175131.343000", "175131.343000", "175131.343000", "175131.343000", "175131.343000", "175131.343000", "175131.359000", "175131.359000", "175131.359000", "175131.359000", "175131.359000", "175131.359000", "175131.359000", "175131.375000", "175131.375000", "175131.375000", "175131.375000", "175131.375000", "175131.375000", "175131.375000", "175131.390000", "175131.390000", "175131.390000", "175131.390000", "175131.390000", "175131.406000", "175131.406000", "175131.406000", "175231.343000", "175231.343000", "175231.343000", "175231.343000", "175231.343000", "175231.343000", "175231.343000", "175231.359000", "175231.359000", "175231.359000", "175231.359000", "175231.359000", "175231.359000", "175231.359000", "175231.375000", "175231.375000", "175231.375000", "175231.375000", "175231.375000", "175231.375000", "175231.390000", "175231.390000", "175231.390000", "175231.390000", "175231.390000", "175231.390000", "175231.390000", "175231.406000", "175331.343000", "175331.343000", "175331.343000", "175331.343000", "175331.343000", "175331.343000", "175331.359000", "175331.359000", "175331.359000", "175331.359000", "175331.359000", "175331.359000", "175331.359000", "175331.375000", "175331.375000", "175331.375000", "175331.375000", "175331.375000", "175331.375000", "175331.390000", "175331.390000", "175331.390000", "175331.390000", "175331.390000", "175331.406000", "175331.406000", "175331.406000", "175331.406000", "175431.343000", "175431.343000", "175431.343000", "175431.343000", "175431.343000", "175431.343000", "175431.359000", "175431.359000", "175431.359000", "175431.359000", "175431.359000", "175431.359000", "175431.359000", "175431.375000", "175431.375000", "175431.375000", "175431.375000", "175431.375000", "175431.375000", "175431.375000", "175431.390000", "175431.390000", "175431.390000", "175431.390000", "175431.390000", "175431.390000", "175431.390000", "175431.406000", "175431.406000", "175531.343000", "175531.343000", "175531.343000", "175531.343000", "175531.343000", "175531.343000", "175531.359000", "175531.359000", "175531.359000", "175531.359000", "175531.359000", "175531.359000", "175531.359000", "175531.375000", "175531.375000", "175531.375000", "175531.375000", "175531.375000", "175531.375000", "175531.375000", "175531.390000", "175531.390000", "175531.390000", "175531.390000", "175531.390000", "175531.390000", "175531.390000", "175531.406000", "175631.343000", "175631.343000", "175631.343000", "175631.343000", "175631.343000", "175631.343000", "175631.343000", "175631.359000", "175631.359000", "175631.359000", "175631.359000", "175631.359000", "175631.359000", "175631.375000", "175631.375000", "175631.375000", "175631.375000", "175631.375000", "175631.375000", "175631.375000", "175631.390000", "175631.390000", "175631.390000", "175631.390000", "175631.390000", "175631.390000", "175631.390000", "175631.406000", "175731.343000", "175731.343000", "175731.343000", "175731.343000", "175731.343000", "175731.343000", "175731.343000", "175731.359000", "175731.359000", "175731.359000", "175731.359000", "175731.359000", "175731.359000", "175731.375000", "175731.375000", "175731.375000", "175731.375000", "175731.375000", "175731.375000", "175731.375000", "175731.390000", "175731.390000", "175731.390000", "175731.390000", "175731.390000", "175731.406000", "175731.406000", "175731.406000", "175831.343000", "175831.343000", "175831.343000", "175831.343000", "175831.343000", "175831.343000", "175831.343000", "175831.359000", "175831.359000", "175831.359000", "175831.359000", "175831.359000", "175831.359000", "175831.359000", "175831.375000", "175831.375000", "175831.375000", "175831.375000", "175831.375000", "175831.375000", "175831.390000", "175831.390000", "175831.390000", "175831.390000", "175831.390000", "175831.390000", "175831.390000", "175831.406000", "175831.406000", "175931.343000", "175931.343000", "175931.343000", "175931.343000", "175931.343000", "175931.343000", "175931.359000", "175931.359000", "175931.359000", "175931.359000", "175931.359000", "175931.359000", "175931.359000", "175931.375000", "175931.375000", "175931.375000", "175931.375000", "175931.375000", "175931.375000", "175931.375000", "175931.390000", "175931.390000", "175931.390000", "175931.390000", "175931.390000", "175931.406000", "175931.406000", "175931.406000", "180031.343000", "180031.343000", "180031.343000", "180031.343000", "180031.343000", "180031.343000", "180031.343000", "180031.359000", "180031.359000", "180031.359000", "180031.359000", "180031.359000", "180031.359000", "180031.375000", "180031.375000", "180031.375000", "180031.375000", "180031.375000", "180031.375000", "180031.375000", "180031.390000", "180031.390000", "180031.390000", "180031.390000", "180031.390000", "180031.390000", "180031.390000", "180031.406000", "180131.343000", "180131.343000", "180131.343000", "180131.343000", "180131.343000", "180131.343000", "180131.359000", "180131.359000", "180131.359000", "180131.359000", "180131.359000", "180131.359000", "180131.359000", "180131.375000", "180131.375000", "180131.375000", "180131.375000", "180131.375000", "180131.375000", "180131.375000", "180131.390000", "180131.390000", "180131.390000", "180131.390000", "180131.390000", "180131.406000", "180131.406000", "180131.406000", "180231.343000", "180231.343000", "180231.343000", "180231.343000", "180231.343000", "180231.343000", "180231.343000", "180231.359000", "180231.359000", "180231.359000", "180231.359000", "180231.359000", "180231.359000", "180231.375000", "180231.375000", "180231.375000", "180231.375000", "180231.375000", "180231.375000", "180231.375000", "180231.390000", "180231.390000", "180231.390000", "180231.390000", "180231.390000", "180231.390000", "180231.390000", "180231.406000", "180231.406000", "180325.734000", "180325.734000", "180325.734000", "180325.734000", "180325.734000", "180325.750000", "180325.750000", "180325.750000", "180325.750000", "180325.750000", "180325.750000", "180325.750000", "180325.765000", "180325.765000", "180325.765000", "180325.765000", "180325.765000", "180325.765000", "180325.765000", "180325.781000", "180325.781000", "180325.781000", "180325.781000", "180325.781000", "180325.781000", "180325.796000"],
      "DataSetTrailingPadding": [
        "\u0000\u0000\u0000\u0000\u0000\u0000",
        "\u0000\u0000\u0000\u0000\u0000\u0000\u0000\u0000",
        "\u0000\u0000\u0000\u0000\u0000\u0000",
        "\u0000\u0000\u0000\u0000",
        "\u0000\u0000\u0000\u0000\u0000\u0000",
        "\u0000\u0000\u0000\u0000\u0000\u0000\u0000\u0000",
        "\u0000\u0000\u0000\u0000",
        "\u0000\u0000\u0000\u0000\u0000\u0000",
        "\u0000\u0000\u0000\u0000",
